TEMP00
Integration time [ms]:   8,000
Averaging Nr. [scans]: 10
Smoothing Nr. [pixels]: 0
Data measured with spectrometer [name]: 7314920SP
Wave   ;Sample   ;Dark     ;Reference;Reflectance
[nm]   ;[counts] ;[counts] ;[counts] ;[%]

 199,42;  101,220;   63,873;  150,055;43,33540
 200,02;  118,516;   92,669;  145,732;48,71099
 200,62;   72,732;   67,563;   88,793;24,34817
 201,22;  119,908;   86,969;  138,011;64,53343
 201,82;   91,995;   66,174;  141,790;34,14698
 202,42;  104,919;  101,668;  154,973; 6,09846
 203,03;   70,933;   60,168;   91,775;34,06017
 203,63;   89,145;   69,967;  109,037;49,08467
 204,23;   95,565;   70,671;  129,903;42,02885
 204,83;   91,750;   74,567;  123,718;34,96000
 205,43;   81,620;   56,673;  123,555;37,30045
 206,03;   72,653;   50,167;   90,459;55,80835
 206,63;   76,298;   68,865;  100,007;23,86981
 207,24;  113,072;   74,675;  162,566;43,68704
 207,84;   49,456;   39,967;   83,699;21,69826
 208,44;   68,108;   50,669;   95,011;39,32852
 209,04;   67,895;   47,365;   85,066;54,45567
 209,64;   94,037;   69,972;  127,998;41,47299
 210,24;   60,250;   45,367;   97,218;28,70380
 210,84;   77,605;   51,469;  101,970;51,75334
 211,44;  101,094;   86,470;  122,908;40,13378
 212,05;   75,995;   60,865;   99,266;39,40109
 212,65;   83,633;   66,368;  112,975;37,04461
 213,25;  118,919;   93,768;  142,073;52,06742
 213,85;   94,784;   84,465;  114,904;33,89993
 214,45;   61,550;   53,367;  100,418;17,39228
 215,05;   51,305;   39,369;  100,070;19,66351
 215,65;   66,202;   55,169;  105,630;21,86466
 216,25;   57,950;   40,267;   82,518;41,85268
 216,85;   45,911;   34,069;   89,651;21,30510
 217,45;   63,033;   49,068;   97,375;28,90971
 218,05;   76,285;   58,270;  112,886;32,98497
 218,66;   36,313;   28,769;   75,692;16,07918
 219,26;   48,145;   26,567;   79,337;40,88948
 219,86;   46,771;   36,771;   81,584;22,31579
 220,46;   74,388;   54,270;  104,127;40,35168
 221,06;   73,665;   51,871;  115,903;34,03692
 221,66;   70,557;   43,471;  103,481;45,13518
 222,26;   56,837;   39,772;  102,398;27,24914
 222,86;   80,025;   67,268;  118,954;24,68131
 223,46;   59,250;   51,767;   88,918;20,14274
 224,06;   88,868;   64,971;  120,343;43,15757
 224,66;   84,480;   57,570;  105,805;55,78773
 225,26;   70,197;   48,169;  113,748;33,58857
 225,86;   67,429;   42,173;  112,376;35,97543
 226,46;   76,122;   49,968;  102,913;49,39802
 227,06;   46,880;   27,670;   87,705;31,99675
 227,66;   41,087;   37,665;   74,845; 9,20330
 228,27;   53,288;   29,270;   96,227;35,87100
 228,87;  105,982;   89,170;  143,046;31,20558
 229,47;   52,234;   29,172;   92,357;36,49918
 230,07;   30,097;   11,169;   59,648;39,04174
 230,67;   51,111;   38,169;   84,651;27,84258
 231,27;   54,488;   27,670;   76,327;55,11669
 231,87;   58,711;   43,169;  100,751;26,99070
 232,47;   81,478;   43,775;  132,047;42,71204
 233,07;   50,901;   42,965;   75,547;24,35805
 233,67;   70,033;   53,768;   94,275;40,15447
 234,27;   27,753;    0,567;   53,259;51,59473
 234,87;   60,471;   34,771;  106,084;36,03879
 235,47;   36,397;   16,169;   74,148;34,88685
 236,07;   37,673;   30,266;   72,042;17,72999
 236,67;   53,962;   49,966;   85,180;11,34531
 237,27;   47,415;   28,873;  109,074;23,11865
 237,87;   61,380;   25,370;   99,805;48,37674
 238,47;   30,716;   14,269;   68,032;30,59281
 239,07;   52,640;   33,272;   95,738;31,00539
 239,67;   73,541;   43,477;  131,421;34,18588
 240,27;   64,329;   46,773;  119,176;24,24748
 240,87;   72,512;   50,773;  119,533;31,61485
 241,47;   43,021;   39,164;   76,131;10,43423
 242,07;   49,828;   39,968;   92,894;18,62901
 242,67;   14,117;  -11,027;   77,914;28,27065
 243,27;   20,150;    7,767;   46,418;32,03850
 243,87;   68,368;   48,671;  108,343;33,00924
 244,47;   53,865;   22,371;   99,703;40,72639
 245,07;   27,905;    2,669;   55,770;47,52444
 245,67;   42,233;   31,068;   85,575;20,48443
 246,27;   41,298;   34,965;   69,007;18,60510
 246,87;   33,625;   26,668;   63,154;19,06691
 247,46;   15,932;   19,663;   23,793;-90,33906
 248,06;   33,385;   20,470;   69,786;26,18847
 248,66;   60,837;   31,072;  105,898;39,77910
 249,26;   33,473;   32,366;   70,742; 2,88445
 249,86;   56,229;   42,873;  102,176;22,52148
 250,46;   33,475;   16,775;   93,507;21,76401
 251,06;   45,133;   22,168;   65,375;53,15185
 251,66;   32,474;   20,771;   64,724;26,62651
 252,26;   42,767;   38,866;   70,261;12,42562
 252,86;   39,805;   35,969;   89,070; 7,22385
 253,46;    2,850;   -8,033;   22,118;36,09562
 254,06;   55,476;   31,766;   79,483;49,68857
 254,66;   55,620;   34,973;  100,155;31,67634
 255,26;   62,826;   39,073;  118,836;29,77960
 255,86;   46,221;   37,464;   55,631;48,20331
 256,46;   32,894;   19,870;   70,208;25,87310
 257,05;   26,677;   23,570;   59,565; 8,63005
 257,65;   71,571;   38,071;   97,684;56,19629
 258,25;   55,834;   37,372;  101,457;28,80861
 258,85;   41,305;   15,669;   51,770;71,01179
 259,45;   13,611;    6,869;   42,951;18,68469
 260,05;   44,650;   46,667;   85,818;-5,15111
 260,65;   45,167;   45,066;   83,561; 0,26246
 261,25;   49,868;   29,371;   85,943;36,23215
 261,85;   15,560;   -0,129;   47,622;32,85523
 262,45;   54,505;   46,169;  109,270;13,21048
 263,04;   75,723;   53,073;  116,295;35,82616
 263,64;   54,842;   33,767;   77,097;48,63775
 264,24;   53,963;   37,671;   89,062;31,70099
 264,84;   98,000;   58,974;  138,671;48,96843
 265,44;   35,436;   26,368;   67,716;21,93209
 266,04;   50,081;   48,865;   71,464; 5,38018
 266,64;   48,062;   39,866;   86,780;17,46845
 267,24;   51,062;   40,166;   68,980;37,81212
 267,84;   42,819;   24,668;   76,573;34,96969
 268,43;   73,230;   48,368;   95,935;52,26880
 269,03;   56,813;   46,969;   87,892;24,05699
 269,63;   71,170;   58,566;   92,402;37,25053
 270,23;   12,987;   10,765;   39,045; 7,85637
 270,83;   62,667;   55,266;   83,161;26,53167
 271,43;   41,739;   23,967;   58,856;50,93757
 272,03;   65,536;   64,168;   99,116; 3,91577
 272,62;   36,502;   23,269;   68,730;29,10886
 273,22;   29,582;   11,970;   61,046;35,88787
 273,82;   14,289;   17,460;   26,403;-35,46707
 274,42;   19,918;   25,164;   46,890;-24,14407
 275,02;   30,804;   34,864;   60,388;-15,90887
 275,62;   54,034;   31,972;  100,457;32,21435
 276,21;   31,591;   22,770;   69,267;18,97112
 276,81;   45,156;   46,767;   71,099;-6,61997
 277,41;   50,554;   22,971;   96,341;37,59426
 278,01;   19,104;   21,364;   42,788;-10,55149
 278,61;   54,308;   38,869;   83,811;34,35324
 279,20;   76,629;   65,473;  119,076;20,81212
 279,80;    3,163;    6,762;   11,539;-75,32694
 280,40;   49,573;   36,866;   79,742;29,63624
 281,00;   11,908;   -4,331;   33,311;43,14082
 281,60;   46,203;   20,774;   74,812;47,05856
 282,20;   50,094;   36,670;   70,108;40,14578
 282,79;   42,230;   29,568;   70,135;31,21415
 283,39;   25,470;   17,466;   44,702;29,38782
 283,99;   16,801;   23,165;   34,347;-56,90389
 284,59;   21,899;   16,869;   45,289;17,69908
 285,19;   33,353;   27,067;   57,759;20,48176
 285,78;   35,194;   23,270;   63,808;29,41435
 286,38;   45,698;   39,665;   59,207;30,87466
 286,98;   40,530;   35,168;   73,535;13,97713
 287,58;   22,165;    4,771;   61,403;30,71501
 288,17;   36,926;    8,973;   80,336;39,17030
 288,77;   50,161;   19,976;   92,504;41,61835
 289,37;   22,505;   11,269;   57,670;24,21488
 289,97;   37,401;   48,965;   66,647;-65,39376
 290,57;   57,349;   46,672;   93,260;22,91734
 291,16;   69,736;   63,868;  102,616;15,14525
 291,76;   21,682;    5,570;   47,346;38,56840
 292,36;   34,445;   34,367;   58,137; 0,32546
 292,96;   17,032;   -3,127;   60,117;31,87484
 293,55;   37,756;   24,267;   65,399;32,79447
 294,15;   34,291;   26,870;   62,567;20,78883
 294,75;   44,698;   42,065;   66,207;10,90864
 295,35;   27,936;   21,068;   52,016;22,19361
 295,94;   38,659;   42,967;   66,740;-18,12058
 296,54;   25,622;   30,768;   70,613;-12,91589
 297,14;   43,657;   29,971;   76,881;29,17422
 297,73;   19,890;   12,165;   40,085;27,66704
 298,33;   42,876;   28,066;   57,583;50,17412
 298,93;   34,825;   41,968;   82,554;-17,60075
 299,53;   25,943;   24,872;   69,079; 2,42234
 300,12;   20,457;  -12,229;   59,481;45,58028
 300,72;   52,142;   41,567;   91,197;21,30676
 301,32;   57,071;   25,771;   99,584;42,40490
 301,92;    6,815;    3,664;   33,050;10,72393
 302,51;   20,247;   11,567;   49,978;22,59876
 303,11;   26,053;   14,667;   48,759;33,39867
 303,71;   39,416;   21,369;   82,132;29,70165
 304,30;   18,778;    5,466;   38,423;40,39384
 304,90;   24,976;   19,666;   44,283;21,57008
 305,50;   37,987;   18,565;   64,345;42,42445
 306,09;   30,373;   15,466;   49,042;44,39712
 306,69;   57,863;   34,171;   90,262;42,23747
 307,29;   21,991;   18,760;   33,144;22,46499
 307,88;   55,199;   43,269;   72,489;40,82871
 308,48;   21,688;    0,070;   49,727;43,53493
 309,08;   -7,662;   -4,437;   11,774;-19,89358
 309,68;   18,590;   22,365;   39,585;-21,92356
 310,27;   23,302;   20,169;   49,830;10,56286
 310,87;   34,122;   23,468;   54,813;33,98868
 311,47;   56,950;   54,967;   92,918; 5,22585
 312,06;   53,293;   47,865;   68,426;26,39799
 312,66;   55,536;   51,168;  100,016; 8,94302
 313,26;   58,774;   48,571;   96,224;21,41145
 313,85;   48,653;   38,267;   65,959;37,50644
 314,45;   62,408;   42,969;   86,611;44,54212
 315,04;   57,193;   52,165;   81,826;16,95047
 315,64;   33,242;   21,267;   47,897;44,96700
 316,24;   51,588;   40,770;   85,627;24,11699
 316,83;   47,473;   40,366;   76,742;19,53726
 317,43;   40,439;   35,167;   68,156;15,97955
 318,03;   39,526;   39,063;   70,012; 1,49659
 318,62;   78,769;   73,061;   94,820;26,23168
 319,22;   29,119;    7,668;   66,973;36,17069
 319,82;   50,336;   40,768;   93,516;18,13999
 320,41;   72,616;   59,069;   98,732;34,15674
 321,01;   93,487;   80,465;  115,945;36,70207
 321,60;   85,418;   81,164;  102,790;19,67155
 322,20;   83,420;   67,673;  132,855;24,15889
 322,80;   74,642;   54,567;   91,797;53,92096
 323,39;   72,007;   65,764;   94,828;21,47825
 323,99;   84,667;   61,766;  102,661;55,99946
 324,59;   62,226;   73,063;   97,512;-44,32494
 325,18;   68,247;   40,967;   92,178;53,27084
 325,78;   84,590;   76,365;  108,885;25,29103
 326,37;   76,233;   74,868;  108,075; 4,11211
 326,97;   78,342;   63,267;  111,497;31,25569
 327,57;   49,332;   42,263;   76,493;20,65181
 328,16;   71,721;   60,864;   93,631;33,13440
 328,76;   73,959;   50,467;  110,140;39,36803
 329,35;   89,271;   56,871;  137,484;40,19243
 329,95;   46,394;   27,470;   91,308;29,64376
 330,54;   57,550;   52,167;   94,018;12,86289
 331,14;   47,156;   26,967;   82,599;36,29027
 331,74;   64,987;   54,165;   96,145;25,77858
 332,33;   64,588;   35,370;  108,127;40,15853
 332,93;   50,515;   43,764;   79,250;19,02534
 333,52;   60,570;   42,466;   93,102;35,75339
 334,12;   96,413;   72,069;  140,392;35,63200
 334,71;   53,373;   50,666;   87,942; 7,26184
 335,31;   84,253;   63,267;  119,859;37,08348
 335,90;   35,449;   32,362;   53,836;14,37497
 336,50;   41,398;   30,665;   77,207;23,06205
 337,10;   69,602;   38,769;  121,530;37,25575
 337,69;   58,698;   51,765;   93,707;16,53129
 338,29;   51,445;   30,467;  101,037;29,72563
 338,88;   52,825;   22,468;   99,854;39,22785
 339,48;   68,352;   57,862;  111,677;19,49257
 340,07;   65,064;   48,566;  107,321;28,07970
 340,67;   50,171;   31,171;  124,784;20,29673
 341,26;   52,973;   48,466;   98,942; 8,92883
 341,86;   74,697;   61,469;  138,348;17,20503
 342,45;   76,399;   45,669;  142,689;31,67400
 343,05;   61,699;   27,269;  115,689;38,93932
 343,64;   64,962;   47,366;  122,480;23,42460
 344,24;   32,598;   28,765;   92,107; 6,05218
 344,83;   72,901;   71,365;  121,747; 3,04974
 345,43;   53,859;   29,667;  114,240;28,60500
 346,02;   58,211;   41,469;  124,351;20,19957
 346,62;   66,674;   40,971;  140,424;25,84453
 347,21;   66,390;   42,165;  131,985;26,97021
 347,81;   63,549;   26,172;  140,560;32,67539
 348,40;   39,521;   29,064;  100,731;14,59139
 349,00;   52,926;   49,163;  137,712; 4,24984
 349,59;   98,882;   65,870;  177,846;29,48160
 350,19;   59,674;   32,571;  139,424;25,36491
 350,78;   53,453;   55,467;  140,759;-2,36102
 351,38;   35,211;   15,869;  140,951;15,46331
 351,97;   57,559;   26,767;  136,040;28,17906
 352,57;   55,088;   42,570;  155,827;11,05289
 353,16;   40,807;   30,564;  134,328; 9,87091
 353,76;   69,682;   38,770;  169,846;23,58350
 354,35;   59,197;   27,669;  160,148;23,79777
 354,95;   65,591;   43,970;  182,067;15,65641
 355,54;   67,319;   38,368;  163,973;23,04918
 356,14;   59,097;   40,069;  164,749;15,26083
 356,73;   51,052;   29,162;  145,176;18,86818
 357,32;   44,216;   13,769;  164,432;20,20912
 357,92;   58,746;   17,772;  181,419;25,03785
 358,51;   89,743;   43,372;  214,179;27,14812
 359,11;   72,949;   36,772;  212,360;20,60319
 359,70;   57,977;   28,470;  189,965;18,27080
 360,30;   69,963;   54,562;  188,039;11,53880
 360,89;   42,125;   31,168;  188,054; 6,98385
 361,48;   83,391;   55,570;  216,467;17,29119
 362,08;   51,239;   19,867;  187,156;18,75288
 362,67;   43,132;   39,763;  192,693; 2,20303
 363,27;   92,647;   60,767;  247,678;17,05645
 363,86;   65,787;   35,765;  215,745;16,68064
 364,46;   90,721;   44,664;  257,231;21,66714
 365,05;   99,523;   64,659;  254,989;18,31750
 365,64;   94,203;   50,960;  269,706;19,76863
 366,24;  110,039;   38,558;  309,432;26,38919
 366,83;  140,199;   43,255;  335,383;33,18536
 367,43;  138,519;   51,545;  352,843;28,86659
 368,02;  152,485;   34,646;  399,757;32,27490
 368,61;  196,144;   62,239;  475,425;32,40782
 369,21;  169,853;   32,419;  445,299;33,28664
 369,80;  208,721;   43,007;  526,947;34,24280
 370,39;  250,744;   62,006;  604,971;34,76066
 370,99;  269,103;   42,089;  615,416;39,59593
 371,58;  235,819;   22,974;  630,953;35,00870
 372,18;  277,283;   37,166;  701,603;36,13848
 372,77;  271,831;   42,449;  679,385;36,01325
 373,36;  310,090;   42,747;  690,836;41,25101
 373,96;  262,824;   35,135;  639,498;37,67423
 374,55;  247,344;   29,844;  621,406;36,76703
 375,14;  241,233;   42,849;  573,826;37,36215
 375,74;  239,570;   69,157;  543,276;35,94299
 376,33;  185,917;   45,964;  464,589;33,43160
 376,92;  153,732;   33,278;  447,997;29,04468
 377,52;  248,492;   86,103;  548,460;35,12197
 378,11;  183,209;   46,703;  457,203;33,25368
 378,71;  216,825;   73,011;  514,270;32,59181
 379,30;  235,804;   59,517;  553,928;35,65595
 379,89;  245,086;   59,813;  556,103;37,33158
 380,49;  221,987;   31,018;  568,185;35,55117
 381,08;  269,838;   70,306;  570,990;39,85196
 381,67;  267,996;   55,008;  555,483;42,55722
 382,26;  243,638;   41,706;  539,390;40,57442
 382,86;  228,698;   54,003;  516,041;37,80960
 383,45;  241,800;   50,412;  562,105;37,40282
 384,04;  253,506;   38,712;  553,886;41,69337
 384,64;  250,869;   49,014;  566,760;38,98728
 385,23;  261,533;   64,406;  560,509;39,73501
 385,82;  285,135;   59,615;  592,774;42,29881
 386,42;  318,557;   61,024;  659,022;43,06590
 387,01;  286,975;   55,414;  580,541;44,09617
 387,60;  318,579;   69,009;  590,140;47,89016
 388,20;  290,100;   37,712;  590,805;45,63203
 388,79;  354,379;   72,418;  665,563;47,53647
 389,38;  297,838;   32,106;  564,890;49,87619
 389,97;  343,741;   45,415;  640,955;50,09331
 390,57;  360,360;   71,114;  654,038;49,61988
 391,16;  378,760;   62,514;  655,838;53,30076
 391,75;  362,683;   52,713;  638,562;52,90950
 392,34;  398,925;   60,821;  696,694;53,17164
 392,94;  404,873;   44,718;  689,683;55,84101
 393,53;  392,324;   41,016;  666,612;56,15572
 394,12;  434,477;   53,023;  719,105;57,26828
 394,72;  435,880;   54,213;  706,122;58,54608
 395,31;  441,035;   42,115;  694,874;61,11291
 395,90;  461,854;   42,924;  732,881;60,71830
 396,49;  516,078;   58,028;  779,187;63,51579
 397,09;  504,601;   47,417;  749,188;65,14723
 397,68;  541,243;   44,025;  800,719;65,70926
 398,27;  548,403;   54,626;  809,652;65,39871
 398,86;  551,532;   43,125;  807,657;66,49905
 399,45;  589,419;   56,630;  844,037;67,66370
 400,05;  570,547;   23,820;  799,518;70,48202
 400,64;  613,867;   56,419;  831,001;71,96759
 401,23;  626,436;   53,920;  859,956;71,02861
 401,82;  656,436;   67,220;  868,256;73,55676
 402,42;  663,722;   62,921;  873,953;74,07856
 403,01;  704,943;   81,525;  912,919;74,98466
 403,60;  717,796;   68,532;  940,513;74,45855
 404,19;  724,749;   76,024;  931,900;75,79654
 404,78;  731,199;   57,522;  909,929;79,03235
 405,38;  753,782;   68,332;  984,210;74,84073
 405,97;  739,809;   63,226;  953,933;75,96022
 406,56;  811,469;   71,528; 1004,366;79,32156
 407,15;  783,947;   68,829;  989,442;77,67846
 407,74;  828,827;   80,730; 1026,758;79,07767
 408,34;  808,576;   50,933; 1018,629;78,29353
 408,93;  856,305;   59,531; 1016,234;83,28325
 409,52;  841,523;   51,435; 1041,359;79,81292
 410,11;  902,699;   84,931; 1090,453;81,32769
 410,70;  879,395;   54,727; 1027,230;84,79847
 411,29;  882,675;   58,628; 1030,847;84,75943
 411,89;  932,714;   60,535; 1093,938;84,39875
 412,48;  912,072;   48,228; 1051,606;86,09358
 413,07;  947,656;   65,033; 1101,446;85,16140
 413,66;  952,020;   78,135; 1102,119;85,34165
 414,25;  977,777;   63,337; 1142,311;84,75090
 414,84;  980,405;   69,431; 1102,434;88,18690
 415,44; 1012,833;   91,530; 1155,939;86,55532
 416,03; 1014,389;   76,637; 1161,173;86,46569
 416,62; 1018,355;   76,138; 1168,687;86,24021
 417,21; 1040,142;   75,334; 1158,843;89,04479
 417,80; 1037,775;   65,037; 1162,871;88,60518
 418,39; 1063,321;   78,440; 1179,201;89,47273
 418,98; 1039,954;   55,634; 1143,405;90,48961
 419,58; 1035,865;   64,033; 1142,067;90,14855
 420,17; 1047,128;   52,735; 1164,540;89,43951
 420,76; 1080,489;   72,537; 1192,873;89,96868
 421,35; 1061,411;   60,236; 1155,197;91,43477
 421,94; 1076,921;   88,340; 1223,501;87,08728
 422,53; 1072,715;   61,540; 1195,320;89,18620
 423,12; 1096,246;   64,039; 1190,766;91,61116
 423,71; 1065,414;   60,835; 1162,138;91,21733
 424,30; 1110,997;   85,236; 1210,695;91,14160
 424,90; 1076,063;   39,438; 1163,809;92,19605
 425,49; 1118,424;   70,140; 1216,242;91,46517
 426,08; 1115,624;   80,240; 1209,641;91,67543
 426,67; 1104,508;   57,436; 1168,257;94,26114
 427,26; 1102,964;   60,343; 1230,391;89,10929
 427,85; 1089,060;   63,238; 1209,968;89,45631
 428,44; 1125,578;   68,442; 1218,093;91,95279
 429,03; 1139,690;   85,341; 1233,155;91,85708
 429,62; 1136,393;   78,941; 1240,296;91,05327
 430,21; 1152,045;   81,443; 1277,807;89,48792
 430,80; 1131,608;   70,445; 1235,381;91,09198
 431,39; 1122,239;   53,344; 1246,926;89,55352
 431,99; 1133,214;   78,535; 1206,838;93,47483
 432,58; 1147,346;   82,639; 1251,166;91,11537
 433,17; 1114,920;   69,735; 1238,319;89,44029
 433,76; 1155,968;   71,347; 1288,314;89,12499
 434,35; 1153,014;   88,245; 1292,462;88,42001
 434,94; 1156,032;   70,849; 1318,887;86,95109
 435,53; 1146,956;   78,643; 1278,669;89,02413
 436,12; 1123,742;   70,044; 1294,267;86,07076
 436,71; 1144,310;   87,740; 1303,239;86,92475
 437,30; 1140,098;   76,941; 1299,177;86,98461
 437,89; 1170,616;   76,245; 1320,802;87,93259
 438,48; 1150,967;   65,942; 1305,731;87,51689
 439,07; 1177,252;   95,238; 1347,147;86,42914
 439,66; 1209,354;   83,648; 1375,711;87,12472
 440,25; 1195,242;   85,844; 1390,567;85,02939
 440,84; 1178,318;   79,850; 1387,984;83,97208
 441,43; 1202,613;   78,054; 1440,985;82,51030
 442,02; 1204,406;   79,650; 1411,022;84,48096
 442,61; 1213,439;   93,344; 1397,226;85,90461
 443,20; 1234,220;   94,249; 1446,625;84,29397
 443,79; 1203,785;   74,546; 1412,957;84,37166
 444,38; 1251,246;   84,248; 1461,789;84,71598
 444,97; 1277,199;   84,146; 1466,359;86,31472
 445,56; 1313,391;  101,846; 1477,038;88,10008
 446,15; 1317,786;   81,651; 1522,539;85,78984
 446,74; 1299,236;   58,644; 1462,286;88,38381
 447,33; 1334,185;   82,646; 1538,357;85,97446
 447,92; 1365,692;   78,151; 1570,720;86,26344
 448,51; 1414,497;   89,746; 1586,019;88,53671
 449,10; 1436,505;   92,045; 1608,840;88,63820
 449,69; 1454,201;   73,950; 1627,741;88,83114
 450,28; 1488,057;   66,948; 1608,251;92,20177
 450,87; 1530,463;   78,647; 1656,333;92,02186
 451,46; 1576,240;   96,048; 1702,208;92,15717
 452,05; 1576,017;   70,950; 1715,384;91,52493
 452,64; 1610,503;   70,850; 1725,182;93,06798
 453,23; 1695,372;  113,752; 1794,936;94,07776
 453,82; 1726,595;   83,451; 1800,660;95,68687
 454,40; 1726,703;   65,450; 1786,682;96,51537
 454,99; 1817,141;  101,253; 1871,891;96,90793
 455,58; 1800,774;   69,747; 1832,095;98,22279
 456,17; 1859,958;   63,852; 1873,634;99,24435
 456,76; 1879,992;   67,751; 1918,820;97,90241
 457,35; 1937,446;   78,348; 1930,490;100,37557
 457,94; 1948,130;   66,954; 1978,929;98,38917
 458,53; 1997,698;   67,350; 2010,101;99,36157
 459,12; 2068,959;   82,657; 2111,116;97,92174
 459,71; 2061,351;   58,148; 2060,071;100,06398
 460,30; 2085,954;   84,448; 2087,511;99,92227
 460,89; 2121,792;   57,551; 2129,920;99,60781
 461,48; 2163,530;   75,954; 2173,829;99,50908
 462,06; 2196,812;   68,050; 2187,303;100,44866
 462,65; 2188,234;   48,249; 2176,527;100,55007
 463,24; 2295,585;   87,456; 2288,680;100,31366
 463,83; 2231,712;   54,450; 2229,803;100,08773
 464,42; 2314,932;   88,349; 2333,687;99,16470
 465,01; 2319,103;   73,050; 2336,482;99,23220
 465,60; 2351,006;   64,050; 2384,322;98,56413
 466,19; 2360,830;   73,354; 2462,829;95,73133
 466,77; 2372,886;   81,551; 2462,939;96,21850
 467,36; 2384,162;   69,457; 2459,256;96,85772
 467,95; 2376,484;   79,551; 2466,098;96,24500
 468,54; 2402,519;   71,954; 2513,866;95,44014
 469,13; 2409,175;   69,452; 2535,977;94,85909
 469,72; 2429,602;   67,555; 2582,723;93,91206
 470,31; 2443,896;   87,855; 2629,242;92,70688
 470,90; 2391,715;   76,750; 2652,044;89,89128
 471,48; 2397,856;   32,057; 2671,875;89,61978
 472,07; 2438,471;  125,747; 2686,454;90,31584
 472,66; 2435,750;   67,853; 2748,412;88,33593
 473,25; 2444,686;   68,351; 2723,339;89,50456
 473,84; 2441,110;   55,955; 2766,545;87,99395
 474,43; 2456,420;   55,459; 2843,049;86,13034
 475,01; 2520,716;   69,254; 2885,926;87,03398
 475,60; 2489,205;   49,755; 2882,364;86,12024
 476,19; 2541,439;   74,158; 2956,932;85,58705
 476,78; 2508,062;   71,057; 2964,456;84,22636
 477,37; 2532,905;   59,355; 2945,364;85,70831
 477,95; 2591,790;   75,656; 3018,661;85,49540
 478,54; 2590,541;   63,253; 3023,691;85,36874
 479,13; 2626,841;   56,253; 3070,291;85,28720
 479,72; 2684,424;   81,154; 3090,147;86,51632
 480,31; 2706,614;   63,459; 3167,468;85,15295
 480,89; 2702,816;   60,254; 3171,026;84,94874
 481,48; 2749,394;   46,260; 3214,084;85,33094
 482,07; 2779,519;   61,654; 3233,866;85,67725
 482,66; 2817,038;   52,853; 3253,650;86,35928
 483,25; 2884,694;   78,960; 3319,884;86,57205
 483,83; 2890,713;   59,954; 3325,385;86,68866
 484,42; 2946,730;   54,354; 3355,129;87,62719
 485,01; 3004,345;   65,958; 3400,413;88,12196
 485,60; 3051,118;   73,764; 3490,590;87,13799
 486,18; 3026,090;   66,956; 3490,761;86,42823
 486,77; 3056,272;   67,252; 3519,736;86,57593
 487,36; 3096,615;   58,464; 3561,750;86,72290
 487,95; 3152,980;   59,161; 3640,781;86,38043
 488,53; 3146,583;   54,461; 3642,522;86,17807
 489,12; 3157,629;   50,563; 3722,252;84,62225
 489,71; 3132,657;   38,062; 3680,357;84,96278
 490,30; 3199,789;   61,460; 3742,503;85,25650
 490,88; 3209,977;   87,561; 3859,141;82,78802
 491,47; 3164,427;   60,663; 3867,512;81,53104
 492,06; 3193,341;   62,563; 3920,615;81,14919
 492,65; 3163,672;   59,161; 3947,060;79,85060
 493,23; 3177,697;   54,860; 3982,825;79,50268
 493,82; 3166,444;   65,853; 4018,031;78,45272
 494,41; 3145,366;   51,361; 4066,179;77,06464
 494,99; 3144,210;   73,655; 4126,945;75,75464
 495,58; 3128,489;   86,060; 4224,403;73,51803
 496,17; 3085,885;   56,356; 4198,681;73,13596
 496,76; 3037,990;   65,356; 4276,761;70,58533
 497,34; 3038,254;   54,557; 4305,235;70,19343
 497,93; 3018,556;   66,057; 4350,675;68,90927
 498,52; 3003,708;   60,059; 4454,387;66,98748
 499,10; 2964,055;   75,862; 4533,217;64,79611
 499,69; 2902,503;   55,360; 4537,006;63,52896
 500,28; 2877,214;   37,959; 4592,068;62,34491
 500,86; 2880,863;   62,862; 4698,539;60,78943
 501,45; 2831,363;   53,462; 4730,438;59,39524
 502,04; 2829,657;   53,362; 4813,958;58,31824
 502,62; 2826,685;   70,956; 4856,181;57,58828
 503,21; 2808,379;   57,856; 4939,699;56,34190
 503,80; 2815,952;   69,662; 5015,577;55,52643
 504,38; 2828,897;   58,460; 5081,425;55,15542
 504,97; 2817,452;   49,962; 5122,776;54,55531
 505,56; 2825,623;   70,859; 5194,989;53,76061
 506,14; 2829,812;   64,064; 5263,709;53,19109
 506,73; 2781,498;   23,565; 5292,507;52,34321
 507,32; 2848,287;   62,865; 5376,045;52,42476
 507,90; 2871,494;   70,860; 5443,284;52,12981
 508,49; 2901,396;   58,865; 5500,366;52,23799
 509,08; 2938,221;   67,264; 5571,931;52,15496
 509,66; 2940,292;   69,960; 5677,644;51,18569
 510,25; 2951,774;   63,561; 5737,400;50,90404
 510,83; 3017,298;   45,165; 5855,607;51,15159
 511,42; 3037,322;   61,968; 5895,913;51,00072
 512,01; 3053,107;   59,164; 5980,328;50,56341
 512,59; 3066,252;   46,562; 6041,676;50,36918
 513,18; 3104,366;   59,961; 6114,379;50,28402
 513,77; 3116,965;   42,257; 6171,797;50,16213
 514,35; 3155,943;   37,763; 6190,255;50,68159
 514,94; 3204,355;   58,662; 6323,517;50,21174
 515,52; 3227,473;   48,166; 6358,342;50,38381
 516,11; 3254,501;   80,665; 6474,047;49,64252
 516,69; 3213,411;   41,959; 6446,727;49,51705
 517,28; 3281,042;   83,358; 6541,973;49,51037
 517,87; 3229,748;   45,558; 6604,054;48,55062
 518,45; 3283,337;   74,858; 6626,192;48,97443
 519,04; 3274,128;   54,258; 6707,970;48,39208
 519,62; 3238,341;   55,863; 6774,114;47,37063
 520,21; 3253,770;   24,466; 6828,002;47,46508
 520,79; 3307,333;   52,068; 7000,875;46,84639
 521,38; 3294,186;   52,960; 6995,363;46,68737
 521,97; 3272,825;   43,068; 7141,554;45,49923
 522,55; 3250,125;   67,759; 7195,230;44,64931
 523,14; 3254,623;   26,759; 7180,289;45,12267
 523,72; 3338,783;   77,561; 7383,422;44,63844
 524,31; 3292,998;   71,665; 7406,107;43,92064
 524,89; 3282,336;   48,468; 7526,815;43,24309
 525,48; 3244,862;   21,666; 7603,580;42,51163
 526,06; 3220,107;   56,264; 7633,128;41,75662
 526,65; 3257,380;   72,370; 7803,105;41,19931
 527,23; 3202,946;   46,262; 7840,596;40,49973
 527,82; 3212,747;   37,967; 7905,978;40,35048
 528,41; 3221,264;   67,366; 8041,021;39,55399
 528,99; 3153,995;   66,365; 8108,167;38,39476
 529,58; 3131,249;   42,562; 8168,736;38,00912
 530,16; 3122,066;   49,461; 8315,379;37,17197
 530,75; 3166,510;   73,964; 8417,069;37,06708
 531,33; 3089,862;   45,566; 8440,980;36,26141
 531,92; 3076,191;   48,560; 8567,344;35,54065
 532,50; 3171,591;   87,770; 8706,468;35,78059
 533,09; 3177,384;   65,665; 8807,204;35,59692
 533,67; 3155,131;   63,458; 8952,011;34,78264
 534,26; 3189,100;   65,760; 9007,665;34,92925
 534,84; 3257,972;   68,461; 9127,061;35,20975
 535,42; 3352,209;   61,564; 9205,969;35,98534
 536,01; 3491,841;   79,263; 9330,215;36,88894
 536,59; 3587,170;   43,366; 9482,202;37,54492
 537,18; 3730,903;   77,360; 9568,605;38,49382
 537,76; 3892,951;   56,972; 9764,700;39,51470
 538,35; 4111,528;   59,368; 9892,694;41,20843
 538,93; 4333,507;   72,664; 9941,828;43,17329
 539,52; 4521,379;   57,370;10111,405;44,40017
 540,10; 4766,902;   63,269;10309,029;45,90809
 540,69; 5045,124;   68,763;10444,071;47,96349
 541,27; 5203,255;   58,262;10514,917;49,20305
 541,85; 5391,676;   47,366;10658,783;50,36377
 542,44; 5578,494;   56,460;10765,484;51,56431
 543,02; 5814,402;   80,369;10952,729;52,73954
 543,61; 5964,250;   77,067;11102,218;53,39776
 544,19; 6055,079;   55,066;11264,023;53,52873
 544,78; 6214,067;   62,766;11296,562;54,75711
 545,36; 6362,508;   77,469;11521,011;54,92215
 545,94; 6432,910;   54,564;11563,069;55,42288
 546,53; 6550,957;   52,771;11724,882;55,67276
 547,11; 6668,219;   90,668;11879,873;55,79300
 547,70; 6757,403;   75,860;11954,706;56,24741
 548,28; 6818,595;   47,965;12093,066;56,21065
 548,86; 6886,396;   81,365;12327,767;55,56759
 549,45; 6937,625;   33,768;12364,953;55,98697
 550,03; 7073,745;   76,467;12507,537;56,28862
 550,62; 7175,473;   63,566;12662,842;56,44695
 551,20; 7282,350;   61,467;12808,418;56,64792
 551,78; 7289,115;   61,164;12952,850;56,06677
 552,37; 7398,609;   55,864;13112,469;56,23779
 552,95; 7459,801;   56,765;13214,547;56,26356
 553,54; 7549,598;   49,965;13393,207;56,20548
 554,12; 7626,242;   67,167;13498,797;56,27816
 554,70; 7763,619;   67,568;13736,973;56,30129
 555,29; 7794,090;   61,965;13856,285;56,05296
 555,87; 7868,785;   60,170;13987,786;56,06570
 556,45; 7929,458;   57,162;14154,058;55,84418
 557,04; 7960,456;   43,667;14376,600;55,23496
 557,62; 8082,956;   68,867;14525,499;55,43538
 558,20; 8148,354;   42,671;14799,940;54,92671
 558,79; 8246,333;  100,368;14905,875;55,01983
 559,37; 8251,550;   49,867;15000,418;54,85873
 559,95; 8409,813;   46,669;15169,691;55,30075
 560,54; 8482,521;   71,768;15324,613;55,14219
 561,12; 8534,467;   50,866;15485,562;54,96448
 561,70; 8627,011;   50,369;15679,551;54,87582
 562,29; 8748,928;   61,768;15810,994;55,15928
 562,87; 8796,725;   73,168;16023,953;54,69045
 563,45; 8854,825;   71,068;16194,754;54,47735
 564,04; 8893,546;   54,362;16227,195;54,65452
 564,62; 8994,017;   37,769;16438,332;54,60939
 565,20; 9032,363;   59,962;16715,838;53,86929
 565,78; 9165,992;   70,765;16797,326;54,37595
 566,37; 9283,876;   71,066;17011,283;54,38425
 566,95; 9330,603;   52,969;17124,330;54,34618
 567,53; 9444,357;   67,262;17308,857;54,38647
 568,12; 9447,695;   62,265;17367,766;54,23380
 568,70; 9606,604;   85,264;17565,889;54,46796
 569,28; 9648,011;   61,069;17745,252;54,21196
 569,86; 9721,153;   67,767;17910,758;54,10184
 570,45; 9825,800;   78,569;18124,689;54,01289
 571,03; 9905,360;   53,962;18259,898;54,11091
 571,61;10085,574;   46,571;18424,824;54,62436
 572,19; 9973,038;   54,263;18395,773;54,07829
 572,78;10093,533;   70,668;18668,975;53,89128
 573,36;10233,210;   84,264;18797,668;54,23356
 573,94;10318,315;   44,064;18892,750;54,50911
 574,52;10284,714;   54,559;19030,768;53,91043
 575,11;10421,021;   37,264;19159,830;54,30106
 575,69;10518,062;   53,566;19268,680;54,45971
 576,27;10496,680;   47,161;19391,381;54,01882
 576,85;10591,909;   43,264;19549,668;54,07786
 577,44;10642,357;   30,262;19814,158;53,64007
 578,02;10664,708;   32,159;19753,887;53,91287
 578,60;10804,118;   50,464;20073,791;53,70563
 579,18;10926,029;   51,963;20160,752;54,07619
 579,76;10889,007;   40,264;20300,129;53,54795
 580,35;11006,394;   60,170;20436,707;53,71975
 580,93;11129,739;   59,667;20641,557;53,78550
 581,51;11146,190;   24,770;20697,168;53,79841
 582,09;11172,043;   58,663;20755,756;53,69537
 582,67;11206,851;   49,567;20971,318;53,32863
 583,26;11344,422;   28,568;21227,014;53,38058
 583,84;11362,212;   14,164;21413,709;53,02939
 584,42;11479,704;   48,064;21513,287;53,25656
 585,00;11541,262;   81,366;21772,180;52,83294
 585,58;11617,456;   25,167;21912,299;52,96395
 586,17;11644,183;   46,761;21948,521;52,95201
 586,75;11571,070;    6,666;22026,902;52,51717
 587,33;11738,747;   47,767;22191,678;52,79546
 587,91;11798,370;   74,866;22390,201;52,53564
 588,49;11791,058;   63,962;22349,758;52,62139
 589,07;11813,736;   45,468;22403,215;52,63620
 589,65;11786,459;   28,267;22444,439;52,45406
 590,24;11829,061;   42,562;22447,799;52,60600
 590,82;11819,472;   28,261;22484,160;52,50830
 591,40;11841,412;   41,464;22520,209;52,49380
 591,98;11851,411;   45,759;22558,227;52,44051
 592,56;11973,271;   61,161;22699,961;52,61812
 593,14;11932,711;   43,359;22728,928;52,40932
 593,72;12025,198;   29,765;22889,107;52,47497
 594,30;12011,009;   36,759;22797,486;52,60926
 594,89;12030,106;   41,364;22862,428;52,53367
 595,47;12069,783;   38,961;22922,623;52,57385
 596,05;12151,355;   30,267;23003,799;52,76110
 596,63;12146,355;   31,167;23056,199;52,61747
 597,21;12172,173;   36,766;23145,441;52,51451
 597,79;12129,559;   35,467;23166,039;52,28618
 598,37;12130,797;   36,669;23222,748;52,16116
 598,95;12253,770;   50,766;23305,301;52,47580
 599,53;12188,564;   46,757;23207,996;52,42296
 600,11;12259,901;   48,665;23341,947;52,42386
 600,70;12207,927;   57,363;23315,111;52,24308
 601,28;12240,112;   38,564;23424,809;52,17404
 601,86;12282,770;   61,766;23355,102;52,46567
 602,44;12246,372;   23,661;23449,660;52,17584
 603,02;12203,787;   38,656;23576,521;51,68324
 603,60;12289,539;   54,858;23663,232;51,82348
 604,18;12242,535;   69,263;23594,734;51,74507
 604,76;12184,543;   59,263;23642,154;51,41558
 605,34;12050,981;   27,565;23530,764;51,15651
 605,92;12074,069;   59,561;23453,719;51,35687
 606,50;11989,561;   17,662;23498,998;50,98474
 607,08;11885,861;   31,666;23394,881;50,73872
 607,66;11795,873;   39,266;23561,643;49,98052
 608,24;11668,253;   46,067;23522,059;49,50669
 608,82;11573,321;   26,164;23532,031;49,12458
 609,40;11489,265;   46,466;23471,021;48,84959
 609,98;11298,906;   18,864;23505,928;48,02662
 610,56;11169,286;   43,861;23497,662;47,43549
 611,14;11010,689;   30,765;23481,086;46,82206
 611,72;10822,596;   42,665;23572,467;45,81395
 612,30;10544,246;   24,962;23468,496;44,87073
 612,88;10369,125;   60,659;23517,730;43,94609
 613,46;10096,561;   21,862;23505,697;42,90057
 614,04; 9905,819;   30,068;23461,873;42,14678
 614,62; 9704,380;   41,561;23489,982;41,20883
 615,20; 9524,937;   52,768;23402,416;40,56664
 615,78; 9277,402;   25,569;23463,430;39,47388
 616,36; 9093,215;   41,364;23400,150;38,75138
 616,94; 8913,573;    7,666;23272,242;38,28098
 617,52; 8745,039;   24,067;23373,656;37,34957
 618,10; 8668,517;   63,559;23336,107;36,97471
 618,68; 8527,876;   17,966;23253,184;36,62505
 619,26; 8461,931;   39,268;23398,834;36,05659
 619,84; 8355,935;   18,963;23277,133;35,84535
 620,42; 8351,298;   31,165;23313,506;35,73581
 621,00; 8343,998;   28,865;23209,607;35,87087
 621,58; 8333,303;   38,760;23216,406;35,78682
 622,16; 8451,276;   49,270;23335,164;36,08196
 622,74; 8630,173;   47,066;23327,742;36,86795
 623,32; 8688,278;   42,166;23291,223;37,18909
 623,90; 8843,471;   66,971;23311,484;37,75730
 624,48; 8936,960;   32,662;23196,598;38,44035
 625,05; 9089,460;   34,562;23105,098;39,24876
 625,63; 9256,960;   52,962;23188,799;39,78243
 626,21; 9337,746;   38,262;23117,596;40,29355
 626,79; 9579,650;   53,967;23219,719;41,11968
 627,37; 9580,354;   28,162;23090,717;41,41862
 627,95; 9754,437;   72,768;23200,215;41,86225
 628,53; 9757,198;   49,365;23176,607;41,97575
 629,11; 9852,020;   48,259;23043,449;42,63396
 629,69; 9845,717;   53,369;23256,932;42,20192
 630,27; 9874,435;   80,763;23105,434;42,53556
 630,84; 9840,460;   43,862;23021,197;42,63592
 631,42; 9905,438;   54,367;23319,656;42,34235
 632,00; 9809,814;   45,459;23125,768;42,30600
 632,58; 9794,323;   50,263;23105,172;42,26458
 633,16; 9781,079;   49,870;23096,906;42,22326
 633,74; 9613,804;   56,264;23018,488;41,62288
 634,32; 9517,377;   45,661;23007,842;41,24920
 634,90; 9451,782;   51,970;23195,746;40,61486
 635,47; 9284,092;   38,860;23035,645;40,20228
 636,05; 9210,577;   37,461;22989,342;39,96673
 636,63; 9134,998;   45,965;23104,807;39,41669
 637,21; 9116,707;   67,464;23150,529;39,20295
 637,79; 8969,084;   71,465;23192,904;38,48211
 638,37; 8798,699;   54,055;23070,883;37,99239
 638,94; 8699,590;   33,265;23100,686;37,56954
 639,52; 8653,090;   41,665;23195,285;37,19256
 640,10; 8674,038;   64,264;23215,900;37,18862
 640,68; 8594,798;   54,164;23175,334;36,93859
 641,26; 8533,958;   35,864;23250,268;36,60699
 641,84; 8540,318;   39,164;23235,002;36,64948
 642,41; 8456,278;   28,264;23192,936;36,38305
 642,99; 8506,239;   48,464;23145,568;36,61834
 643,57; 8454,799;   22,064;23158,402;36,44801
 644,15; 8457,560;   27,064;23178,035;36,41530
 644,73; 8526,220;   37,564;23277,568;36,52605
 645,30; 8506,979;   55,264;23230,303;36,46905
 645,88; 8518,239;   44,964;23362,635;36,33843
 646,46; 8518,699;   59,264;23447,568;36,16951
 647,04; 8538,260;   51,864;23367,902;36,39725
 647,61; 8531,620;   46,564;23396,336;36,33892
 648,19; 8547,580;   61,664;23433,369;36,30850
 648,77; 8568,740;   26,264;23442,002;36,48177
 649,35; 8555,801;   51,064;23590,137;36,13030
 649,92; 8543,761;   42,464;23596,070;36,09340
 650,50; 8484,021;   30,064;23551,104;35,94210
 651,08; 8458,581;   39,964;23450,537;35,96075
 651,66; 8542,341;   21,864;23534,770;36,23745
 652,23; 8556,701;   39,064;23561,004;36,21146
 652,81; 8613,761;   36,464;23644,137;36,33266
 653,39; 8613,222;   56,164;23647,170;36,27254
 653,97; 8609,682;   37,065;23882,504;35,95076
 654,54; 8628,441;   23,565;23823,137;36,15559
 655,12; 8727,502;   30,965;23831,971;36,53853
 655,70; 8722,562;   42,065;23962,805;36,28858
 656,28; 8835,422;   32,765;23947,037;36,80922
 656,85; 8893,082;   44,065;24051,070;36,86015
 657,43; 8893,442;   -1,035;23831,305;37,32104
 658,01; 8962,902;   21,465;24078,539;37,16760
 658,58; 9095,263;   55,165;24234,371;37,38790
 659,16; 9078,923;   51,965;24154,105;37,45293
 659,74; 9141,583;   59,465;24338,039;37,40796
 660,32; 9198,143;   71,665;24327,672;37,62564
 660,89; 9193,503;   34,265;24347,305;37,67212
 661,47; 9249,764;   51,665;24464,939;37,67663
 662,05; 9296,523;   25,365;24587,373;37,74593
 662,62; 9377,783;   59,665;24584,006;37,99539
 663,20; 9442,344;   80,665;24740,139;37,96382
 663,78; 9477,904;   47,965;24902,773;37,94010
 664,35; 9479,364;   52,465;24921,006;37,90693
 664,93; 9523,724;   64,465;25123,539;37,74784
 665,51; 9484,084;   49,565;25170,973;37,55569
 666,08; 9449,845;   30,165;25185,707;37,44574
 666,66; 9587,005;   47,465;25667,539;37,23463
 667,23; 9606,965;   51,765;25732,773;37,20726
 667,81; 9690,024;   65,865;25889,307;37,26908
 668,39; 9651,885;   43,265;26047,141;36,95072
 668,96; 9713,646;   54,665;26309,074;36,78994
 669,54; 9730,306;   38,765;26408,408;36,75264
 670,12; 9886,466;   51,165;26808,740;36,75707
 670,69; 9996,325;   64,165;26950,674;36,94105
 671,27;10033,886;   25,565;27096,008;36,97140
 671,84;10013,046;   40,665;27105,240;36,84662
 672,42;10150,706;   66,265;27253,875;37,09205
 673,00;10181,766;   57,165;27531,408;36,85124
 673,57;10144,326;   59,965;27276,441;37,05241
 674,15;10258,187;   64,065;27613,475;37,00305
 674,72;10234,646;   58,565;27536,209;37,03404
 675,30;10290,807;   69,466;27513,541;37,24425
 675,88;10353,566;   36,266;27573,176;37,46717
 676,45;10380,627;   59,466;27677,309;37,37135
 677,03;10490,688;   67,866;27525,043;37,96028
 677,60;10547,547;   41,466;27770,576;37,88827
 678,18;10634,407;   59,466;27877,510;38,01468
 678,76;10630,367;   40,766;27809,143;38,13547
 679,33;10742,428;   57,666;27813,176;38,49600
 679,91;10729,888;   44,266;27813,311;38,48034
 680,48;10780,248;   28,766;27740,242;38,79794
 681,06;10814,008;   50,866;27735,176;38,87813
 681,63;10785,668;   37,566;27736,209;38,80371
 682,21;10861,128;   67,966;27797,543;38,92292
 682,78;10687,688;   20,566;27459,576;38,87576
 683,36;10880,648;   46,966;27565,510;39,36866
 683,93;10796,209;   30,466;27450,645;39,26212
 684,51;10820,869;   26,166;27477,277;39,32337
 685,08;10984,129;   38,966;27733,711;39,52072
 685,66;10937,289;   53,066;27694,045;39,37713
 686,24;11029,149;   33,766;27796,578;39,60472
 686,81;11066,810;   57,666;27899,910;39,54115
 687,39;11090,270;   38,866;27807,844;39,79766
 687,96;11141,529;   54,166;27850,479;39,88789
 688,54;11191,689;   30,866;27984,811;39,92575
 689,11;11250,950;   26,966;28043,545;40,06194
 689,69;11315,110;   29,666;28019,279;40,32011
 690,26;11441,070;   59,466;28289,313;40,31763
 690,84;11464,730;   50,066;28239,846;40,49221
 691,41;11551,091;   35,966;28403,879;40,59208
 691,98;11553,950;   31,466;28427,912;40,57720
 692,56;11660,811;   32,866;28437,445;40,93687
 693,13;11864,071;   64,866;28655,080;41,27008
 693,71;11784,831;   24,466;28657,912;41,07213
 694,28;11929,491;   41,966;28715,945;41,45753
 694,86;11958,251;   47,266;28928,879;41,24072
 695,43;12019,111;   61,366;29100,912;41,17745
 696,01;12200,271;   36,266;29145,547;41,78738
 696,58;12255,231;   42,167;29083,879;42,05353
 697,16;12338,992;   38,067;29126,414;42,28816
 697,73;12503,352;   63,467;29338,246;42,49352
 698,30;12423,212;   51,867;29223,980;42,40812
 698,88;12562,672;   40,467;29558,613;42,42206
 699,45;12694,133;   35,367;29765,848;42,57841
 700,03;12695,093;   56,067;29750,980;42,56293
 700,60;12815,753;   56,267;29850,613;42,82519
 701,18;12936,113;   61,867;29963,947;43,05468
 701,75;12958,373;   74,367;30094,682;42,91763
 702,32;12980,533;   50,367;29901,914;43,31490
 702,90;13131,394;   52,467;30254,148;43,30529
 703,47;13214,653;   51,367;30428,881;43,33234
 704,05;13286,313;   67,767;30546,715;43,36943
 704,62;13327,674;   39,867;30587,848;43,49815
 705,19;13387,534;   43,667;30586,982;43,68834
 705,77;13494,694;   29,967;30618,314;44,01914
 706,34;13619,454;   61,667;30627,049;44,35668
 706,91;13686,515;   46,367;30673,883;44,53560
 707,49;13702,874;   57,267;30976,316;44,13333
 708,06;13829,234;   66,367;31089,049;44,36389
 708,64;13889,395;   25,767;31093,582;44,62376
 709,21;13970,854;   58,167;31179,316;44,70493
 709,78;14038,215;   41,367;31281,150;44,80456
 710,36;14229,475;   61,667;31419,684;45,18082
 710,93;14258,436;   50,567;31562,416;45,08738
 711,50;14484,995;   44,467;31506,049;45,89893
 712,08;14573,355;   76,567;31925,383;45,51751
 712,65;14696,716;   73,667;31775,916;46,12622
 713,22;14650,976;   69,067;31900,250;45,81014
 713,80;14743,736;   84,167;31966,883;45,97968
 714,37;14794,896;   55,767;31827,018;46,39140
 714,94;14836,856;   53,967;31727,551;46,67261
 715,52;14898,816;   47,867;31732,984;46,87043
 716,09;14932,076;   65,467;31891,918;46,71149
 716,66;14984,437;   73,467;31935,051;46,79921
 717,23;15053,797;   66,867;31908,484;47,06711
 717,81;15098,057;   50,168;31812,018;47,37724
 718,38;15060,617;   47,468;31671,252;47,47423
 718,95;15063,077;   59,068;31618,984;47,54135
 719,53;15139,737;   56,568;31661,418;47,72422
 720,10;15080,798;   59,968;31481,252;47,80463
 720,67;15059,657;   35,768;31355,984;47,96866
 721,24;15031,018;   59,468;31256,020;47,99104
 721,82;15026,978;   49,968;31236,053;48,02466
 722,39;15199,638;   64,068;31235,885;48,55530
 722,96;15197,198;   64,968;31261,420;48,50625
 723,53;15191,559;   88,268;31151,953;48,62041
 724,11;15333,418;   61,568;31207,486;49,03323
 724,68;15269,778;   71,568;31242,020;48,75839
 725,25;15305,839;   72,768;31399,953;48,62573
 725,82;15434,398;   96,068;31564,387;48,74214
 726,40;15514,859;   62,668;31714,820;48,81877
 726,97;15521,919;   62,168;31875,354;48,59542
 727,54;15642,479;   46,968;31801,486;49,11273
 728,11;15801,140;   49,568;32045,820;49,22943
 728,69;15721,499;   39,568;31938,953;49,16061
 729,26;15834,560;   53,568;32105,088;49,23633
 729,83;15934,620;   53,268;32264,621;49,30359
 730,40;15978,080;   66,768;32291,754;49,37570
 730,97;16067,740;   44,268;32590,588;49,23282
 731,55;16195,101;   41,468;32755,820;49,37782
 732,12;16276,360;   86,268;32841,656;49,42726
 732,69;16372,921;   66,968;32889,988;49,67840
 733,26;16354,381;   55,168;32930,520;49,57882
 733,83;16544,141;   41,168;32979,055;50,10331
 734,41;16651,301;   65,468;32991,590;50,37287
 734,98;16640,160;   51,368;33155,621;50,11076
 735,55;16733,221;   43,168;33183,656;50,36152
 736,12;16823,480;   65,968;33377,289;50,30576
 736,69;16904,742;   76,968;33377,922;50,53241
 737,26;16901,402;   57,468;33552,254;50,28823
 737,84;16982,361;   70,768;33487,188;50,60863
 738,41;17080,922;   63,168;33492,422;50,90677
 738,98;17036,082;   63,569;33375,055;50,95093
 739,55;17105,342;   49,669;33377,789;51,17502
 740,12;17147,803;   62,969;33678,023;50,82495
 740,69;17166,262;   70,569;33575,656;51,02417
 741,26;17230,623;   56,269;33557,391;51,26501
 741,83;17288,383;   53,869;33719,523;51,19316
 742,41;17253,043;   56,169;33833,055;50,91314
 742,98;17249,803;   91,469;33874,590;50,78966
 743,55;17295,063;   53,569;33836,824;51,03562
 744,12;17224,023;   50,469;33859,855;50,79523
 744,69;17381,084;   59,569;33848,492;51,26389
 745,26;17182,844;   42,169;33677,723;50,95999
 745,83;17301,803;   58,769;33854,355;51,02156
 746,40;17288,164;   57,969;33844,789;50,99679
 746,97;17182,623;   44,769;33828,125;50,72869
 747,55;17319,084;   62,269;33966,957;50,89802
 748,12;17405,645;   57,869;33910,191;51,24545
 748,69;17356,805;   68,769;33877,625;51,13464
 749,26;17364,664;   65,069;33958,559;51,04106
 749,83;17397,525;   42,569;33911,992;51,24078
 750,40;17465,084;   89,669;34158,824;51,00043
 750,97;17441,846;   96,269;34144,160;50,94464
 751,54;17405,006;   40,569;33980,793;51,16182
 752,11;17360,766;   52,969;33874,727;51,17356
 752,68;17361,125;   87,869;33912,859;51,06655
 753,25;17281,686;   60,269;33774,594;51,08041
 753,82;17456,646;   65,069;33810,527;51,53753
 754,39;17539,807;   75,169;33727,160;51,89778
 754,96;17393,467;   60,069;33616,395;51,65464
 755,53;17580,525;   29,469;33796,527;51,97686
 756,10;17419,686;   64,169;33720,961;51,56616
 756,67;17488,846;   73,369;33813,395;51,61667
 757,24;17454,006;   72,769;33740,426;51,62592
 757,81;17492,566;   16,469;33677,762;51,91749
 758,38;17636,027;   54,569;33822,695;52,06525
 758,95;17575,787;   79,469;33743,426;51,97344
 759,52;17403,348;   57,469;33615,859;51,68865
 760,09;17397,307;   68,570;33306,992;52,13466
 760,66;17426,768;   59,570;33309,727;52,23193
 761,23;17313,928;   91,070;33353,961;51,77799
 761,80;17278,188;   56,270;33295,793;51,81157
 762,37;17254,947;   68,970;33167,727;51,92333
 762,94;17224,809;   70,970;33187,461;51,79848
 763,51;17079,168;   36,070;32949,793;51,78113
 764,08;17190,328;   66,270;32998,527;51,99783
 764,65;17056,588;   69,570;32798,961;51,90142
 765,22;17061,049;   54,670;32804,496;51,92815
 765,79;17022,908;   77,370;32691,928;51,95698
 766,36;17007,369;   73,170;32743,063;51,83427
 766,93;16988,029;   68,970;32551,295;52,08697
 767,50;17026,590;   89,470;32828,328;51,73400
 768,07;16925,549;   63,870;32699,262;51,66685
 768,64;16932,408;   86,470;32572,596;51,85579
 769,21;16797,969;   57,970;32359,729;51,82380
 769,78;16756,729;   78,770;32244,963;51,84934
 770,34;16583,389;   45,570;32031,195;51,70391
 770,91;16648,549;   58,470;31921,430;52,06697
 771,48;16648,811;   62,370;31836,863;52,20049
 772,05;16582,070;   66,470;31610,697;52,35697
 772,62;16530,230;   42,670;31443,029;52,50755
 773,19;16540,189;   59,370;31579,764;52,28621
 773,76;16465,051;   71,070;31506,297;52,15162
 774,33;16538,611;   74,170;31447,330;52,47938
 774,90;16440,971;   52,870;31206,064;52,60488
 775,47;16322,730;   59,970;30957,498;52,63450
 776,03;16329,891;   73,470;30984,330;52,59129
 776,60;16239,951;   55,970;30757,863;52,71330
 777,17;16159,611;   65,470;30698,098;52,53921
 777,74;16024,571;   30,870;30522,031;52,45357
 778,31;16035,331;   68,970;30582,064;52,32626
 778,88;15939,991;   30,470;30366,898;52,44362
 779,45;15854,651;   75,770;30358,131;52,10585
 780,01;15786,812;   58,370;30299,664;52,00982
 780,58;15780,772;   60,570;30177,998;52,19636
 781,15;15721,832;   38,771;29979,432;52,38048
 781,72;15587,692;   66,771;29962,266;51,91726
 782,29;15434,353;   51,771;29667,100;51,94128
 782,86;15416,413;   55,571;29617,732;51,96116
 783,42;15460,673;   56,171;29598,166;52,14442
 783,99;15255,433;   66,671;29482,100;51,63536
 784,56;15193,093;   55,171;29320,232;51,72694
 785,13;15141,553;   40,271;29247,266;51,70433
 785,70;15000,713;   49,071;29060,299;51,53743
 786,26;14954,174;   51,671;28910,732;51,63890
 786,83;14948,434;   84,371;28889,166;51,60274
 787,40;14874,094;   57,171;28783,500;51,57959
 787,97;14847,054;   43,971;28581,133;51,87300
 788,54;14797,114;   70,371;28515,268;51,77288
 789,10;14673,074;   57,971;28344,400;51,66825
 789,67;14675,034;   70,371;28245,334;51,83561
 790,24;14626,694;   51,071;28193,768;51,79185
 790,81;14395,454;   88,271;27914,400;51,41636
 791,37;14441,915;   73,671;27872,135;51,68719
 791,94;14484,675;   70,771;27886,367;51,81950
 792,51;14349,735;   46,271;27539,201;52,02597
 793,08;14234,295;   69,771;27555,234;51,53460
 793,64;14210,755;   71,271;27455,168;51,63430
 794,21;14136,516;   69,671;27250,602;51,75262
 794,78;14083,075;   53,071;27147,035;51,78277
 795,35;14054,136;   73,471;27007,969;51,90616
 795,91;13874,796;   48,071;26789,301;51,70564
 796,48;13802,756;   55,771;26710,734;51,57383
 797,05;13765,616;   57,671;26624,369;51,59823
 797,62;13727,276;   41,971;26600,701;51,52846
 798,18;13542,137;   57,471;26410,736;51,16886
 798,75;13415,996;   56,571;26279,770;50,94506
 799,32;13414,656;   60,771;26209,102;51,06974
 799,88;13345,217;   55,971;26051,535;51,12120
 800,45;13191,177;   33,971;25945,270;50,77787
 801,02;13186,837;   65,271;25880,104;50,82956
 801,58;13079,797;   90,872;25660,436;50,79838
 802,15;12997,457;   72,872;25615,270;50,60052
 802,72;12794,518;   66,172;25404,703;50,23316
 803,28;12770,178;   49,172;25288,938;50,40065
 803,85;12789,737;   41,972;25144,871;50,78204
 804,42;12649,298;   77,772;24948,004;50,54849
 804,98;12621,258;  100,672;24935,537;50,41536
 805,55;12495,218;   56,972;24702,371;50,46884
 806,12;12469,179;   83,572;24611,004;50,49696
 806,68;12404,538;   66,472;24493,738;50,50940
 807,25;12439,398;   74,972;24436,271;50,75438
 807,82;12343,459;   86,872;24407,805;50,39522
 808,38;12251,419;   73,672;24367,037;50,12787
 808,95;12250,079;   62,972;24166,971;50,56052
 809,52;12165,139;   50,272;24162,004;50,24470
 810,08;12190,399;   55,172;23994,938;50,69067
 810,65;12198,760;   77,172;24169,672;50,31270
 811,21;12200,619;   69,972;24123,404;50,43208
 811,78;12214,680;   92,472;24337,539;49,99866
 812,35;12138,640;   64,972;24173,871;50,07971
 812,91;12189,800;   90,072;24239,705;50,10315
 813,48;12168,860;   68,172;24202,738;50,13841
 814,04;12130,120;   64,172;24088,373;50,22414
 814,61;12066,480;   77,572;24176,006;49,74974
 815,18;12065,341;   67,772;23892,539;50,35755
 815,74;11955,101;   69,772;23709,172;50,27762
 816,31;11893,661;   83,372;23614,406;50,19027
 816,87;11695,821;   43,272;23489,641;49,69874
 817,44;11640,181;   76,972;23452,273;49,46763
 818,00;11511,041;   43,272;23159,506;49,60916
 818,57;11441,901;   71,872;23076,340;49,42531
 819,14;11461,161;   82,872;22924,273;49,81432
 819,70;11372,122;   72,672;22792,707;49,73342
 820,27;11223,082;   62,972;22691,941;49,31780
 820,83;11136,342;   70,072;22541,373;49,24623
 821,40;11074,802;   98,072;22431,908;49,14843
 821,96;11032,262;   75,272;22315,541;49,26644
 822,53;11007,223;   70,973;22257,574;49,29214
 823,09;10936,982;   81,073;22073,309;49,36247
 823,66;10827,643;   68,173;21862,541;49,36812
 824,22;10743,503;   77,173;21851,674;48,98542
 824,79;10755,163;   75,473;21561,408;49,70549
 825,35;10702,123;   65,173;21648,041;49,28423
 825,92;10630,184;   75,173;21398,875;49,49896
 826,48;10642,743;   87,673;21501,309;49,29135
 827,05;10528,604;   89,573;21448,242;48,87491
 827,61;10570,264;   75,273;21249,076;49,56592
 828,18;10428,224;   60,873;21191,209;49,06382
 828,74;10474,483;   91,673;21053,543;49,53189
 829,31;10449,644;   83,373;21002,176;49,55480
 829,87;10382,104;   73,073;20733,709;49,89697
 830,44;10314,265;   85,173;20631,443;49,78564
 831,00;10283,024;   91,273;20673,977;49,51610
 831,57;10233,385;  101,573;20631,609;49,35116
 832,13;10065,145;   72,073;20323,344;49,34540
 832,69;10065,305;   58,173;20309,477;49,41475
 833,26;10047,965;   85,473;20322,711;49,22852
 833,82; 9967,725;   93,073;20197,744;49,11621
 834,39; 9856,085;   78,773;20137,477;48,74349
 834,95; 9852,646;   57,173;19959,410;49,21795
 835,52; 9885,806;   87,873;19851,744;49,57497
 836,08; 9770,865;   95,573;19951,877;48,72655
 836,64; 9632,226;   76,273;19800,711;48,44727
 837,21; 9585,786;   88,673;19552,443;48,79380
 837,77; 9607,946;   91,873;19491,777;49,05217
 838,34; 9509,806;   67,473;19470,012;48,66545
 838,90; 9476,566;   64,473;19306,045;48,91541
 839,46; 9506,927;   83,873;19312,479;49,00539
 840,03; 9470,587;   76,173;19300,811;48,86653
 840,59; 9418,646;   85,873;19175,645;48,88887
 841,16; 9428,507;  105,173;19156,578;48,93777
 841,72; 9324,467;   59,373;18965,512;49,00574
 842,28; 9327,228;   77,873;18857,246;49,25273
 842,85; 9283,787;   95,573;18812,578;49,09019
 843,41; 9299,048;  105,374;18740,813;49,33436
 843,97; 9215,808;   89,174;18686,846;49,07407
 844,54; 9176,867;  104,774;18624,979;48,98484
 845,10; 9108,728;   89,174;18523,713;48,92747
 845,67; 9155,688;   68,774;18413,445;49,53435
 846,23; 9089,548;   78,674;18361,080;49,28713
 846,79; 9060,008;   90,474;18265,613;49,35057
 847,36; 8899,969;   55,774;18179,047;48,80021
 847,92; 8996,629;   84,874;18034,680;49,64820
 848,48; 8935,789;   41,874;18039,213;49,41795
 849,04; 8964,849;   62,374;17949,447;49,77044
 849,61; 8854,109;   56,274;17918,580;49,25364
 850,17; 8813,469;   68,174;17819,514;49,26555
 850,73; 8710,829;   71,474;17764,848;48,82820
 851,30; 8648,489;   46,074;17669,881;48,81133
 851,86; 8582,149;   75,874;17597,914;48,54615
 852,42; 8508,409;   51,174;17568,348;48,27968
 852,99; 8542,569;   79,274;17583,082;48,35117
 853,55; 8526,130;   83,174;17542,514;48,35782
 854,11; 8514,490;   70,074;17432,049;48,63742
 854,67; 8470,250;   85,474;17420,881;48,36792
 855,24; 8386,410;   51,874;17213,414;48,56520
 855,80; 8335,971;   76,874;17244,848;48,10758
 856,36; 8244,631;   80,574;17175,881;47,75613
 856,92; 8234,791;   54,474;17027,215;48,19679
 857,49; 8255,851;   81,274;17048,248;48,17934
 858,05; 8172,711;   67,274;16968,482;47,95774
 858,61; 8165,371;   65,774;17003,316;47,82038
 859,17; 8126,231;   77,374;16904,250;47,83334
 859,74; 8070,491;   82,074;16836,883;47,67835
 860,30; 8087,552;   93,074;16663,016;48,24687
 860,86; 8016,512;   72,074;16692,350;47,79967
 861,42; 7986,872;   74,674;16545,883;48,03653
 861,99; 7997,932;   54,674;16506,717;48,28129
 862,55; 7953,392;   66,374;16393,051;48,30755
 863,11; 7937,952;   75,174;16437,283;48,05479
 863,67; 7858,012;   61,274;16290,117;48,04248
 864,23; 7833,373;   80,175;16199,351;48,09922
 864,80; 7748,133;   69,175;16081,384;47,95689
 865,36; 7760,293;   71,875;16120,817;47,90607
 865,92; 7699,653;   96,175;16088,751;47,54380
 866,48; 7617,013;   67,375;15987,384;47,42233
 867,04; 7541,473;   60,675;15891,418;47,25488
 867,60; 7554,733;   99,375;15884,451;47,23043
 868,17; 7496,394;   93,675;15884,685;46,87933
 868,73; 7432,954;   82,775;15672,618;47,14723
 869,29; 7379,214;   59,475;15470,151;47,49784
 869,85; 7341,574;  100,475;15369,685;47,42288
 870,41; 7289,434;   80,575;15293,418;47,38667
 870,97; 7215,394;   92,975;15232,252;47,04597
 871,54; 7113,054;   84,175;15178,686;46,56580
 872,10; 7076,714;   84,275;15055,419;46,70611
 872,66; 6973,575;   66,775;14910,652;46,52962
 873,22; 6926,935;   81,975;14890,586;46,22283
 873,78; 6792,695;   65,275;14742,419;45,83603
 874,34; 6808,155;   95,075;14662,652;46,08233
 874,90; 6805,455;  109,775;14536,053;46,41308
 875,46; 6775,055;   96,375;14412,952;46,64998
 876,03; 6704,855;   86,475;14363,353;46,35734
 876,59; 6603,955;   64,475;14153,253;46,41623
 877,15; 6595,155;  101,475;14166,853;46,16783
 877,71; 6574,055;   78,275;14064,652;46,44362
 878,27; 6479,855;   95,675;13910,553;46,21235
 878,83; 6535,655;  114,275;13971,753;46,33873
 879,39; 6489,955;   91,075;14082,753;45,73347
 879,95; 6456,455;   86,275;13964,253;45,90136
 880,51; 6475,355;   75,175;13927,253;46,20375
 881,07; 6456,055;   82,375;13978,753;45,86577
 881,63; 6470,855;   92,575;13971,253;45,95740
 882,19; 6452,955;   82,675;13921,553;46,03177
 882,75; 6496,455;   86,275;14019,553;46,00626
 883,31; 6538,155;   95,575;14187,853;45,71709
 883,88; 6541,455;   96,375;14174,353;45,78129
 884,44; 6503,855;   76,175;14175,753;45,58775
 885,00; 6534,955;  106,075;14266,952;45,39888
 885,56; 6519,655;  101,675;14299,452;45,20412
 886,12; 6539,955;  109,875;14421,152;44,93016
 886,68; 6468,955;   90,775;14436,753;44,45971
 887,24; 6495,155;  102,475;14574,952;44,17129
 887,80; 6504,255;   86,975;14671,753;43,99985
 888,36; 6541,455;  106,275;14715,652;44,04828
 888,92; 6610,255;   98,975;14773,353;44,37176
 889,48; 6681,655;   99,575;14973,853;44,25143
 890,04; 6607,155;   95,275;14803,053;44,27508
 890,60; 6683,255;  117,475;15014,652;44,07399
 891,16; 6652,055;   99,875;15075,853;43,75127
 891,72; 6632,255;  113,275;15058,452;43,61929
 892,28; 6650,355;  112,475;15126,053;43,54645
 892,84; 6552,055;   93,775;15039,853;43,21054
 893,39; 6617,455;  117,575;15112,952;43,34589
 893,95; 6565,155;  112,975;15044,753;43,21106
 894,51; 6459,155;   66,375;14891,253;43,12197
 895,07; 6518,555;  127,375;14906,353;43,24508
 895,63; 6313,055;   74,275;14689,952;42,68554
 896,19; 6297,855;   90,375;14601,952;42,77605
 896,75; 6270,155;  105,175;14460,152;42,94664
 897,31; 6228,155;   82,775;14295,853;43,23750
 897,87; 6179,155;   98,175;14146,853;43,28507
 898,43; 6084,855;   87,775;14075,753;42,87310
 898,99; 6029,755;  109,175;14002,753;42,61379
 899,55; 5988,255;  109,475;13940,652;42,50383
 900,11; 5859,455;  104,975;13747,553;42,18030
 900,67; 5789,255;   91,375;13658,652;41,99722
 901,22; 5736,055;  108,375;13601,952;41,70636
 901,78; 5591,555;   91,275;13560,053;40,83726
 902,34; 5596,855;  103,075;13451,152;41,15784
 902,90; 5551,155;   73,575;13350,652;41,25592
 903,46; 5441,955;   95,775;13236,353;40,68451
 904,02; 5375,855;   88,075;13091,553;40,66435
 904,58; 5250,455;   67,075;12918,152;40,33421
 905,14; 5249,355;   63,975;12874,553;40,47733
 905,70; 5152,555;   66,775;12696,053;40,26976
 906,25; 5105,755;   84,375;12708,452;39,77621
 906,81; 5037,655;   87,675;12732,152;39,14737
 907,37; 5004,255;   79,275;12616,152;39,28394
 907,93; 4936,655;   74,775;12588,152;38,85346
 908,49; 4915,855;  101,875;12497,652;38,83564
 909,05; 4834,555;   89,675;12425,553;38,46407
 909,60; 4833,855;   86,575;12340,452;38,74104
 910,16; 4712,455;   67,675;12291,853;37,99667
 910,72; 4704,855;  100,475;12207,753;38,02985
 911,28; 4659,355;   90,875;12156,053;37,86500
 911,84; 4610,255;   79,575;12106,753;37,67035
 912,39; 4614,355;   73,475;12049,353;37,91689
 912,95; 4561,255;  104,475;12001,452;37,46145
 913,51; 4470,955;   85,375;11945,253;36,97829
 914,07; 4445,055;   83,775;11813,452;37,18159
 914,63; 4397,155;   64,775;11748,053;37,08189
 915,18; 4340,455;   77,475;11617,853;36,93969
 915,74; 4288,355;   63,975;11632,652;36,51567
 916,30; 4200,355;   61,475;11588,553;35,90572
 916,86; 4208,655;   83,575;11514,652;36,08654
 917,42; 4189,755;   82,275;11425,152;36,21197
 917,97; 4090,055;   75,375;11265,452;35,87714
 918,53; 4061,855;   67,775;11196,253;35,89062
 919,09; 3993,055;   88,975;11223,753;35,06204
 919,65; 3952,855;   83,375;11083,452;35,17684
 920,20; 3912,655;   61,875;10983,053;35,25975
 920,76; 3837,355;   65,475;10849,452;34,97671
 921,32; 3761,055;   82,675;10770,952;34,41509
 921,87; 3713,955;   97,475;10670,253;34,20558
 922,43; 3616,755;   64,675;10561,353;33,84004
 922,99; 3535,255;   61,875;10406,753;33,57584
 923,55; 3445,055;   63,775;10357,353;32,84844
 924,10; 3441,955;   73,575;10282,853;32,99332
 924,66; 3395,055;   78,675;10170,152;32,86318
 925,22; 3291,455;   43,275;10093,952;32,31802
 925,77; 3218,055;   66,075; 9927,053;31,96417
 926,33; 3258,455;   90,375; 9903,253;32,28492
 926,89; 3125,655;   71,975; 9692,753;31,74047
 927,44; 3069,055;   52,175; 9580,553;31,66205
 928,00; 3036,455;   66,875; 9533,753;31,36810
 928,56; 2972,755;   80,375; 9372,253;31,12804
 929,12; 2955,555;   72,775; 9275,152;31,32647
 929,67; 2820,555;   67,575; 9091,053;30,50908
 930,23; 2785,655;   50,975; 8915,253;30,85057
 930,78; 2814,155;  100,675; 8842,553;31,04001
 931,34; 2710,455;   61,975; 8632,152;30,90345
 931,90; 2644,955;   61,675; 8494,353;30,63416
 932,45; 2555,355;   78,775; 8290,753;30,15814
 933,01; 2459,855;   52,975; 8024,453;30,19365
 933,57; 2388,155;   72,175; 7753,252;30,15176
 934,12; 2260,655;   70,475; 7399,553;29,88343
 934,68; 2115,355;   59,075; 7020,252;29,53926
 935,24; 2009,355;   67,875; 6614,752;29,65505
 935,79; 1879,855;   72,975; 6254,853;29,22866
 936,35; 1782,155;   91,375; 5812,252;29,55456
 936,90; 1627,555;   80,275; 5348,752;29,36864
 937,46; 1503,155;   72,775; 4956,953;29,28600
 938,02; 1378,255;   63,375; 4549,152;29,31220
 938,57; 1297,155;   73,175; 4265,053;29,19885
 939,13; 1186,155;   70,575; 3986,752;28,48645
 939,68; 1067,955;   57,375; 3713,452;27,64110
 940,24; 1041,955;   68,775; 3504,052;28,32901
 940,79; 1015,055;   91,875; 3391,052;27,98213
 941,35;  965,255;   79,675; 3217,552;28,22226
 941,91;  907,255;   71,375; 3122,252;27,39802
 942,46;  885,655;   75,075; 3063,552;27,12351
 943,02;  859,155;   65,375; 3050,752;26,58893
 943,57;  830,655;   61,275; 2982,452;26,33801
 944,13;  858,255;   67,375; 2974,452;27,20533
 944,68;  839,555;   65,975; 3041,752;25,99590
 945,24;  845,555;   82,275; 3060,052;25,63254
 945,79;  834,755;   68,775; 3104,052;25,23591
 946,35;  850,655;   51,775; 3194,752;25,41794
 946,90;  895,455;   98,575; 3283,552;25,01996
 947,46;  870,955;   52,175; 3311,052;25,12460
 948,01;  875,755;   51,575; 3390,052;24,68730
 948,57;  931,755;   86,775; 3552,952;24,37786
 949,12;  921,155;   65,875; 3613,353;24,10953
 949,68;  962,455;   76,275; 3732,653;24,23656
 950,23;  985,055;   70,075; 3833,252;24,31403
 950,79;  978,755;   75,775; 3933,452;23,40735
 951,34; 1007,155;   83,275; 4070,952;23,16837
 951,90; 1011,055;   57,475; 4140,853;23,35273
 952,45; 1055,955;   81,075; 4292,152;23,15037
 953,01; 1040,255;   65,975; 4364,252;22,66675
 953,56; 1070,855;   87,975; 4500,853;22,27299
 954,12; 1043,055;   42,075; 4567,553;22,11877
 954,67; 1074,555;   70,875; 4720,453;21,58648
 955,23; 1087,855;   61,975; 4804,553;21,63127
 955,78; 1105,355;   67,175; 4882,953;21,55789
 956,33; 1081,755;   58,575; 4947,252;20,92959
 956,89; 1084,555;   53,475; 5038,553;20,68333
 957,44; 1092,655;   53,675; 5170,752;20,30417
 958,00; 1103,255;   49,475; 5238,353;20,30844
 958,55; 1124,655;   70,475; 5313,953;20,10460
 959,10; 1112,255;   52,375; 5370,252;19,93051
 959,66; 1121,755;   74,275; 5488,752;19,34591
 960,21; 1120,655;   78,475; 5567,453;18,98678
 960,77; 1086,655;   54,275; 5606,152;18,59515
 961,32; 1097,355;   48,375; 5663,453;18,68149
 961,87; 1099,855;   79,775; 5738,752;18,02587
 962,43; 1093,855;   68,975; 5780,652;17,94359
 962,98; 1130,955;   76,175; 5828,652;18,33610
 963,54; 1057,455;   27,075; 5820,652;17,78487
 964,09; 1085,155;   56,275; 5873,953;17,68541
 964,64; 1073,555;   64,975; 5901,053;17,28181
 965,20; 1071,055;   44,375; 5966,652;17,33590
 965,75; 1082,755;   66,575; 5976,353;17,19489
 966,30; 1061,255;   75,275; 6068,553;16,45143
 966,86; 1062,455;   62,975; 6121,953;16,49585
 967,41; 1065,355;   81,075; 6084,453;16,39544
 967,96; 1068,655;   75,175; 6108,953;16,46531
 968,52; 1064,955;   81,775; 6126,353;16,26549
 969,07; 1053,855;   72,975; 6120,152;16,22046
 969,62; 1026,855;   77,175; 6134,953;15,67704
 970,18; 1024,255;   57,575; 6147,652;15,87303
 970,73; 1012,855;   66,475; 6203,553;15,42069
 971,28; 1033,955;   95,775; 6197,053;15,37678
 971,84;  996,855;   55,075; 6118,752;15,53150
 972,39; 1022,755;   95,875; 6148,652;15,31330
 972,94; 1000,955;   54,975; 6140,652;15,54437
 973,49;  973,955;   64,575; 6141,252;14,96509
 974,05;  968,555;   64,375; 6178,053;14,78946
 974,60;  970,555;   88,575; 6213,252;14,40043
 975,15;  973,555;   77,675; 6231,553;14,55798
 975,71;  929,355;   62,375; 6121,453;14,30878
 976,26;  946,255;   77,575; 6110,252;14,39958
 976,81;  931,355;   90,675; 6134,152;13,91053
 977,36;  916,955;   84,775; 6156,953;13,70480
 977,92;  919,355;   90,175; 6209,353;13,55051
 978,47;  867,655;   77,175; 6060,252;13,21193
 979,02;  886,355;   95,475; 6085,652;13,20295
 979,57;  877,355;   86,775; 6058,453;13,23883
 980,13;  836,555;   76,175; 6038,752;12,75254
 980,68;  843,255;   77,075; 6010,553;12,91283
 981,23;  841,455;   89,175; 6054,652;12,61056
 981,78;  816,755;   82,075; 5974,152;12,46895
 982,33;  816,455;   79,275; 5893,252;12,67944
 982,89;  807,155;   94,375; 5938,152;12,19725
 983,44;  772,855;   65,675; 5935,853;12,04699
 983,99;  817,355;  104,775; 5949,453;12,19195
 984,54;  778,455;   81,475; 5900,053;11,97853
 985,09;  777,555;   87,275; 5873,752;11,92919
 985,65;  755,855;   69,375; 5811,853;11,95442
 986,20;  781,155;  106,575; 5791,152;11,86685
 986,75;  793,955;   95,875; 5823,953;12,18699
 987,30;  756,355;   97,175; 5726,053;11,71068
 987,85;  726,155;   92,475; 5721,353;11,25766
 988,40;  738,655;   96,675; 5693,953;11,46950
 988,96;  727,155;  114,875; 5666,553;11,02874
 989,51;  713,755;  108,875; 5644,053;10,92792
 990,06;  747,255;  128,275; 5680,853;11,14762
 990,61;  681,255;   93,575; 5569,053;10,73294
 991,16;  704,955;  104,375; 5558,053;11,01239
 991,71;  681,155;   79,875; 5505,853;11,08151
 992,26;  673,855;   93,475; 5457,252;10,82036
 992,81;  659,055;   75,075; 5427,053;10,91148
 993,37;  695,855;  113,475; 5390,553;11,03603
 993,92;  675,155;  108,375; 5368,953;10,77410
 994,47;  661,555;  117,475; 5329,652;10,43863
 995,02;  657,655;  118,475; 5313,252;10,37927
 995,57;  642,255;   90,875; 5274,652;10,63665
 996,12;  656,455;  133,575; 5247,553;10,22453
 996,67;  650,855;  132,375; 5191,652;10,24810
 997,22;  611,655;   99,875; 5128,652;10,17703
 997,77;  619,655;  115,275; 5110,553;10,09714
 998,32;  592,255;  103,775; 5015,652; 9,94487
 998,87;  610,155;  114,275; 5018,752;10,11076
 999,42;  589,855;  101,675; 4972,553;10,02242
 999,97;  572,955;  109,975; 4956,353; 9,55311
1000,53;  591,855;  123,475; 4993,752; 9,61711
1001,08;  550,955;   98,375; 4879,053; 9,46686
1001,63;  587,355;  144,475; 4878,053; 9,35614
1002,18;  513,555;   85,075; 4777,453; 9,13140
1002,73;  559,055;  131,375; 4813,853; 9,13363
1003,28;  551,355;  103,575; 4811,953; 9,51028
1003,83;  521,255;  119,075; 4691,752; 8,79528
1004,38;  543,355;  137,775; 4703,152; 8,88382
1004,93;  515,855;  114,375; 4680,953; 8,79170
1005,48;  511,655;  104,075; 4573,053; 9,12021
1006,03;  490,255;  112,775; 4525,652; 8,55406
1006,58;  501,055;  111,475; 4486,553; 8,90453
1007,13;  460,155;   94,475; 4466,252; 8,36456
1007,68;  487,855;  104,975; 4462,453; 8,78673
1008,23;  481,855;  114,575; 4425,853; 8,51905
1008,78;  475,155;  107,375; 4384,152; 8,59947
1009,33;  488,155;  121,875; 4307,752; 8,75038
1009,88;  453,755;   84,775; 4329,553; 8,69256
1010,43;  473,555;  118,875; 4320,752; 8,44099
1010,98;  444,655;  100,675; 4310,053; 8,17175
1011,52;  439,955;   97,075; 4264,953; 8,22673
1012,07;  490,455;  144,475; 4319,252; 8,28739
1012,62;  443,255;  103,875; 4259,152; 8,16745
1013,17;  428,855;   97,175; 4172,053; 8,13963
1013,72;  413,155;   94,575; 4143,453; 7,86835
1014,27;  428,455;  100,275; 4105,853; 8,19308
1014,82;  408,255;   86,875; 4042,952; 8,12370
1015,37;  406,555;   84,375; 3964,853; 8,30259
1015,92;  409,655;  109,475; 3894,252; 7,93125
1016,47;  388,255;   90,275; 3819,452; 7,99050
1017,02;  365,255;   81,075; 3732,153; 7,78346
1017,57;  391,955;   96,475; 3718,853; 8,15707
1018,11;  378,855;   77,275; 3656,252; 8,42643
1018,66;  380,755;  120,175; 3636,552; 7,41047
1019,21;  374,455;  109,675; 3579,552; 7,63082
1019,76;  338,155;   77,675; 3497,353; 7,61709
1020,31;  339,555;   71,975; 3446,452; 7,92952
1020,86;  344,955;   96,175; 3448,052; 7,42211
1021,41;  332,655;   80,175; 3387,052; 7,63500
1021,96;  325,855;   83,675; 3385,853; 7,33395
1022,50;  350,555;  105,975; 3332,952; 7,57923
1023,05;  326,655;   94,675; 3288,052; 7,26441
1023,60;  333,355;   97,975; 3251,353; 7,46438
1024,15;  302,455;   81,075; 3184,853; 7,13260
1024,70;  331,955;   95,075; 3176,252; 7,68797
1025,25;  293,855;   81,175; 3127,452; 6,98164
1025,79;  312,255;  101,175; 3110,752; 7,01361
1026,34;  298,955;   83,475; 3044,653; 7,27683
1026,89;  318,355;  102,175; 3039,052; 7,36088
1027,44;  310,555;   95,875; 2952,952; 7,51397
1027,99;  305,955;   93,475; 2944,552; 7,45262
1028,53;  283,955;   89,675; 2900,052; 6,91295
1029,08;  304,255;  114,775; 2876,653; 6,86055
1029,63;  306,655;  114,875; 2854,952; 6,99907
1030,18;  283,955;   92,075; 2788,552; 7,11595
1030,73;  273,855;   91,175; 2739,552; 6,89781
1031,27;  262,055;   85,875; 2715,252; 6,70045
1031,82;  270,455;   81,875; 2686,452; 7,24033
1032,37;  281,955;   98,875; 2688,853; 7,06879
1032,92;  278,655;  100,575; 2675,452; 6,91606
1033,46;  277,855;   99,775; 2599,252; 7,12469
1034,01;  254,655;   78,375; 2582,952; 7,03831
1034,56;  271,955;   98,875; 2559,252; 7,03469
1035,11;  257,955;   92,375; 2523,552; 6,81069
1035,65;  247,455;   87,575; 2478,052; 6,68820
1036,20;  237,655;   99,375; 2454,452; 5,87157
1036,75;  281,855;  118,675; 2446,353; 7,01042
1037,29;  252,455;   90,275; 2398,252; 7,02693
1037,84;  227,355;   78,375; 2347,252; 6,56624
1038,39;  241,955;   91,075; 2329,952; 6,73909
1038,94;  229,855;   73,075; 2277,153; 7,11318
1039,48;  238,255;   83,575; 2278,552; 7,04700
1040,03;  247,955;  102,875; 2245,252; 6,77192
1040,58;  238,955;  101,175; 2194,552; 6,58171
1041,12;  241,655;   91,375; 2191,653; 7,15524
1041,67;  227,655;  101,075; 2166,752; 6,12777
1042,22;  243,555;  118,475; 2145,252; 6,17137
1042,76;  225,555;   99,275; 2118,452; 6,25403
1043,31;  230,755;   90,675; 2060,653; 7,11074
1043,86;  230,055;   98,875; 2044,252; 6,74316
1044,40;  244,655;   92,975; 2018,052; 7,87916
1044,95;  224,355;   94,175; 1988,552; 6,87191
1045,50;  203,955;   75,375; 1934,353; 6,91671
1046,04;  234,455;  114,375; 1930,453; 6,61205
1046,59;  205,655;   96,175; 1878,353; 6,14305
1047,13;  224,455;  121,075; 1879,453; 5,87928
1047,68;  229,355;  115,675; 1860,052; 6,51694
1048,23;  217,655;  118,775; 1866,752; 5,65682
1048,77;  202,255;   90,175; 1784,953; 6,61326
1049,32;  201,955;  104,175; 1785,953; 5,81409
1049,86;  212,655;   92,675; 1760,552; 7,19357
1050,41;  190,255;   82,475; 1735,552; 6,51996
1050,96;  204,555;  100,875; 1698,652; 6,48901
1051,50;  196,455;  101,675; 1663,252; 6,06950
1052,05;  189,555;   94,675; 1664,052; 6,04571
1052,59;  191,655;   82,975; 1624,152; 7,05175
1053,14;  184,355;   84,475; 1582,652; 6,66677
1053,69;  196,255;   98,475; 1571,453; 6,63826
1054,23;  200,755;  104,575; 1569,052; 6,56753
1054,78;  195,255;  100,775; 1550,152; 6,51866
1055,32;  214,455;  123,075; 1550,453; 6,40195
1055,87;  159,255;   68,875; 1491,752; 6,35192
1056,41;  170,855;   78,775; 1469,552; 6,62076
1056,96;  190,355;   96,775; 1451,052; 6,90996
1057,50;  218,455;  113,375; 1470,853; 7,74083
1058,05;  161,955;   82,075; 1401,953; 6,05208
1058,59;  185,855;   95,875; 1396,552; 6,91793
1059,14;  197,055;  103,575; 1370,453; 7,37877
1059,68;  157,455;   75,975; 1329,353; 6,50083
1060,23;  201,355;  126,875; 1383,752; 5,92580
1060,77;  181,155;   97,375; 1317,052; 6,86903
1061,32;  200,555;  108,575; 1320,652; 7,58862
1061,86;  183,755;  111,175; 1289,752; 6,15827
1062,41;  179,555;   93,975; 1242,953; 7,44836
1062,95;  179,155;  109,575; 1230,853; 6,20542
1063,50;  184,155;  111,075; 1230,052; 6,53096
1064,04;  155,855;   90,475; 1197,453; 5,90617
1064,59;  189,455;  114,775; 1210,052; 6,81836
1065,13;  178,055;  103,475; 1170,552; 6,98918
1065,68;  167,655;  107,275; 1161,353; 5,72823
1066,22;  170,655;  115,875; 1166,453; 5,21427
1066,76;  193,255;  130,175; 1145,252; 6,21430
1067,31;  160,755;   99,875; 1110,552; 6,02368
1067,85;  162,655;  100,975; 1090,252; 6,23485
1068,40;  171,155;  110,275; 1095,353; 6,18022
1068,94;  161,655;   99,175; 1079,353; 6,37435
1069,49;  151,155;   98,175; 1041,652; 5,61540
1070,03;  160,655;  111,175; 1034,353; 5,35975
1070,57;  144,055;   88,775; 1012,852; 5,98218
1071,12;  138,155;   75,875;  987,153; 6,83436
1071,66;  193,655;  131,775; 1039,953; 6,81365
1072,21;  174,055;  112,475; 1011,352; 6,85077
1072,75;  165,055;  104,475;  978,552; 6,93073
1073,29;  134,255;   77,075;  942,453; 6,60752
1073,84;  150,555;   95,975;  941,153; 6,45781
1074,38;  152,755;   93,875;  928,253; 7,05676
1074,92;  168,355;  107,275;  940,153; 7,33361
1075,47;  171,355;  112,775;  938,852; 7,09134
1076,01;  182,655;  121,775;  926,253; 7,56764
1076,56;  158,055;   97,275;  891,953; 7,64838
1077,10;  142,255;   86,075;  865,253; 7,21017
1077,64;  139,555;   97,875;  884,453; 5,29890
1078,19;  182,155;  123,175;  887,753; 7,71406
1078,73;  152,755;   98,775;  853,852; 7,14894
1079,27;  170,055;  121,075;  875,552; 6,49191
1079,81;  181,355;  121,375;  860,953; 8,11004
1080,36;  162,055;  105,975;  836,052; 7,68138
1080,90;  145,055;   96,375;  819,753; 6,72954
1081,44;  130,455;   82,475;  789,552; 6,78568
1081,99;  128,655;   70,375;  771,753; 8,30936
1082,53;  162,555;  113,075;  798,653; 7,21727
1083,07;  151,755;  104,175;  791,453; 6,92297
1083,62;  160,155;  101,275;  772,552; 8,77133
1084,16;  155,355;   98,975;  782,453; 8,24899
1084,70;  155,655;  107,475;  767,153; 7,30357
1085,24;  159,555;  108,775;  750,653; 7,91117
1085,79;  138,655;  109,175;  747,552; 4,61796
1086,33;  130,055;   99,075;  711,453; 5,05897
1086,87;  148,455;  102,075;  714,852; 7,56882
1087,41;  134,755;   84,475;  686,852; 8,34693
1087,96;  170,255;  124,575;  732,552; 7,51344
1088,50;  132,855;  112,075;  696,953; 3,55288
1089,04;  158,255;  121,775;  715,153; 6,14786
1089,58;  121,855;   82,375;  655,953; 6,88312
1090,13;  136,655;  102,975;  653,153; 6,12166
1090,67;  145,655;  101,775;  678,753; 7,60515
1091,21;  129,655;   92,075;  651,852; 6,71338
1091,75;  141,155;  106,875;  647,153; 6,34489
1092,29;  153,055;  105,875;  642,552; 8,79113
1092,84;  146,355;  105,975;  628,352; 7,73004
1093,38;  165,255;  128,175;  662,753; 6,93632
1093,92;  154,955;  113,475;  640,052; 7,87728
1094,46;  152,455;  128,175;  638,852; 4,75447
1095,00;  135,255;   93,975;  602,052; 8,12475
1095,54;  136,055;   89,975;  591,352; 9,19068
1096,09;  150,555;  114,975;  597,352; 7,37597
1096,63;  160,255;  117,175;  598,453; 8,95118
1097,17;  138,155;  102,575;  573,052; 7,56253
1097,71;  157,455;  122,875;  582,453; 7,52430
1098,25;  132,155;  103,275;  553,653; 6,41240
1098,79;  149,855;  104,775;  568,753; 9,71599
1099,33;  147,455;  111,975;  572,052; 7,71175
1099,88;  149,555;  110,775;  562,253; 8,58957
1100,42;  123,155;   83,275;  521,253; 9,10549

