PE UV       SUBTECH     SPECTRUM    ASCII       PEDS        4.00        
   -1
CICIMAUCR0006-1.Sample.ASC
24/03/08
11:34:28.00
24/03/08
11:34:28.00
Vinicio Soto Monge
C. kalinini
250,000000
1
Lambda 1050
1050L1511233
PerkinElmer UV WinLab 6.3.2.0749 / 2.02.05 Lambda 900 UV/VIS/NIR, Aug  7 2015 09:38:08

0
0
3350/servo 860,8/2
0
0
UV/VIS
1
1
1
DoubleDePol,CommonBeamDepol,RBeamAtt,SBeamAtt,60mm sphere, WB InGaAs Detector
0
0
0
0
Program
Program
3350/servo 860,8/2
3350/0,2 860,8/0,2
3350/0,2 860,8/0,2
0
15.00
 
 
 
0
 
860,8
319,2
860,8
Front
100
on
S:100 R:100
0
0
0
0
 
0
 
 
 
0
 
 
0
0
0
0
0
 
 
 
 
0
0


0
0
#HDR
-1
-1
#GR
nm
%R
1.0
0.0
2500,000000
-1,000000
2251
8
34,259900
1,836500
#DATA
2500.000000	2.626859
2499.000000	2.610143
2498.000000	2.360149
2497.000000	2.512324
2496.000000	2.317059
2495.000000	2.423173
2494.000000	2.403610
2493.000000	2.353215
2492.000000	2.313220
2491.000000	2.273969
2490.000000	2.360644
2489.000000	2.382560
2488.000000	2.381198
2487.000000	2.295390
2486.000000	2.310249
2485.000000	2.399771
2484.000000	2.354081
2483.000000	2.288580
2482.000000	2.307401
2481.000000	2.360025
2480.000000	2.325355
2479.000000	2.327831
2478.000000	2.279913
2477.000000	2.317802
2476.000000	2.322136
2475.000000	2.285361
2474.000000	2.323498
2473.000000	2.299848
2472.000000	2.285980
2471.000000	2.387884
2470.000000	2.355072
2469.000000	2.316316
2468.000000	2.299972
2467.000000	2.321145
2466.000000	2.319164
2465.000000	2.332537
2464.000000	2.349005
2463.000000	2.382436
2462.000000	2.391723
2461.000000	2.381322
2460.000000	2.362377
2459.000000	2.367330
2458.000000	2.395314
2457.000000	2.384789
2456.000000	2.425650
2455.000000	2.445585
2454.000000	2.441375
2453.000000	2.450290
2452.000000	2.495609
2451.000000	2.513934
2450.000000	2.538822
2449.000000	2.544765
2448.000000	2.558881
2447.000000	2.600609
2446.000000	2.602961
2445.000000	2.613610
2444.000000	2.650632
2443.000000	2.654594
2442.000000	2.702885
2441.000000	2.702018
2440.000000	2.712171
2439.000000	2.748698
2438.000000	2.754270
2437.000000	2.758852
2436.000000	2.783863
2435.000000	2.802313
2434.000000	2.819771
2433.000000	2.847631
2432.000000	2.845279
2431.000000	2.863728
2430.000000	2.895054
2429.000000	2.908303
2428.000000	2.907313
2427.000000	2.933439
2426.000000	2.949536
2425.000000	2.992873
2424.000000	3.008474
2423.000000	3.049831
2422.000000	3.083881
2421.000000	3.102826
2420.000000	3.140467
2419.000000	3.157926
2418.000000	3.166346
2417.000000	3.174642
2416.000000	3.179471
2415.000000	3.227266
2414.000000	3.254878
2413.000000	3.257602
2412.000000	3.272213
2411.000000	3.300568
2410.000000	3.337466
2409.000000	3.333380
2408.000000	3.350963
2407.000000	3.383032
2406.000000	3.378327
2405.000000	3.402967
2404.000000	3.439495
2403.000000	3.438504
2402.000000	3.435656
2401.000000	3.473917
2400.000000	3.512549
2399.000000	3.521464
2398.000000	3.533103
2397.000000	3.553657
2396.000000	3.566906
2395.000000	3.584613
2394.000000	3.592042
2393.000000	3.613215
2392.000000	3.638598
2391.000000	3.665468
2390.000000	3.681069
2389.000000	3.687508
2388.000000	3.696423
2387.000000	3.692956
2386.000000	3.710910
2385.000000	3.725149
2384.000000	3.745332
2383.000000	3.742856
2382.000000	3.744094
2381.000000	3.756600
2380.000000	3.761553
2379.000000	3.767620
2378.000000	3.772696
2377.000000	3.775049
2376.000000	3.770963
2375.000000	3.764648
2374.000000	3.777649
2373.000000	3.795108
2372.000000	3.779754
2371.000000	3.786812
2370.000000	3.792879
2369.000000	3.771582
2368.000000	3.757343
2367.000000	3.746570
2366.000000	3.763286
2365.000000	3.771954
2364.000000	3.753628
2363.000000	3.746570
2362.000000	3.736293
2361.000000	3.727130
2360.000000	3.694813
2359.000000	3.683050
2358.000000	3.690727
2357.000000	3.668687
2356.000000	3.652466
2355.000000	3.653952
2354.000000	3.649866
2353.000000	3.633646
2352.000000	3.635751
2351.000000	3.659896
2350.000000	3.670668
2349.000000	3.666706
2348.000000	3.691099
2347.000000	3.717349
2346.000000	3.723168
2345.000000	3.733445
2344.000000	3.755238
2343.000000	3.803280
2342.000000	3.808233
2341.000000	3.813433
2340.000000	3.820739
2339.000000	3.815291
2338.000000	3.832007
2337.000000	3.855037
2336.000000	3.859742
2335.000000	3.854666
2334.000000	3.866924
2333.000000	3.869896
2332.000000	3.870515
2331.000000	3.863829
2330.000000	3.842531
2329.000000	3.832254
2328.000000	3.822349
2327.000000	3.805757
2326.000000	3.794489
2325.000000	3.750409
2324.000000	3.748923
2323.000000	3.729483
2322.000000	3.683669
2321.000000	3.666582
2320.000000	3.632160
2319.000000	3.618168
2318.000000	3.594394
2317.000000	3.546104
2316.000000	3.505491
2315.000000	3.475526
2314.000000	3.430208
2313.000000	3.382661
2312.000000	3.365078
2311.000000	3.348610
2310.000000	3.339447
2309.000000	3.306635
2308.000000	3.303044
2307.000000	3.278280
2306.000000	3.266145
2305.000000	3.264660
2304.000000	3.272832
2303.000000	3.270727
2302.000000	3.297720
2301.000000	3.301558
2300.000000	3.327437
2299.000000	3.347496
2298.000000	3.361240
2297.000000	3.389471
2296.000000	3.412625
2295.000000	3.403834
2294.000000	3.435409
2293.000000	3.461039
2292.000000	3.478870
2291.000000	3.483203
2290.000000	3.498557
2289.000000	3.491871
2288.000000	3.480108
2287.000000	3.465992
2286.000000	3.479489
2285.000000	3.464383
2284.000000	3.438009
2283.000000	3.395414
2282.000000	3.388604
2281.000000	3.364954
2280.000000	3.346877
2279.000000	3.333380
2278.000000	3.277289
2277.000000	3.286947
2276.000000	3.264907
2275.000000	3.241134
2274.000000	3.212160
2273.000000	3.206216
2272.000000	3.205473
2271.000000	3.184176
2270.000000	3.200273
2269.000000	3.176375
2268.000000	3.184919
2267.000000	3.201263
2266.000000	3.218103
2265.000000	3.259088
2264.000000	3.273451
2263.000000	3.290910
2262.000000	3.318026
2261.000000	3.366812
2260.000000	3.412873
2259.000000	3.475403
2258.000000	3.506729
2257.000000	3.590432
2256.000000	3.645161
2255.000000	3.679707
2254.000000	3.735426
2253.000000	3.781983
2252.000000	3.853428
2251.000000	3.881040
2250.000000	3.923139
2249.000000	3.956447
2248.000000	4.014518
2247.000000	4.064294
2246.000000	4.113699
2245.000000	4.153198
2244.000000	4.163227
2243.000000	4.180810
2242.000000	4.237520
2241.000000	4.240615
2240.000000	4.259560
2239.000000	4.328900
2238.000000	4.351806
2237.000000	4.336081
2236.000000	4.346482
2235.000000	4.382514
2234.000000	4.377313
2233.000000	4.393534
2232.000000	4.411612
2231.000000	4.416936
2230.000000	4.413345
2229.000000	4.378552
2228.000000	4.380904
2227.000000	4.372113
2226.000000	4.372237
2225.000000	4.360721
2224.000000	4.347225
2223.000000	4.322337
2222.000000	4.293239
2221.000000	4.290515
2220.000000	4.241606
2219.000000	4.206936
2218.000000	4.219566
2217.000000	4.200869
2216.000000	4.169542
2215.000000	4.141682
2214.000000	4.122366
2213.000000	4.121004
2212.000000	4.116547
2211.000000	4.094754
2210.000000	4.098469
2209.000000	4.121128
2208.000000	4.174619
2207.000000	4.186629
2206.000000	4.214489
2205.000000	4.219937
2204.000000	4.306117
2203.000000	4.361588
2202.000000	4.427461
2201.000000	4.491476
2200.000000	4.533452
2199.000000	4.614802
2198.000000	4.676960
2197.000000	4.755958
2196.000000	4.820963
2195.000000	4.889808
2194.000000	4.966701
2193.000000	5.009171
2192.000000	5.069472
2191.000000	5.140545
2190.000000	5.189083
2189.000000	5.208151
2188.000000	5.214342
2187.000000	5.277491
2186.000000	5.308446
2185.000000	5.348935
2184.000000	5.366270
2183.000000	5.375185
2182.000000	5.382243
2181.000000	5.394006
2180.000000	5.397597
2179.000000	5.428305
2178.000000	5.430905
2177.000000	5.451211
2176.000000	5.437220
2175.000000	5.471270
2174.000000	5.467556
2173.000000	5.452573
2172.000000	5.471642
2171.000000	5.479814
2170.000000	5.488729
2169.000000	5.505569
2168.000000	5.537515
2167.000000	5.541724
2166.000000	5.556459
2165.000000	5.568965
2164.000000	5.554849
2163.000000	5.547668
2162.000000	5.548287
2161.000000	5.560050
2160.000000	5.554354
2159.000000	5.581347
2158.000000	5.583576
2157.000000	5.580357
2156.000000	5.593358
2155.000000	5.582709
2154.000000	5.606730
2153.000000	5.636695
2152.000000	5.653535
2151.000000	5.661212
2150.000000	5.671117
2149.000000	5.673470
2148.000000	5.687833
2147.000000	5.718788
2146.000000	5.717179
2145.000000	5.717550
2144.000000	5.736247
2143.000000	5.753829
2142.000000	5.756925
2141.000000	5.778841
2140.000000	5.802120
2139.000000	5.798157
2138.000000	5.811159
2137.000000	5.798529
2136.000000	5.803358
2135.000000	5.825893
2134.000000	5.836789
2133.000000	5.848057
2132.000000	5.853258
2131.000000	5.855115
2130.000000	5.843476
2129.000000	5.848676
2128.000000	5.864154
2127.000000	5.871707
2126.000000	5.884584
2125.000000	5.885946
2124.000000	5.883098
2123.000000	5.878269
2122.000000	5.885451
2121.000000	5.886813
2120.000000	5.890156
2119.000000	5.888670
2118.000000	5.877031
2117.000000	5.847933
2116.000000	5.841866
2115.000000	5.867249
2114.000000	5.859944
2113.000000	5.840628
2112.000000	5.853010
2111.000000	5.865144
2110.000000	5.851029
2109.000000	5.829732
2108.000000	5.827874
2107.000000	5.839266
2106.000000	5.850657
2105.000000	5.849914
2104.000000	5.827751
2103.000000	5.813883
2102.000000	5.817473
2101.000000	5.819950
2100.000000	5.822055
2099.000000	5.819578
2098.000000	5.808682
2097.000000	5.809920
2096.000000	5.809673
2095.000000	5.803605
2094.000000	5.800510
2093.000000	5.796052
2092.000000	5.807815
2091.000000	5.823912
2090.000000	5.820445
2089.000000	5.807320
2088.000000	5.799891
2087.000000	5.809673
2086.000000	5.797291
2085.000000	5.789366
2084.000000	5.797786
2083.000000	5.806577
2082.000000	5.810416
2081.000000	5.799891
2080.000000	5.801253
2079.000000	5.794567
2078.000000	5.784166
2077.000000	5.787756
2076.000000	5.808063
2075.000000	5.804596
2074.000000	5.784537
2073.000000	5.779584
2072.000000	5.777975
2071.000000	5.764973
2070.000000	5.772650
2069.000000	5.764726
2068.000000	5.755192
2067.000000	5.770050
2066.000000	5.752839
2065.000000	5.748010
2064.000000	5.738847
2063.000000	5.749867
2062.000000	5.760763
2061.000000	5.760268
2060.000000	5.751601
2059.000000	5.756058
2058.000000	5.774879
2057.000000	5.763611
2056.000000	5.790852
2055.000000	5.805215
2054.000000	5.815740
2053.000000	5.828617
2052.000000	5.865516
2051.000000	5.891890
2050.000000	5.916778
2049.000000	5.928664
2048.000000	5.973488
2047.000000	5.989089
2046.000000	6.043199
2045.000000	6.066601
2044.000000	6.112910
2043.000000	6.165038
2042.000000	6.195994
2041.000000	6.227320
2040.000000	6.274867
2039.000000	6.309909
2038.000000	6.341978
2037.000000	6.381477
2036.000000	6.402031
2035.000000	6.419985
2034.000000	6.451436
2033.000000	6.476200
2032.000000	6.495145
2031.000000	6.541082
2030.000000	6.565599
2029.000000	6.584543
2028.000000	6.608936
2027.000000	6.657845
2026.000000	6.658217
2025.000000	6.644844
2024.000000	6.671466
2023.000000	6.694249
2022.000000	6.696354
2021.000000	6.722851
2020.000000	6.753559
2019.000000	6.755788
2018.000000	6.743529
2017.000000	6.767427
2016.000000	6.782161
2015.000000	6.787733
2014.000000	6.782161
2013.000000	6.786743
2012.000000	6.780799
2011.000000	6.801354
2010.000000	6.797639
2009.000000	6.797020
2008.000000	6.806430
2007.000000	6.782161
2006.000000	6.775227
2005.000000	6.761855
2004.000000	6.737586
2003.000000	6.743158
2002.000000	6.736595
2001.000000	6.698830
2000.000000	6.668494
1999.000000	6.688553
1998.000000	6.668865
1997.000000	6.653759
1996.000000	6.646330
1995.000000	6.627262
1994.000000	6.598164
1993.000000	6.572904
1992.000000	6.544302
1991.000000	6.544673
1990.000000	6.486477
1989.000000	6.462208
1988.000000	6.445988
1987.000000	6.412928
1986.000000	6.409832
1985.000000	6.369343
1984.000000	6.320805
1983.000000	6.310033
1982.000000	6.263600
1981.000000	6.261495
1980.000000	6.209242
1979.000000	6.183735
1978.000000	6.155504
1977.000000	6.111300
1976.000000	6.090746
1975.000000	6.050133
1974.000000	6.004195
1973.000000	5.998623
1972.000000	5.991813
1971.000000	5.957886
1970.000000	5.906996
1969.000000	5.884213
1968.000000	5.859077
1967.000000	5.839637
1966.000000	5.808311
1965.000000	5.767326
1964.000000	5.734018
1963.000000	5.710492
1962.000000	5.679413
1961.000000	5.642019
1960.000000	5.638057
1959.000000	5.605368
1958.000000	5.575280
1957.000000	5.565498
1956.000000	5.508664
1955.000000	5.478700
1954.000000	5.468299
1953.000000	5.433010
1952.000000	5.443658
1951.000000	5.388310
1950.000000	5.368128
1949.000000	5.371223
1948.000000	5.331724
1947.000000	5.314018
1946.000000	5.286901
1945.000000	5.282444
1944.000000	5.269442
1943.000000	5.247031
1942.000000	5.225115
1941.000000	5.226353
1940.000000	5.217314
1939.000000	5.204932
1938.000000	5.198245
1937.000000	5.209637
1936.000000	5.243440
1935.000000	5.228334
1934.000000	5.230315
1933.000000	5.225362
1932.000000	5.285168
1931.000000	5.306217
1930.000000	5.300521
1929.000000	5.339896
1928.000000	5.360203
1927.000000	5.379767
1926.000000	5.399578
1925.000000	5.432267
1924.000000	5.479938
1923.000000	5.522285
1922.000000	5.563765
1921.000000	5.596206
1920.000000	5.654525
1919.000000	5.724484
1918.000000	5.774879
1917.000000	5.823417
1916.000000	5.876164
1915.000000	5.940675
1914.000000	6.016825
1913.000000	6.070935
1912.000000	6.133093
1911.000000	6.225834
1910.000000	6.278458
1909.000000	6.359932
1908.000000	6.452550
1907.000000	6.547892
1906.000000	6.637910
1905.000000	6.725080
1904.000000	6.789838
1903.000000	6.895334
1902.000000	7.005039
1901.000000	7.102733
1900.000000	7.185074
1899.000000	7.265682
1898.000000	7.377120
1897.000000	7.489054
1896.000000	7.588359
1895.000000	7.722333
1894.000000	7.835505
1893.000000	7.967869
1892.000000	8.072746
1891.000000	8.180594
1890.000000	8.293642
1889.000000	8.432321
1888.000000	8.568648
1887.000000	8.722062
1886.000000	8.878076
1885.000000	9.043625
1884.000000	9.218584
1883.000000	9.397257
1882.000000	9.585217
1881.000000	9.807723
1880.000000	10.015990
1879.000000	10.196768
1878.000000	10.390548
1877.000000	10.580860
1876.000000	10.732293
1875.000000	10.873077
1874.000000	11.019433
1873.000000	11.130501
1872.000000	11.239835
1871.000000	11.333938
1870.000000	11.408850
1869.000000	11.486857
1868.000000	11.593219
1867.000000	11.704534
1866.000000	11.776969
1865.000000	11.844080
1864.000000	11.938432
1863.000000	12.039717
1862.000000	12.101132
1861.000000	12.119705
1860.000000	12.122801
1859.000000	12.118343
1858.000000	12.128744
1857.000000	12.168862
1856.000000	12.213685
1855.000000	12.228915
1854.000000	12.205018
1853.000000	12.175053
1852.000000	12.183721
1851.000000	12.231763
1850.000000	12.270148
1849.000000	12.243650
1848.000000	12.159576
1847.000000	12.053585
1846.000000	12.024859
1845.000000	12.070920
1844.000000	12.125896
1843.000000	12.160690
1842.000000	12.139517
1841.000000	12.064481
1840.000000	12.020401
1839.000000	12.008267
1838.000000	11.984245
1837.000000	11.952176
1836.000000	11.922954
1835.000000	11.896952
1834.000000	11.887789
1833.000000	11.872187
1832.000000	11.872807
1831.000000	11.863520
1830.000000	11.813249
1829.000000	11.764959
1828.000000	11.716916
1827.000000	11.667883
1826.000000	11.632099
1825.000000	11.613773
1824.000000	11.621450
1823.000000	11.669369
1822.000000	11.667883
1821.000000	11.585171
1820.000000	11.505802
1819.000000	11.477570
1818.000000	11.484752
1817.000000	11.498868
1816.000000	11.490324
1815.000000	11.463703
1814.000000	11.468655
1813.000000	11.473732
1812.000000	11.455902
1811.000000	11.428785
1810.000000	11.419870
1809.000000	11.427918
1808.000000	11.408355
1807.000000	11.365513
1806.000000	11.333815
1805.000000	11.300383
1804.000000	11.279457
1803.000000	11.264103
1802.000000	11.229186
1801.000000	11.201202
1800.000000	11.174333
1799.000000	11.149693
1798.000000	11.145235
1797.000000	11.135825
1796.000000	11.103384
1795.000000	11.084935
1794.000000	11.074534
1793.000000	11.042712
1792.000000	11.029463
1791.000000	11.002099
1790.000000	10.969534
1789.000000	10.937340
1788.000000	10.930530
1787.000000	10.919634
1786.000000	10.886450
1785.000000	10.832836
1784.000000	10.810672
1783.000000	10.803490
1782.000000	10.758048
1781.000000	10.738360
1780.000000	10.730560
1779.000000	10.698985
1778.000000	10.665554
1777.000000	10.605500
1776.000000	10.570088
1775.000000	10.529722
1774.000000	10.502234
1773.000000	10.470783
1772.000000	10.433018
1771.000000	10.391167
1770.000000	10.344239
1769.000000	10.307092
1768.000000	10.290005
1767.000000	10.234905
1766.000000	10.209893
1765.000000	10.197263
1764.000000	10.189834
1763.000000	10.202340
1762.000000	10.206426
1761.000000	10.219551
1760.000000	10.276509
1759.000000	10.329380
1758.000000	10.329628
1757.000000	10.371232
1756.000000	10.421007
1755.000000	10.471650
1754.000000	10.488242
1753.000000	10.479203
1752.000000	10.511397
1751.000000	10.495795
1750.000000	10.519816
1749.000000	10.520064
1748.000000	10.483042
1747.000000	10.467812
1746.000000	10.427570
1745.000000	10.365288
1744.000000	10.330247
1743.000000	10.287405
1742.000000	10.246172
1741.000000	10.155288
1740.000000	10.067623
1739.000000	10.001998
1738.000000	9.919533
1737.000000	9.854775
1736.000000	9.808218
1735.000000	9.761785
1734.000000	9.731821
1733.000000	9.743831
1732.000000	9.765995
1731.000000	9.803018
1730.000000	9.822086
1729.000000	9.900712
1728.000000	9.920028
1727.000000	9.997664
1726.000000	10.032210
1725.000000	10.035553
1724.000000	10.070099
1723.000000	10.109598
1722.000000	10.111084
1721.000000	10.116656
1720.000000	10.145506
1719.000000	10.155536
1718.000000	10.151821
1717.000000	10.168289
1716.000000	10.200111
1715.000000	10.228590
1714.000000	10.263755
1713.000000	10.267470
1712.000000	10.300777
1711.000000	10.279109
1710.000000	10.283690
1709.000000	10.300282
1708.000000	10.268336
1707.000000	10.269946
1706.000000	10.251992
1705.000000	10.241096
1704.000000	10.218808
1703.000000	10.154917
1702.000000	10.117523
1701.000000	10.060565
1700.000000	10.008437
1699.000000	9.946526
1698.000000	9.852670
1697.000000	9.778377
1696.000000	9.765005
1695.000000	9.777263
1694.000000	9.773920
1693.000000	9.806237
1692.000000	9.869881
1691.000000	9.905046
1690.000000	9.963118
1689.000000	10.017723
1688.000000	10.056108
1687.000000	10.057841
1686.000000	10.040382
1685.000000	10.047316
1684.000000	10.090158
1683.000000	10.142782
1682.000000	10.274651
1681.000000	10.417045
1680.000000	10.617016
1679.000000	10.817853
1678.000000	11.022158
1677.000000	11.230177
1676.000000	11.386686
1675.000000	11.529204
1674.000000	11.655872
1673.000000	11.793809
1672.000000	11.883950
1671.000000	11.979045
1670.000000	12.040955
1669.000000	12.101751
1668.000000	12.167376
1667.000000	12.232877
1666.000000	12.255784
1665.000000	12.304446
1664.000000	12.322276
1663.000000	12.341840
1662.000000	12.367471
1661.000000	12.407712
1660.000000	12.417742
1659.000000	12.412541
1658.000000	12.426657
1657.000000	12.434582
1656.000000	12.442258
1655.000000	12.446097
1654.000000	12.442506
1653.000000	12.431238
1652.000000	12.442382
1651.000000	12.432724
1650.000000	12.435077
1649.000000	12.416751
1648.000000	12.388396
1647.000000	12.385549
1646.000000	12.393845
1645.000000	12.360661
1644.000000	12.343078
1643.000000	12.326610
1642.000000	12.309770
1641.000000	12.284015
1640.000000	12.275719
1639.000000	12.277701
1638.000000	12.269033
1637.000000	12.250708
1636.000000	12.223591
1635.000000	12.216781
1634.000000	12.189664
1633.000000	12.158956
1632.000000	12.143355
1631.000000	12.127630
1630.000000	12.114629
1629.000000	12.104723
1628.000000	12.088502
1627.000000	12.067453
1626.000000	12.040831
1625.000000	12.011238
1624.000000	12.015077
1623.000000	11.996132
1622.000000	11.975702
1621.000000	11.954157
1620.000000	11.924440
1619.000000	11.896209
1618.000000	11.877512
1617.000000	11.860177
1616.000000	11.837394
1615.000000	11.811639
1614.000000	11.789970
1613.000000	11.780931
1612.000000	11.763101
1611.000000	11.751214
1610.000000	11.739575
1609.000000	11.722364
1608.000000	11.686456
1607.000000	11.672464
1606.000000	11.657854
1605.000000	11.632718
1604.000000	11.598048
1603.000000	11.566598
1602.000000	11.547158
1601.000000	11.540595
1600.000000	11.513850
1599.000000	11.489953
1598.000000	11.467789
1597.000000	11.440796
1596.000000	11.407736
1595.000000	11.370094
1594.000000	11.342730
1593.000000	11.330348
1592.000000	11.314127
1591.000000	11.287382
1590.000000	11.280200
1589.000000	11.260636
1588.000000	11.218909
1587.000000	11.198974
1586.000000	11.195383
1585.000000	11.168761
1584.000000	11.137930
1583.000000	11.129758
1582.000000	11.113661
1581.000000	11.081344
1580.000000	11.049398
1579.000000	11.040978
1578.000000	11.014976
1577.000000	10.993926
1576.000000	10.979316
1575.000000	10.966686
1574.000000	10.961981
1573.000000	10.969410
1572.000000	10.957895
1571.000000	10.946874
1570.000000	10.953808
1569.000000	10.955542
1568.000000	10.955418
1567.000000	10.952446
1566.000000	10.959752
1565.000000	10.964952
1564.000000	10.955542
1563.000000	10.961857
1562.000000	10.968419
1561.000000	10.964952
1560.000000	10.963962
1559.000000	10.966191
1558.000000	10.959504
1557.000000	10.948979
1556.000000	10.952570
1555.000000	10.939074
1554.000000	10.933626
1553.000000	10.936474
1552.000000	10.933130
1551.000000	10.932883
1550.000000	10.931768
1549.000000	10.929168
1548.000000	10.937712
1547.000000	10.936474
1546.000000	10.931645
1545.000000	10.956037
1544.000000	10.962228
1543.000000	10.952075
1542.000000	10.943655
1541.000000	10.951084
1540.000000	10.950837
1539.000000	10.955294
1538.000000	10.967800
1537.000000	10.983402
1536.000000	11.004327
1535.000000	11.010147
1534.000000	10.985383
1533.000000	10.988850
1532.000000	10.987859
1531.000000	10.978820
1530.000000	10.977830
1529.000000	10.981297
1528.000000	10.997889
1527.000000	10.996898
1526.000000	10.985630
1525.000000	10.979935
1524.000000	10.966191
1523.000000	10.959628
1522.000000	10.960619
1521.000000	10.979439
1520.000000	10.963343
1519.000000	10.946627
1518.000000	10.954799
1517.000000	10.926939
1516.000000	10.926568
1515.000000	10.924587
1514.000000	10.920624
1513.000000	10.929292
1512.000000	10.910100
1511.000000	10.901061
1510.000000	10.876297
1509.000000	10.846332
1508.000000	10.845218
1507.000000	10.828378
1506.000000	10.805471
1505.000000	10.820949
1504.000000	10.799280
1503.000000	10.792965
1502.000000	10.768201
1501.000000	10.754457
1500.000000	10.735017
1499.000000	10.728207
1498.000000	10.738360
1497.000000	10.702824
1496.000000	10.671621
1495.000000	10.672611
1494.000000	10.658496
1493.000000	10.654657
1492.000000	10.642771
1491.000000	10.634475
1490.000000	10.610330
1489.000000	10.593738
1488.000000	10.585194
1487.000000	10.577641
1486.000000	10.569592
1485.000000	10.555972
1484.000000	10.543962
1483.000000	10.531827
1482.000000	10.536285
1481.000000	10.509787
1480.000000	10.501739
1479.000000	10.489480
1478.000000	10.489852
1477.000000	10.487623
1476.000000	10.488861
1475.000000	10.478584
1474.000000	10.459268
1473.000000	10.440200
1472.000000	10.440695
1471.000000	10.450477
1470.000000	10.453325
1469.000000	10.452334
1468.000000	10.479822
1467.000000	10.470783
1466.000000	10.460630
1465.000000	10.474870
1464.000000	10.501120
1463.000000	10.514616
1462.000000	10.504463
1461.000000	10.488614
1460.000000	10.528608
1459.000000	10.543342
1458.000000	10.553867
1457.000000	10.598319
1456.000000	10.626921
1455.000000	10.643018
1454.000000	10.677193
1453.000000	10.743065
1452.000000	10.748885
1451.000000	10.794946
1450.000000	10.834074
1449.000000	10.867629
1448.000000	10.919015
1447.000000	10.967676
1446.000000	11.025625
1445.000000	11.049150
1444.000000	11.104251
1443.000000	11.153779
1442.000000	11.201698
1441.000000	11.253207
1440.000000	11.301250
1439.000000	11.395353
1438.000000	11.436957
1437.000000	11.469027
1436.000000	11.529080
1435.000000	11.596934
1434.000000	11.650920
1433.000000	11.684599
1432.000000	11.754062
1431.000000	11.793561
1430.000000	11.890637
1429.000000	11.966044
1428.000000	12.018667
1427.000000	12.106333
1426.000000	12.180873
1425.000000	12.295778
1424.000000	12.365366
1423.000000	12.430619
1422.000000	12.509741
1421.000000	12.634552
1420.000000	12.690272
1419.000000	12.779299
1418.000000	12.885166
1417.000000	12.931227
1416.000000	13.062477
1415.000000	13.136026
1414.000000	13.228025
1413.000000	13.290431
1412.000000	13.368562
1411.000000	13.457342
1410.000000	13.595649
1409.000000	13.720956
1408.000000	13.833757
1407.000000	13.926994
1406.000000	14.037813
1405.000000	14.166959
1404.000000	14.245213
1403.000000	14.356900
1402.000000	14.499789
1401.000000	14.652336
1400.000000	14.631410
1399.000000	14.680320
1398.000000	14.765632
1397.000000	14.854164
1396.000000	14.885862
1395.000000	14.823580
1394.000000	14.863575
1393.000000	14.882767
1392.000000	14.903321
1391.000000	14.913474
1390.000000	14.967708
1389.000000	15.050792
1388.000000	15.091281
1387.000000	15.156658
1386.000000	15.299424
1385.000000	15.463982
1384.000000	15.638321
1383.000000	15.819100
1382.000000	15.975733
1381.000000	16.114289
1380.000000	16.302496
1379.000000	16.473617
1378.000000	16.696494
1377.000000	16.903275
1376.000000	17.102007
1375.000000	17.361659
1374.000000	17.618588
1373.000000	17.909319
1372.000000	18.159313
1371.000000	18.365599
1370.000000	18.580923
1369.000000	18.778417
1368.000000	18.929355
1367.000000	19.036336
1366.000000	19.190245
1365.000000	19.295988
1364.000000	19.386254
1363.000000	19.494225
1362.000000	19.569508
1361.000000	19.603683
1360.000000	19.608883
1359.000000	19.706083
1358.000000	19.758335
1357.000000	19.866431
1356.000000	20.001395
1355.000000	20.167934
1354.000000	20.362828
1353.000000	20.561932
1352.000000	20.830128
1351.000000	21.084332
1350.000000	21.269568
1349.000000	21.433755
1348.000000	21.641031
1347.000000	21.792092
1346.000000	21.961479
1345.000000	22.120960
1344.000000	22.276603
1343.000000	22.417387
1342.000000	22.567458
1341.000000	22.709728
1340.000000	22.858437
1339.000000	23.001326
1338.000000	23.130719
1337.000000	23.249215
1336.000000	23.370684
1335.000000	23.506763
1334.000000	23.621668
1333.000000	23.736946
1332.000000	23.858538
1331.000000	23.951032
1330.000000	24.072624
1329.000000	24.158803
1328.000000	24.240773
1327.000000	24.331781
1326.000000	24.399635
1325.000000	24.483833
1324.000000	24.570260
1323.000000	24.656439
1322.000000	24.724045
1321.000000	24.791775
1320.000000	24.844770
1319.000000	24.904204
1318.000000	24.966858
1317.000000	25.004004
1316.000000	25.048456
1315.000000	25.094393
1314.000000	25.141445
1313.000000	25.168067
1312.000000	25.208308
1311.000000	25.238025
1310.000000	25.270095
1309.000000	25.306622
1308.000000	25.331139
1307.000000	25.341044
1306.000000	25.345502
1305.000000	25.355779
1304.000000	25.359617
1303.000000	25.355036
1302.000000	25.351569
1301.000000	25.357512
1300.000000	25.354788
1299.000000	25.350826
1298.000000	25.364942
1297.000000	25.360360
1296.000000	25.347359
1295.000000	25.338073
1294.000000	25.333491
1293.000000	25.335968
1292.000000	25.319747
1291.000000	25.301793
1290.000000	25.302536
1289.000000	25.297831
1288.000000	25.279753
1287.000000	25.268609
1286.000000	25.269847
1285.000000	25.252884
1284.000000	25.214499
1283.000000	25.191221
1282.000000	25.183297
1281.000000	25.162247
1280.000000	25.140455
1279.000000	25.119281
1278.000000	25.097613
1277.000000	25.077801
1276.000000	25.051304
1275.000000	25.038798
1274.000000	25.025054
1273.000000	25.007595
1272.000000	25.002023
1271.000000	24.999051
1270.000000	24.982335
1269.000000	24.969334
1268.000000	24.931197
1267.000000	24.884393
1266.000000	24.870525
1265.000000	24.856781
1264.000000	24.816415
1263.000000	24.783232
1262.000000	24.752648
1261.000000	24.731598
1260.000000	24.699281
1259.000000	24.654334
1258.000000	24.630808
1257.000000	24.582642
1256.000000	24.528780
1255.000000	24.491757
1254.000000	24.460926
1253.000000	24.396044
1252.000000	24.345030
1251.000000	24.294758
1250.000000	24.235572
1249.000000	24.202017
1248.000000	24.147164
1247.000000	24.093673
1246.000000	24.011085
1245.000000	23.953756
1244.000000	23.889369
1243.000000	23.835755
1242.000000	23.771615
1241.000000	23.721097
1240.000000	23.649033
1239.000000	23.581922
1238.000000	23.515802
1237.000000	23.454387
1236.000000	23.378608
1235.000000	23.295153
1234.000000	23.233490
1233.000000	23.176285
1232.000000	23.092211
1231.000000	22.997859
1230.000000	22.916261
1229.000000	22.848779
1228.000000	22.759133
1227.000000	22.667505
1226.000000	22.561762
1225.000000	22.496385
1224.000000	22.441037
1223.000000	22.355848
1222.000000	22.273260
1221.000000	22.208254
1220.000000	22.119103
1219.000000	22.037753
1218.000000	21.973613
1217.000000	21.928914
1216.000000	21.823790
1215.000000	21.783177
1214.000000	21.771414
1213.000000	21.695759
1212.000000	21.648088
1211.000000	21.616267
1210.000000	21.571320
1209.000000	21.555594
1208.000000	21.539498
1207.000000	21.522906
1206.000000	21.508047
1205.000000	21.518572
1204.000000	21.479073
1203.000000	21.528106
1202.000000	21.507676
1201.000000	21.497027
1200.000000	21.489103
1199.000000	21.475606
1198.000000	21.422363
1197.000000	21.408000
1196.000000	21.306467
1195.000000	21.231679
1194.000000	21.132251
1193.000000	20.944662
1192.000000	20.792982
1191.000000	20.613937
1190.000000	20.424120
1189.000000	20.281726
1188.000000	20.168554
1187.000000	20.128312
1186.000000	20.110977
1185.000000	20.139208
1184.000000	20.246932
1183.000000	20.383259
1182.000000	20.575057
1181.000000	20.765865
1180.000000	20.980942
1179.000000	21.193171
1178.000000	21.354757
1177.000000	21.505571
1176.000000	21.633354
1175.000000	21.750488
1174.000000	21.904645
1173.000000	22.040600
1172.000000	22.185223
1171.000000	22.325760
1170.000000	22.469392
1169.000000	22.640388
1168.000000	22.765448
1167.000000	22.895955
1166.000000	23.066084
1165.000000	23.232995
1164.000000	23.389628
1163.000000	23.576721
1162.000000	23.762205
1161.000000	23.951899
1160.000000	24.092188
1159.000000	24.225914
1158.000000	24.433438
1157.000000	24.560478
1156.000000	24.703615
1155.000000	24.779393
1154.000000	24.868792
1153.000000	24.918072
1152.000000	24.952123
1151.000000	24.949151
1150.000000	24.985679
1149.000000	25.027035
1148.000000	25.058485
1147.000000	25.129806
1146.000000	25.169924
1145.000000	25.258703
1144.000000	25.405060
1143.000000	25.546215
1142.000000	25.699877
1141.000000	25.854901
1140.000000	26.050785
1139.000000	26.197018
1138.000000	26.368633
1137.000000	26.532077
1136.000000	26.751363
1135.000000	26.877165
1134.000000	27.034542
1133.000000	27.200957
1132.000000	27.355485
1131.000000	27.492679
1130.000000	27.608946
1129.000000	27.695126
1128.000000	27.760751
1127.000000	27.829966
1126.000000	27.880857
1125.000000	27.893858
1124.000000	27.938310
1123.000000	27.994153
1122.000000	28.003192
1121.000000	28.012478
1120.000000	28.020651
1119.000000	28.045043
1118.000000	28.043186
1117.000000	28.052349
1116.000000	28.028699
1115.000000	28.030309
1114.000000	28.022384
1113.000000	28.020651
1112.000000	28.027461
1111.000000	28.025108
1110.000000	28.003811
1109.000000	27.992667
1108.000000	28.015698
1107.000000	28.017307
1106.000000	28.007649
1105.000000	27.998858
1104.000000	27.999849
1103.000000	27.995886
1102.000000	27.988952
1101.000000	27.979790
1100.000000	27.969141
1099.000000	27.967779
1098.000000	27.976447
1097.000000	27.952549
1096.000000	27.932242
1095.000000	27.916889
1094.000000	27.904383
1093.000000	27.896582
1092.000000	27.858941
1091.000000	27.848663
1090.000000	27.837767
1089.000000	27.824642
1088.000000	27.789229
1087.000000	27.769542
1086.000000	27.723728
1085.000000	27.698469
1084.000000	27.662313
1083.000000	27.633215
1082.000000	27.604860
1081.000000	27.551989
1080.000000	27.515338
1079.000000	27.477201
1078.000000	27.429406
1077.000000	27.391765
1076.000000	27.368239
1075.000000	27.329730
1074.000000	27.284783
1073.000000	27.250485
1072.000000	27.221140
1071.000000	27.165668
1070.000000	27.130874
1069.000000	27.094595
1068.000000	27.061039
1067.000000	27.033799
1066.000000	27.003091
1065.000000	26.988109
1064.000000	26.963097
1063.000000	26.915921
1062.000000	26.898091
1061.000000	26.889795
1060.000000	26.864040
1059.000000	26.853268
1058.000000	26.819341
1057.000000	26.805968
1056.000000	26.794948
1055.000000	26.774270
1054.000000	26.733657
1053.000000	26.708274
1052.000000	26.707531
1051.000000	26.702330
1050.000000	26.685862
1049.000000	26.661098
1048.000000	26.647973
1047.000000	26.654040
1046.000000	26.630143
1045.000000	26.612684
1044.000000	26.583834
1043.000000	26.563775
1042.000000	26.549535
1041.000000	26.532696
1040.000000	26.536287
1039.000000	26.522543
1038.000000	26.496045
1037.000000	26.478710
1036.000000	26.448498
1035.000000	26.441068
1034.000000	26.439211
1033.000000	26.406770
1032.000000	26.367890
1031.000000	26.349812
1030.000000	26.333592
1029.000000	26.308704
1028.000000	26.296446
1027.000000	26.290378
1026.000000	26.265862
1025.000000	26.233545
1024.000000	26.217077
1023.000000	26.193303
1022.000000	26.153804
1021.000000	26.142660
1020.000000	26.126811
1019.000000	26.114801
1018.000000	26.106876
1017.000000	26.086446
1016.000000	26.060196
1015.000000	26.057472
1014.000000	26.058462
1013.000000	26.055367
1012.000000	26.080750
1011.000000	26.108733
1010.000000	26.096723
1009.000000	26.098704
1008.000000	26.142536
1007.000000	26.175844
1006.000000	26.192436
1005.000000	26.201351
1004.000000	26.229087
1003.000000	26.263881
1002.000000	26.288645
1001.000000	26.312666
1000.000000	26.316752
999.000000	26.343621
998.000000	26.369748
997.000000	26.387825
996.000000	26.409494
995.000000	26.426705
994.000000	26.453946
993.000000	26.486263
992.000000	26.500131
991.000000	26.510656
990.000000	26.543221
989.000000	26.562660
988.000000	26.580986
987.000000	26.630762
986.000000	26.665184
985.000000	26.692796
984.000000	26.708769
983.000000	26.758421
982.000000	26.790615
981.000000	26.808197
980.000000	26.858345
979.000000	26.911959
978.000000	26.931399
977.000000	26.936475
976.000000	26.975108
975.000000	27.022283
974.000000	27.029589
973.000000	27.056953
972.000000	27.097443
971.000000	27.134589
970.000000	27.144866
969.000000	27.175573
968.000000	27.193899
967.000000	27.258533
966.000000	27.286022
965.000000	27.298899
964.000000	27.328121
963.000000	27.369601
962.000000	27.398451
961.000000	27.427054
960.000000	27.471381
959.000000	27.514966
958.000000	27.546788
957.000000	27.562761
956.000000	27.577496
955.000000	27.611918
954.000000	27.627891
953.000000	27.681629
952.000000	27.711346
951.000000	27.729795
950.000000	27.733262
949.000000	27.747873
948.000000	27.765456
947.000000	27.786877
946.000000	27.842349
945.000000	27.856093
944.000000	27.869589
943.000000	27.937319
942.000000	27.967903
941.000000	27.980285
940.000000	28.025480
939.000000	28.057921
938.000000	28.085904
937.000000	28.104353
936.000000	28.138776
935.000000	28.157101
934.000000	28.211087
933.000000	28.232260
932.000000	28.281665
931.000000	28.321659
930.000000	28.365368
929.000000	28.390627
928.000000	28.400904
927.000000	28.462939
926.000000	28.496989
925.000000	28.503676
924.000000	28.493027
923.000000	28.562862
922.000000	28.594312
921.000000	28.605580
920.000000	28.615114
919.000000	28.613009
918.000000	28.607933
917.000000	28.596046
916.000000	28.612019
915.000000	28.599141
914.000000	28.598894
913.000000	28.653127
912.000000	28.619696
911.000000	28.594189
910.000000	28.533764
909.000000	28.490674
908.000000	28.538222
907.000000	28.542927
906.000000	28.513457
905.000000	28.475073
904.000000	28.465043
903.000000	28.425668
902.000000	28.399790
901.000000	28.381588
900.000000	28.366977
899.000000	28.263587
898.000000	28.262225
897.000000	28.246128
896.000000	28.211458
895.000000	28.198705
894.000000	28.150043
893.000000	28.135680
892.000000	28.114135
891.000000	28.049996
890.000000	27.905002
889.000000	27.862284
888.000000	27.836900
887.000000	27.783038
886.000000	27.698593
885.000000	27.496517
884.000000	27.475839
883.000000	27.419253
882.000000	27.299766
881.000000	27.115273
880.000000	27.032932
879.000000	26.887442
878.000000	26.668775
877.000000	26.536287
876.000000	26.412590
875.000000	26.167548
874.000000	26.027135
873.000000	25.789771
872.000000	25.645520
871.000000	25.402336
870.000000	25.237778
869.000000	25.018243
868.000000	24.858762
867.000000	24.672660
866.000000	24.493367
865.000000	24.252288
864.000000	24.021362
863.000000	23.871910
862.000000	23.730135
861.000000	23.528184
860.000000	23.403620
859.000000	23.411792
858.000000	24.489900
857.000000	24.448600
856.000000	24.407200
855.000000	24.613900
854.000000	24.744100
853.000000	24.768000
852.000000	24.977900
851.000000	25.068300
850.000000	25.142400
849.000000	25.122600
848.000000	25.452000
847.000000	25.653400
846.000000	25.933300
845.000000	26.096100
844.000000	26.252800
843.000000	26.310700
842.000000	26.382600
841.000000	26.529900
840.000000	26.739600
839.000000	26.802400
838.000000	27.018200
837.000000	27.250600
836.000000	27.359600
835.000000	27.356000
834.000000	27.607200
833.000000	27.819800
832.000000	27.843900
831.000000	28.038700
830.000000	28.189200
829.000000	28.304000
828.000000	28.498300
827.000000	28.631200
826.000000	28.770700
825.000000	28.831300
824.000000	28.984400
823.000000	29.127200
822.000000	29.340400
821.000000	29.562700
820.000000	29.676700
819.000000	29.783900
818.000000	29.950900
817.000000	29.956800
816.000000	30.117300
815.000000	30.282900
814.000000	30.422200
813.000000	30.608700
812.000000	30.816300
811.000000	30.837700
810.000000	30.981100
809.000000	31.172400
808.000000	31.274200
807.000000	31.400500
806.000000	31.569500
805.000000	31.681100
804.000000	31.898200
803.000000	32.021100
802.000000	32.107200
801.000000	32.289100
800.000000	32.424800
799.000000	32.562800
798.000000	32.673000
797.000000	32.801200
796.000000	32.929200
795.000000	33.003700
794.000000	33.127500
793.000000	33.223100
792.000000	33.338900
791.000000	33.407600
790.000000	33.478300
789.000000	33.508700
788.000000	33.591000
787.000000	33.638700
786.000000	33.730500
785.000000	33.787000
784.000000	33.882200
783.000000	33.928000
782.000000	33.965000
781.000000	34.060600
780.000000	34.090100
779.000000	34.117900
778.000000	34.211400
777.000000	34.195300
776.000000	34.138800
775.000000	34.142300
774.000000	34.199200
773.000000	34.229600
772.000000	34.227800
771.000000	34.216500
770.000000	34.258100
769.000000	34.259900
768.000000	34.250400
767.000000	34.253400
766.000000	34.257000
765.000000	34.208600
764.000000	34.141700
763.000000	34.155100
762.000000	34.199600
761.000000	34.175300
760.000000	34.189700
759.000000	34.218000
758.000000	34.146300
757.000000	34.115800
756.000000	34.113800
755.000000	34.099000
754.000000	34.062000
753.000000	34.059500
752.000000	34.063200
751.000000	34.014000
750.000000	33.984100
749.000000	33.959700
748.000000	33.931900
747.000000	33.908900
746.000000	33.866100
745.000000	33.839100
744.000000	33.812300
743.000000	33.747600
742.000000	33.741800
741.000000	33.713800
740.000000	33.636800
739.000000	33.558800
738.000000	33.493700
737.000000	33.412000
736.000000	33.341000
735.000000	33.309000
734.000000	33.228400
733.000000	33.123100
732.000000	33.052200
731.000000	32.944300
730.000000	32.850500
729.000000	32.725300
728.000000	32.571400
727.000000	32.483300
726.000000	32.371600
725.000000	32.191700
724.000000	32.050400
723.000000	31.953500
722.000000	31.813000
721.000000	31.658400
720.000000	31.534400
719.000000	31.333800
718.000000	31.163100
717.000000	31.010700
716.000000	30.854700
715.000000	30.698000
714.000000	30.544400
713.000000	30.349900
712.000000	30.166000
711.000000	30.004700
710.000000	29.906700
709.000000	29.754300
708.000000	29.591700
707.000000	29.435500
706.000000	29.299600
705.000000	29.158900
704.000000	29.025200
703.000000	28.887600
702.000000	28.751500
701.000000	28.623400
700.000000	28.504500
699.000000	28.369400
698.000000	28.231200
697.000000	28.122200
696.000000	28.004100
695.000000	27.875800
694.000000	27.768700
693.000000	27.661300
692.000000	27.541500
691.000000	27.420500
690.000000	27.274000
689.000000	27.173200
688.000000	27.023800
687.000000	26.899800
686.000000	26.763600
685.000000	26.628200
684.000000	26.465800
683.000000	26.307200
682.000000	26.157300
681.000000	26.000400
680.000000	25.835900
679.000000	25.653600
678.000000	25.476700
677.000000	25.314000
676.000000	25.173900
675.000000	25.004600
674.000000	24.837700
673.000000	24.702800
672.000000	24.551300
671.000000	24.439700
670.000000	24.320000
669.000000	24.196000
668.000000	24.101600
667.000000	24.011000
666.000000	23.909200
665.000000	23.841200
664.000000	23.770600
663.000000	23.702900
662.000000	23.653100
661.000000	23.590400
660.000000	23.523600
659.000000	23.506400
658.000000	23.446700
657.000000	23.415600
656.000000	23.358100
655.000000	23.303600
654.000000	23.225100
653.000000	23.192500
652.000000	23.131700
651.000000	23.039500
650.000000	22.972900
649.000000	22.884600
648.000000	22.788400
647.000000	22.670800
646.000000	22.576100
645.000000	22.467200
644.000000	22.363800
643.000000	22.225900
642.000000	22.111200
641.000000	21.992600
640.000000	21.893200
639.000000	21.769200
638.000000	21.650700
637.000000	21.534600
636.000000	21.435800
635.000000	21.336400
634.000000	21.250600
633.000000	21.148600
632.000000	21.081800
631.000000	20.971100
630.000000	20.857200
629.000000	20.765800
628.000000	20.670200
627.000000	20.579300
626.000000	20.485400
625.000000	20.368600
624.000000	20.290900
623.000000	20.184100
622.000000	20.077000
621.000000	19.951200
620.000000	19.848400
619.000000	19.746500
618.000000	19.645800
617.000000	19.548700
616.000000	19.451700
615.000000	19.329000
614.000000	19.244500
613.000000	19.148400
612.000000	19.055100
611.000000	18.958400
610.000000	18.885200
609.000000	18.811400
608.000000	18.757100
607.000000	18.691800
606.000000	18.634500
605.000000	18.606000
604.000000	18.581600
603.000000	18.546800
602.000000	18.534500
601.000000	18.533900
600.000000	18.534400
599.000000	18.541600
598.000000	18.575400
597.000000	18.629800
596.000000	18.681800
595.000000	18.755800
594.000000	18.835100
593.000000	18.927400
592.000000	19.026900
591.000000	19.153000
590.000000	19.303000
589.000000	19.432300
588.000000	19.581300
587.000000	19.744600
586.000000	19.906900
585.000000	20.087300
584.000000	20.264100
583.000000	20.394200
582.000000	20.590800
581.000000	20.761600
580.000000	20.948000
579.000000	21.096600
578.000000	21.268700
577.000000	21.436500
576.000000	21.572300
575.000000	21.715300
574.000000	21.854700
573.000000	22.002400
572.000000	22.114100
571.000000	22.235100
570.000000	22.342100
569.000000	22.466500
568.000000	22.581300
567.000000	22.676900
566.000000	22.769900
565.000000	22.877900
564.000000	22.971500
563.000000	23.042600
562.000000	23.102900
561.000000	23.161700
560.000000	23.309200
559.000000	24.117300
558.000000	24.157900
557.000000	24.192200
556.000000	24.220400
555.000000	24.268700
554.000000	24.261300
553.000000	24.272800
552.000000	24.256800
551.000000	24.244200
550.000000	24.242400
549.000000	24.225500
548.000000	24.190100
547.000000	24.155400
546.000000	24.130500
545.000000	24.094800
544.000000	24.047200
543.000000	23.988400
542.000000	23.924400
541.000000	23.860100
540.000000	23.784400
539.000000	23.711500
538.000000	23.633200
537.000000	23.562000
536.000000	23.478400
535.000000	23.379600
534.000000	23.277600
533.000000	23.164600
532.000000	23.062600
531.000000	22.944600
530.000000	22.823200
529.000000	22.707200
528.000000	22.576300
527.000000	22.453200
526.000000	22.322000
525.000000	22.199600
524.000000	22.062800
523.000000	21.907900
522.000000	21.753100
521.000000	21.616800
520.000000	21.471300
519.000000	21.334900
518.000000	21.191200
517.000000	21.047900
516.000000	20.907500
515.000000	20.737900
514.000000	20.569300
513.000000	20.389200
512.000000	20.199100
511.000000	20.025300
510.000000	19.814200
509.000000	19.601000
508.000000	19.377600
507.000000	19.156900
506.000000	18.917200
505.000000	18.684300
504.000000	18.419000
503.000000	18.163100
502.000000	17.920400
501.000000	17.676400
500.000000	17.417600
499.000000	17.177600
498.000000	16.925000
497.000000	16.670100
496.000000	16.419000
495.000000	16.164800
494.000000	15.920100
493.000000	15.645100
492.000000	15.376300
491.000000	15.104900
490.000000	14.826100
489.000000	14.541700
488.000000	14.262800
487.000000	13.994300
486.000000	13.725900
485.000000	13.449900
484.000000	13.161500
483.000000	12.891300
482.000000	12.648200
481.000000	12.422300
480.000000	12.187300
479.000000	11.932900
478.000000	11.678100
477.000000	11.435500
476.000000	11.185900
475.000000	10.934900
474.000000	10.684000
473.000000	10.444200
472.000000	10.206300
471.000000	9.968400
470.000000	9.749300
469.000000	9.547900
468.000000	9.350900
467.000000	9.174500
466.000000	9.010900
465.000000	8.857100
464.000000	8.734200
463.000000	8.619300
462.000000	8.525400
461.000000	8.454200
460.000000	8.398700
459.000000	8.349600
458.000000	8.322100
457.000000	8.310900
456.000000	8.306800
455.000000	8.318400
454.000000	8.335300
453.000000	8.367400
452.000000	8.406100
451.000000	8.439600
450.000000	8.467800
449.000000	8.492400
448.000000	8.527100
447.000000	8.571100
446.000000	8.614600
445.000000	8.648600
444.000000	8.672400
443.000000	8.700700
442.000000	8.725900
441.000000	8.739300
440.000000	8.748400
439.000000	8.747600
438.000000	8.740700
437.000000	8.742300
436.000000	8.739600
435.000000	8.725300
434.000000	8.700100
433.000000	8.669600
432.000000	8.638000
431.000000	8.611900
430.000000	8.578800
429.000000	8.522700
428.000000	8.472400
427.000000	8.421700
426.000000	8.365600
425.000000	8.305500
424.000000	8.237500
423.000000	8.163100
422.000000	8.085900
421.000000	8.016800
420.000000	7.925400
419.000000	7.819500
418.000000	7.730000
417.000000	7.643300
416.000000	7.536600
415.000000	7.419300
414.000000	7.294900
413.000000	7.172700
412.000000	7.044800
411.000000	6.926600
410.000000	6.804600
409.000000	6.668400
408.000000	6.528200
407.000000	6.388900
406.000000	6.249200
405.000000	6.110700
404.000000	5.975000
403.000000	5.816100
402.000000	5.653100
401.000000	5.505000
400.000000	5.358100
399.000000	5.213200
398.000000	5.059400
397.000000	4.906600
396.000000	4.759300
395.000000	4.620800
394.000000	4.458800
393.000000	4.311100
392.000000	4.195000
391.000000	4.065700
390.000000	3.914800
389.000000	3.786500
388.000000	3.676000
387.000000	3.573800
386.000000	3.471200
385.000000	3.365600
384.000000	3.260400
383.000000	3.166900
382.000000	3.083400
381.000000	3.003100
380.000000	2.929800
379.000000	2.861300
378.000000	2.793700
377.000000	2.732600
376.000000	3.083500
375.000000	2.773000
374.000000	2.598200
373.000000	2.625300
372.000000	2.598700
371.000000	2.673100
370.000000	2.670800
369.000000	2.608900
368.000000	2.683500
367.000000	2.628500
366.000000	2.585200
365.000000	2.633100
364.000000	2.647700
363.000000	2.597900
362.000000	2.501200
361.000000	2.427000
360.000000	2.555700
359.000000	2.519700
358.000000	2.523500
357.000000	2.467700
356.000000	2.591900
355.000000	2.503100
354.000000	2.490600
353.000000	2.528000
352.000000	2.519300
351.000000	2.481900
350.000000	2.438600
349.000000	2.462500
348.000000	2.413800
347.000000	2.451800
346.000000	2.372100
345.000000	2.414200
344.000000	2.336600
343.000000	2.401000
342.000000	2.385400
341.000000	2.408400
340.000000	2.423200
339.000000	2.600300
338.000000	2.457100
337.000000	2.455900
336.000000	2.424900
335.000000	2.549800
334.000000	2.313500
333.000000	2.257900
332.000000	2.413200
331.000000	2.381200
330.000000	2.353800
329.000000	2.606300
328.000000	2.255900
327.000000	2.478000
326.000000	2.539600
325.000000	2.364200
324.000000	2.419100
323.000000	2.447500
322.000000	2.555800
321.000000	2.459500
320.000000	2.699400
319.000000	2.395000
318.000000	2.464700
317.000000	2.829000
316.000000	2.275300
315.000000	2.121600
314.000000	2.138100
313.000000	2.184900
312.000000	2.099800
311.000000	2.171900
310.000000	2.194400
309.000000	2.164500
308.000000	2.055500
307.000000	2.095500
306.000000	2.076800
305.000000	2.171200
304.000000	2.152200
303.000000	2.128500
302.000000	2.143700
301.000000	2.212200
300.000000	2.188600
299.000000	2.189300
298.000000	2.117400
297.000000	2.181700
296.000000	2.133700
295.000000	2.095700
294.000000	2.148400
293.000000	2.165900
292.000000	2.151900
291.000000	2.201200
290.000000	2.203000
289.000000	2.247700
288.000000	2.200600
287.000000	2.176400
286.000000	2.215400
285.000000	2.211100
284.000000	2.203500
283.000000	2.252600
282.000000	2.184600
281.000000	2.251500
280.000000	2.224400
279.000000	2.239400
278.000000	2.281200
277.000000	2.254400
276.000000	2.211300
275.000000	2.228400
274.000000	2.226200
273.000000	2.267300
272.000000	2.254400
271.000000	2.273400
270.000000	2.266400
269.000000	2.289700
268.000000	2.254400
267.000000	2.224400
266.000000	2.254900
265.000000	2.262700
264.000000	2.284200
263.000000	2.342300
262.000000	2.333800
261.000000	2.277100
260.000000	2.301100
259.000000	2.285400
258.000000	2.303600
257.000000	2.317000
256.000000	2.313400
255.000000	2.371200
254.000000	2.313000
253.000000	2.314900
252.000000	2.306600
251.000000	2.323000
250.000000	2.278600
