PE UV       SUBTECH     SPECTRUM    ASCII       PEDS        4.00        
   -1
CICIMAUCR0015-1.Sample.ASC
24/03/08
11:15:04.00
24/03/08
11:15:04.00
Vinicio Soto Monge
C. resplendens
250,000000
1
Lambda 1050
1050L1511233
PerkinElmer UV WinLab 6.3.2.0749 / 2.02.05 Lambda 900 UV/VIS/NIR, Aug  7 2015 09:38:08

0
0
3350/servo 860,8/2
0
0
UV/VIS
1
1
1
DoubleDePol,CommonBeamDepol,RBeamAtt,SBeamAtt,60mm sphere, WB InGaAs Detector
0
0
0
0
Program
Program
3350/servo 860,8/2
3350/0,2 860,8/0,2
3350/0,2 860,8/0,2
0
15.00
 
 
 
0
 
860,8
319,2
860,8
Front
100
on
S:100 R:100
0
0
0
0
 
0
 
 
 
0
 
 
0
0
0
0
0
 
 
 
 
0
0


0
0
#HDR
-1
-1
#GR
nm
%R
1.0
0.0
2500,000000
-1,000000
2251
8
23,608200
1,584400
#DATA
2500.000000	1.841661
2499.000000	1.743583
2498.000000	1.727972
2497.000000	1.716203
2496.000000	1.765896
2495.000000	1.690376
2494.000000	1.670924
2493.000000	1.662424
2492.000000	1.659073
2491.000000	1.700102
2490.000000	1.572028
2489.000000	1.624337
2488.000000	1.656294
2487.000000	1.680977
2486.000000	1.658746
2485.000000	1.621394
2484.000000	1.646404
2483.000000	1.612485
2482.000000	1.608644
2481.000000	1.619433
2480.000000	1.642318
2479.000000	1.596466
2478.000000	1.613385
2477.000000	1.601860
2476.000000	1.620250
2475.000000	1.581918
2474.000000	1.624827
2473.000000	1.617716
2472.000000	1.599081
2471.000000	1.605947
2470.000000	1.601125
2469.000000	1.617226
2468.000000	1.643135
2467.000000	1.580365
2466.000000	1.605293
2465.000000	1.605293
2464.000000	1.615510
2463.000000	1.627115
2462.000000	1.625481
2461.000000	1.622702
2460.000000	1.615510
2459.000000	1.631120
2458.000000	1.609788
2457.000000	1.643053
2456.000000	1.635943
2455.000000	1.647303
2454.000000	1.650409
2453.000000	1.670760
2452.000000	1.671005
2451.000000	1.678116
2450.000000	1.663731
2449.000000	1.683102
2448.000000	1.697650
2447.000000	1.713506
2446.000000	1.735737
2445.000000	1.734348
2444.000000	1.754535
2443.000000	1.757396
2442.000000	1.761891
2441.000000	1.761646
2440.000000	1.781425
2439.000000	1.798916
2438.000000	1.809622
2437.000000	1.801041
2436.000000	1.808642
2435.000000	1.820329
2434.000000	1.825478
2433.000000	1.835940
2432.000000	1.856128
2431.000000	1.856782
2430.000000	1.863892
2429.000000	1.882200
2428.000000	1.885633
2427.000000	1.910316
2426.000000	1.907782
2425.000000	1.919552
2424.000000	1.939821
2423.000000	1.965812
2422.000000	1.963769
2421.000000	1.964586
2420.000000	1.982730
2419.000000	1.996053
2418.000000	1.999158
2417.000000	2.003899
2416.000000	2.003081
2415.000000	2.009293
2414.000000	2.020490
2413.000000	2.021308
2412.000000	2.034466
2411.000000	2.048770
2410.000000	2.054409
2409.000000	2.052938
2408.000000	2.054736
2407.000000	2.066669
2406.000000	2.070020
2405.000000	2.074433
2404.000000	2.082688
2403.000000	2.085385
2402.000000	2.102549
2401.000000	2.102059
2400.000000	2.096583
2399.000000	2.100261
2398.000000	2.107616
2397.000000	2.130256
2396.000000	2.141944
2395.000000	2.138021
2394.000000	2.136468
2393.000000	2.138184
2392.000000	2.146929
2391.000000	2.146357
2390.000000	2.153713
2389.000000	2.158127
2388.000000	2.159271
2387.000000	2.170141
2386.000000	2.182564
2385.000000	2.180930
2384.000000	2.172348
2383.000000	2.177170
2382.000000	2.179622
2381.000000	2.171776
2380.000000	2.181911
2379.000000	2.196541
2378.000000	2.185425
2377.000000	2.179132
2376.000000	2.182891
2375.000000	2.183545
2374.000000	2.189021
2373.000000	2.182891
2372.000000	2.177170
2371.000000	2.171367
2370.000000	2.162704
2369.000000	2.163603
2368.000000	2.167607
2367.000000	2.163930
2366.000000	2.161069
2365.000000	2.163357
2364.000000	2.166954
2363.000000	2.151588
2362.000000	2.136713
2361.000000	2.136876
2360.000000	2.127314
2359.000000	2.119958
2358.000000	2.115626
2357.000000	2.106309
2356.000000	2.092986
2355.000000	2.085140
2354.000000	2.077457
2353.000000	2.082034
2352.000000	2.080481
2351.000000	2.070674
2350.000000	2.073698
2349.000000	2.076231
2348.000000	2.081054
2347.000000	2.092333
2346.000000	2.100506
2345.000000	2.101977
2344.000000	2.111458
2343.000000	2.117261
2342.000000	2.131727
2341.000000	2.135977
2340.000000	2.143824
2339.000000	2.146194
2338.000000	2.153550
2337.000000	2.166790
2336.000000	2.159516
2335.000000	2.160252
2334.000000	2.159107
2333.000000	2.162949
2332.000000	2.171858
2331.000000	2.156819
2330.000000	2.158862
2329.000000	2.151016
2328.000000	2.135896
2327.000000	2.139737
2326.000000	2.122246
2325.000000	2.108270
2324.000000	2.099770
2323.000000	2.071900
2322.000000	2.068467
2321.000000	2.070837
2320.000000	2.055962
2319.000000	2.048688
2318.000000	2.031361
2317.000000	2.003899
2316.000000	1.982403
2315.000000	1.988206
2314.000000	1.978317
2313.000000	1.963115
2312.000000	1.948321
2311.000000	1.925845
2310.000000	1.914403
2309.000000	1.909662
2308.000000	1.907537
2307.000000	1.905167
2306.000000	1.899609
2305.000000	1.901734
2304.000000	1.905330
2303.000000	1.907619
2302.000000	1.903287
2301.000000	1.906066
2300.000000	1.912604
2299.000000	1.911624
2298.000000	1.932629
2297.000000	1.920941
2296.000000	1.926744
2295.000000	1.943744
2294.000000	1.944643
2293.000000	1.954696
2292.000000	1.971370
2291.000000	1.969163
2290.000000	1.975701
2289.000000	1.960663
2288.000000	1.958292
2287.000000	1.958292
2286.000000	1.970634
2285.000000	1.959437
2284.000000	1.945869
2283.000000	1.955595
2282.000000	1.943090
2281.000000	1.935081
2280.000000	1.946441
2279.000000	1.930912
2278.000000	1.921431
2277.000000	1.918898
2276.000000	1.894869
2275.000000	1.903614
2274.000000	1.911951
2273.000000	1.902633
2272.000000	1.900099
2271.000000	1.889393
2270.000000	1.881465
2269.000000	1.884897
2268.000000	1.889066
2267.000000	1.896258
2266.000000	1.879993
2265.000000	1.889556
2264.000000	1.905249
2263.000000	1.917427
2262.000000	1.903205
2261.000000	1.921758
2260.000000	1.928215
2259.000000	1.956331
2258.000000	1.977009
2257.000000	1.994500
2256.000000	1.988860
2255.000000	2.025313
2254.000000	2.029317
2253.000000	2.066914
2252.000000	2.079255
2251.000000	2.097727
2250.000000	2.116934
2249.000000	2.134016
2248.000000	2.160579
2247.000000	2.173165
2246.000000	2.187877
2245.000000	2.203978
2244.000000	2.222695
2243.000000	2.237815
2242.000000	2.249257
2241.000000	2.237243
2240.000000	2.279416
2239.000000	2.284157
2238.000000	2.291595
2237.000000	2.300585
2236.000000	2.307369
2235.000000	2.301566
2234.000000	2.332460
2233.000000	2.324205
2232.000000	2.320773
2231.000000	2.335403
2230.000000	2.328946
2229.000000	2.319220
2228.000000	2.321835
2227.000000	2.301239
2226.000000	2.300176
2225.000000	2.282686
2224.000000	2.266094
2223.000000	2.250647
2222.000000	2.236671
2221.000000	2.234873
2220.000000	2.225555
2219.000000	2.192045
2218.000000	2.190901
2217.000000	2.182319
2216.000000	2.148973
2215.000000	2.162704
2214.000000	2.145867
2213.000000	2.132545
2212.000000	2.127477
2211.000000	2.135405
2210.000000	2.143251
2209.000000	2.143088
2208.000000	2.149626
2207.000000	2.167035
2206.000000	2.191555
2205.000000	2.190492
2204.000000	2.214685
2203.000000	2.257839
2202.000000	2.278272
2201.000000	2.289143
2200.000000	2.326085
2199.000000	2.381663
2198.000000	2.402586
2197.000000	2.437567
2196.000000	2.471650
2195.000000	2.498458
2194.000000	2.531804
2193.000000	2.560002
2192.000000	2.593757
2191.000000	2.612964
2190.000000	2.632988
2189.000000	2.642551
2188.000000	2.663637
2187.000000	2.689873
2186.000000	2.689955
2185.000000	2.711859
2184.000000	2.712431
2183.000000	2.728859
2182.000000	2.751581
2181.000000	2.759999
2180.000000	2.765884
2179.000000	2.776100
2178.000000	2.786153
2177.000000	2.779043
2176.000000	2.781086
2175.000000	2.791139
2174.000000	2.802500
2173.000000	2.810264
2172.000000	2.831106
2171.000000	2.829471
2170.000000	2.835029
2169.000000	2.846144
2168.000000	2.850149
2167.000000	2.851293
2166.000000	2.870991
2165.000000	2.882924
2164.000000	2.892405
2163.000000	2.903275
2162.000000	2.908179
2161.000000	2.921910
2160.000000	2.925833
2159.000000	2.935804
2158.000000	2.947982
2157.000000	2.955828
2156.000000	2.977732
2155.000000	2.984761
2154.000000	2.987377
2153.000000	3.003478
2152.000000	3.008382
2151.000000	3.033964
2150.000000	3.041320
2149.000000	3.061508
2148.000000	3.053498
2147.000000	3.072541
2146.000000	3.078344
2145.000000	3.101229
2144.000000	3.117249
2143.000000	3.122561
2142.000000	3.128446
2141.000000	3.146999
2140.000000	3.146999
2139.000000	3.149860
2138.000000	3.168249
2137.000000	3.182062
2136.000000	3.192360
2135.000000	3.203557
2134.000000	3.200615
2133.000000	3.198572
2132.000000	3.224971
2131.000000	3.226197
2130.000000	3.224971
2129.000000	3.228976
2128.000000	3.237558
2127.000000	3.235433
2126.000000	3.228649
2125.000000	3.231183
2124.000000	3.233471
2123.000000	3.234697
2122.000000	3.240337
2121.000000	3.233471
2120.000000	3.229548
2119.000000	3.237803
2118.000000	3.252760
2117.000000	3.251125
2116.000000	3.236087
2115.000000	3.235106
2114.000000	3.229303
2113.000000	3.234697
2112.000000	3.228322
2111.000000	3.221130
2110.000000	3.221048
2109.000000	3.226769
2108.000000	3.211649
2107.000000	3.200942
2106.000000	3.196855
2105.000000	3.204947
2104.000000	3.216798
2103.000000	3.205192
2102.000000	3.198817
2101.000000	3.195057
2100.000000	3.196692
2099.000000	3.197836
2098.000000	3.188192
2097.000000	3.177567
2096.000000	3.172172
2095.000000	3.182144
2094.000000	3.193913
2093.000000	3.188764
2092.000000	3.170783
2091.000000	3.167514
2090.000000	3.173317
2089.000000	3.175605
2088.000000	3.179692
2087.000000	3.173071
2086.000000	3.167350
2085.000000	3.162446
2084.000000	3.163345
2083.000000	3.157788
2082.000000	3.157542
2081.000000	3.167432
2080.000000	3.152802
2079.000000	3.146754
2078.000000	3.154600
2077.000000	3.147489
2076.000000	3.143321
2075.000000	3.132042
2074.000000	3.122806
2073.000000	3.117821
2072.000000	3.116676
2071.000000	3.105397
2070.000000	3.097551
2069.000000	3.092075
2068.000000	3.079815
2067.000000	3.065512
2066.000000	3.067147
2065.000000	3.064859
2064.000000	3.046305
2063.000000	3.033800
2062.000000	3.028324
2061.000000	3.005930
2060.000000	2.997348
2059.000000	2.991463
2058.000000	2.987704
2057.000000	2.984925
2056.000000	2.980920
2055.000000	2.973646
2054.000000	2.966290
2053.000000	2.983290
2052.000000	3.000290
2051.000000	2.983617
2050.000000	2.989011
2049.000000	3.006747
2048.000000	3.018517
2047.000000	3.045161
2046.000000	3.068700
2045.000000	3.093138
2044.000000	3.114224
2043.000000	3.141032
2042.000000	3.168167
2041.000000	3.197264
2040.000000	3.229711
2039.000000	3.252596
2038.000000	3.281039
2037.000000	3.316184
2036.000000	3.338496
2035.000000	3.355905
2034.000000	3.383694
2033.000000	3.395136
2032.000000	3.425377
2031.000000	3.433877
2030.000000	3.451777
2029.000000	3.476051
2028.000000	3.507436
2027.000000	3.504575
2026.000000	3.530157
2025.000000	3.537758
2024.000000	3.566855
2023.000000	3.575927
2022.000000	3.589413
2021.000000	3.596442
2020.000000	3.609927
2019.000000	3.620961
2018.000000	3.638043
2017.000000	3.651529
2016.000000	3.667957
2015.000000	3.684385
2014.000000	3.677438
2013.000000	3.700650
2012.000000	3.699914
2011.000000	3.700241
2010.000000	3.719938
2009.000000	3.725660
2008.000000	3.726640
2007.000000	3.740208
2006.000000	3.751814
2005.000000	3.752304
2004.000000	3.745112
2003.000000	3.741107
2002.000000	3.745520
2001.000000	3.744621
2000.000000	3.742742
1999.000000	3.741025
1998.000000	3.733506
1997.000000	3.722390
1996.000000	3.715525
1995.000000	3.714299
1994.000000	3.719693
1993.000000	3.697054
1992.000000	3.690106
1991.000000	3.674496
1990.000000	3.651611
1989.000000	3.644010
1988.000000	3.648832
1987.000000	3.628726
1986.000000	3.618509
1985.000000	3.599139
1984.000000	3.590394
1983.000000	3.579523
1982.000000	3.567182
1981.000000	3.555576
1980.000000	3.527951
1979.000000	3.517080
1978.000000	3.493623
1977.000000	3.503758
1976.000000	3.492642
1975.000000	3.465181
1974.000000	3.461748
1973.000000	3.447608
1972.000000	3.440579
1971.000000	3.412055
1970.000000	3.419656
1969.000000	3.407805
1968.000000	3.384511
1967.000000	3.397098
1966.000000	3.377155
1965.000000	3.355170
1964.000000	3.333266
1963.000000	3.336943
1962.000000	3.336698
1961.000000	3.331631
1960.000000	3.315039
1959.000000	3.295179
1958.000000	3.282837
1957.000000	3.278505
1956.000000	3.273356
1955.000000	3.240173
1954.000000	3.243688
1953.000000	3.223745
1952.000000	3.222437
1951.000000	3.222683
1950.000000	3.215899
1949.000000	3.187456
1948.000000	3.191134
1947.000000	3.183942
1946.000000	3.173643
1945.000000	3.180754
1944.000000	3.189091
1943.000000	3.171110
1942.000000	3.169475
1941.000000	3.169884
1940.000000	3.183778
1939.000000	3.171355
1938.000000	3.172091
1937.000000	3.173643
1936.000000	3.167759
1935.000000	3.189254
1934.000000	3.191543
1933.000000	3.188600
1932.000000	3.201024
1931.000000	3.221783
1930.000000	3.236659
1929.000000	3.250471
1928.000000	3.271885
1927.000000	3.281039
1926.000000	3.303679
1925.000000	3.315775
1924.000000	3.357540
1923.000000	3.393011
1922.000000	3.411074
1921.000000	3.421536
1920.000000	3.439599
1919.000000	3.462729
1918.000000	3.496729
1917.000000	3.525662
1916.000000	3.576499
1915.000000	3.617447
1914.000000	3.651120
1913.000000	3.679481
1912.000000	3.712991
1911.000000	3.738410
1910.000000	3.769059
1909.000000	3.841474
1908.000000	3.902118
1907.000000	3.948215
1906.000000	3.996273
1905.000000	4.022755
1904.000000	4.071712
1903.000000	4.128025
1902.000000	4.191122
1901.000000	4.242776
1900.000000	4.290181
1899.000000	4.322301
1898.000000	4.375427
1897.000000	4.423485
1896.000000	4.499496
1895.000000	4.570112
1894.000000	4.636233
1893.000000	4.705378
1892.000000	4.761037
1891.000000	4.796836
1890.000000	4.860178
1889.000000	4.927198
1888.000000	4.996506
1887.000000	5.078974
1886.000000	5.187514
1885.000000	5.274149
1884.000000	5.380319
1883.000000	5.494416
1882.000000	5.609004
1881.000000	5.741818
1880.000000	5.898661
1879.000000	6.021259
1878.000000	6.143938
1877.000000	6.274954
1876.000000	6.377201
1875.000000	6.482553
1874.000000	6.568780
1873.000000	6.643074
1872.000000	6.699387
1871.000000	6.734123
1870.000000	6.762811
1869.000000	6.781282
1868.000000	6.803922
1867.000000	6.817244
1866.000000	6.845524
1865.000000	6.879279
1864.000000	6.922351
1863.000000	6.959294
1862.000000	6.984958
1861.000000	6.989780
1860.000000	6.978092
1859.000000	6.956270
1858.000000	6.927746
1857.000000	6.921534
1856.000000	6.919818
1855.000000	6.892765
1854.000000	6.869308
1853.000000	6.829831
1852.000000	6.818716
1851.000000	6.842745
1850.000000	6.851000
1849.000000	6.807845
1848.000000	6.723498
1847.000000	6.650021
1846.000000	6.621007
1845.000000	6.638252
1844.000000	6.672988
1843.000000	6.680344
1842.000000	6.642093
1841.000000	6.593708
1840.000000	6.570251
1839.000000	6.571150
1838.000000	6.559136
1837.000000	6.506255
1836.000000	6.451904
1835.000000	6.421663
1834.000000	6.415288
1833.000000	6.415615
1832.000000	6.407768
1831.000000	6.374504
1830.000000	6.333474
1829.000000	6.301354
1828.000000	6.263839
1827.000000	6.225752
1826.000000	6.198126
1825.000000	6.188237
1824.000000	6.213819
1823.000000	6.243161
1822.000000	6.218233
1821.000000	6.163472
1820.000000	6.129554
1819.000000	6.116150
1818.000000	6.122606
1817.000000	6.135765
1816.000000	6.134212
1815.000000	6.128246
1814.000000	6.134866
1813.000000	6.138544
1812.000000	6.121789
1811.000000	6.098741
1810.000000	6.074139
1809.000000	6.081332
1808.000000	6.081250
1807.000000	6.060981
1806.000000	6.040793
1805.000000	6.024283
1804.000000	6.010634
1803.000000	6.004177
1802.000000	5.978513
1801.000000	5.950643
1800.000000	5.938955
1799.000000	5.928739
1798.000000	5.905936
1797.000000	5.902421
1796.000000	5.894738
1795.000000	5.882887
1794.000000	5.863353
1793.000000	5.855344
1792.000000	5.842839
1791.000000	5.809656
1790.000000	5.784482
1789.000000	5.760290
1788.000000	5.750318
1787.000000	5.724328
1786.000000	5.696048
1785.000000	5.679293
1784.000000	5.648889
1783.000000	5.625759
1782.000000	5.604918
1781.000000	5.574186
1780.000000	5.543047
1779.000000	5.522205
1778.000000	5.479296
1777.000000	5.454613
1776.000000	5.406718
1775.000000	5.375088
1774.000000	5.331607
1773.000000	5.279380
1772.000000	5.241620
1771.000000	5.201817
1770.000000	5.153186
1769.000000	5.119513
1768.000000	5.076930
1767.000000	5.036964
1766.000000	5.009257
1765.000000	4.976319
1764.000000	4.970025
1763.000000	4.974357
1762.000000	4.966021
1761.000000	4.996343
1760.000000	4.998468
1759.000000	5.027401
1758.000000	5.058704
1757.000000	5.067368
1756.000000	5.067940
1755.000000	5.083796
1754.000000	5.104147
1753.000000	5.085512
1752.000000	5.069902
1751.000000	5.077094
1750.000000	5.061075
1749.000000	5.034185
1748.000000	4.999367
1747.000000	4.971660
1746.000000	4.931530
1745.000000	4.881183
1744.000000	4.833043
1743.000000	4.770682
1742.000000	4.718619
1741.000000	4.647594
1740.000000	4.601906
1739.000000	4.529900
1738.000000	4.459611
1737.000000	4.421932
1736.000000	4.367172
1735.000000	4.339628
1734.000000	4.342407
1733.000000	4.318705
1732.000000	4.333499
1731.000000	4.344205
1730.000000	4.378860
1729.000000	4.419889
1728.000000	4.430351
1727.000000	4.460183
1726.000000	4.468928
1725.000000	4.503255
1724.000000	4.507342
1723.000000	4.520010
1722.000000	4.533006
1721.000000	4.522217
1720.000000	4.552540
1719.000000	4.543713
1718.000000	4.556953
1717.000000	4.579348
1716.000000	4.597982
1715.000000	4.620377
1714.000000	4.624382
1713.000000	4.661406
1712.000000	4.663613
1711.000000	4.691647
1710.000000	4.678570
1709.000000	4.704969
1708.000000	4.690503
1707.000000	4.693527
1706.000000	4.680858
1705.000000	4.678733
1704.000000	4.671459
1703.000000	4.637704
1702.000000	4.640728
1701.000000	4.584824
1700.000000	4.579184
1699.000000	4.532679
1698.000000	4.510203
1697.000000	4.483231
1696.000000	4.476366
1695.000000	4.484702
1694.000000	4.508241
1693.000000	4.553439
1692.000000	4.603377
1691.000000	4.608199
1690.000000	4.656584
1689.000000	4.689686
1688.000000	4.688214
1687.000000	4.703743
1686.000000	4.689113
1685.000000	4.709219
1684.000000	4.730551
1683.000000	4.810240
1682.000000	4.890255
1681.000000	5.027319
1680.000000	5.188413
1679.000000	5.328010
1678.000000	5.487551
1677.000000	5.615870
1676.000000	5.763559
1675.000000	5.859757
1674.000000	5.967725
1673.000000	6.061062
1672.000000	6.141977
1671.000000	6.212920
1670.000000	6.253868
1669.000000	6.307974
1668.000000	6.361263
1667.000000	6.411855
1666.000000	6.435802
1665.000000	6.470048
1664.000000	6.480510
1663.000000	6.511649
1662.000000	6.527424
1661.000000	6.544506
1660.000000	6.558237
1659.000000	6.580549
1658.000000	6.575891
1657.000000	6.581612
1656.000000	6.569761
1655.000000	6.582184
1654.000000	6.582511
1653.000000	6.572458
1652.000000	6.567554
1651.000000	6.557746
1650.000000	6.544260
1649.000000	6.550063
1648.000000	6.534453
1647.000000	6.510097
1646.000000	6.500125
1645.000000	6.485414
1644.000000	6.461957
1643.000000	6.436129
1642.000000	6.416187
1641.000000	6.407932
1640.000000	6.366330
1639.000000	6.352191
1638.000000	6.330859
1637.000000	6.313041
1636.000000	6.293671
1635.000000	6.275853
1634.000000	6.254276
1633.000000	6.231718
1632.000000	6.202377
1631.000000	6.190852
1630.000000	6.152030
1629.000000	6.118193
1628.000000	6.098414
1627.000000	6.077164
1626.000000	6.042918
1625.000000	6.026817
1624.000000	6.000908
1623.000000	5.967153
1622.000000	5.950152
1621.000000	5.919993
1620.000000	5.906262
1619.000000	5.875286
1618.000000	5.858858
1617.000000	5.812026
1616.000000	5.783992
1615.000000	5.766992
1614.000000	5.753179
1613.000000	5.737895
1612.000000	5.724655
1611.000000	5.698337
1610.000000	5.667361
1609.000000	5.642923
1608.000000	5.626822
1607.000000	5.620610
1606.000000	5.583586
1605.000000	5.552691
1604.000000	5.539369
1603.000000	5.521633
1602.000000	5.508311
1601.000000	5.489594
1600.000000	5.463767
1599.000000	5.449219
1598.000000	5.430829
1597.000000	5.412358
1596.000000	5.394050
1595.000000	5.371737
1594.000000	5.353919
1593.000000	5.353838
1592.000000	5.336347
1591.000000	5.323352
1590.000000	5.320655
1589.000000	5.306106
1588.000000	5.292539
1587.000000	5.279053
1586.000000	5.268428
1585.000000	5.269981
1584.000000	5.266385
1583.000000	5.252817
1582.000000	5.245543
1581.000000	5.240394
1580.000000	5.223884
1579.000000	5.217427
1578.000000	5.220860
1577.000000	5.219798
1576.000000	5.221514
1575.000000	5.230341
1574.000000	5.237206
1573.000000	5.236389
1572.000000	5.239331
1571.000000	5.254288
1570.000000	5.267039
1569.000000	5.257639
1568.000000	5.260010
1567.000000	5.273495
1566.000000	5.273741
1565.000000	5.282976
1564.000000	5.302755
1563.000000	5.315179
1562.000000	5.319020
1561.000000	5.325804
1560.000000	5.338227
1559.000000	5.340434
1558.000000	5.336265
1557.000000	5.336347
1556.000000	5.351059
1555.000000	5.363972
1554.000000	5.361684
1553.000000	5.358333
1552.000000	5.352040
1551.000000	5.342068
1550.000000	5.348362
1549.000000	5.355636
1548.000000	5.346482
1547.000000	5.341987
1546.000000	5.346073
1545.000000	5.344438
1544.000000	5.340025
1543.000000	5.332996
1542.000000	5.335366
1541.000000	5.333159
1540.000000	5.326131
1539.000000	5.327929
1538.000000	5.328501
1537.000000	5.328174
1536.000000	5.320981
1535.000000	5.320001
1534.000000	5.317630
1533.000000	5.318039
1532.000000	5.316568
1531.000000	5.304553
1530.000000	5.299649
1529.000000	5.303491
1528.000000	5.302101
1527.000000	5.291967
1526.000000	5.283303
1525.000000	5.272351
1524.000000	5.270063
1523.000000	5.274803
1522.000000	5.271534
1521.000000	5.259683
1520.000000	5.252327
1519.000000	5.244644
1518.000000	5.249139
1517.000000	5.239331
1516.000000	5.229033
1515.000000	5.231240
1514.000000	5.226990
1513.000000	5.222822
1512.000000	5.209499
1511.000000	5.202634
1510.000000	5.202470
1509.000000	5.185797
1508.000000	5.166345
1507.000000	5.169206
1506.000000	5.181465
1505.000000	5.167571
1504.000000	5.165446
1503.000000	5.159480
1502.000000	5.134306
1501.000000	5.134061
1500.000000	5.145585
1499.000000	5.134715
1498.000000	5.138556
1497.000000	5.131772
1496.000000	5.128585
1495.000000	5.134960
1494.000000	5.133816
1493.000000	5.147874
1492.000000	5.140600
1491.000000	5.148691
1490.000000	5.139946
1489.000000	5.140191
1488.000000	5.152205
1487.000000	5.151061
1486.000000	5.145176
1485.000000	5.148854
1484.000000	5.167162
1483.000000	5.170186
1482.000000	5.179013
1481.000000	5.192744
1480.000000	5.194788
1479.000000	5.198793
1478.000000	5.217591
1477.000000	5.224375
1476.000000	5.230014
1475.000000	5.245380
1474.000000	5.258048
1473.000000	5.259437
1472.000000	5.291231
1471.000000	5.286000
1470.000000	5.304880
1469.000000	5.311991
1468.000000	5.320736
1467.000000	5.335857
1466.000000	5.345419
1465.000000	5.345011
1464.000000	5.374107
1463.000000	5.385468
1462.000000	5.404511
1461.000000	5.425026
1460.000000	5.441781
1459.000000	5.464584
1458.000000	5.487551
1457.000000	5.507657
1456.000000	5.537325
1455.000000	5.568057
1454.000000	5.577701
1453.000000	5.613418
1452.000000	5.649380
1451.000000	5.669649
1450.000000	5.684688
1449.000000	5.722366
1448.000000	5.784564
1447.000000	5.808184
1446.000000	5.829189
1445.000000	5.863272
1444.000000	5.899969
1443.000000	5.923017
1442.000000	5.966254
1441.000000	5.989384
1440.000000	6.020932
1439.000000	6.076346
1438.000000	6.106996
1437.000000	6.112390
1436.000000	6.154318
1435.000000	6.203112
1434.000000	6.240382
1433.000000	6.284435
1432.000000	6.284027
1431.000000	6.328489
1430.000000	6.370662
1429.000000	6.427629
1428.000000	6.470947
1427.000000	6.518515
1426.000000	6.587905
1425.000000	6.666122
1424.000000	6.702166
1423.000000	6.763220
1422.000000	6.796566
1421.000000	6.880096
1420.000000	6.952510
1419.000000	7.001876
1418.000000	7.027949
1417.000000	7.096113
1416.000000	7.180705
1415.000000	7.223043
1414.000000	7.255735
1413.000000	7.282870
1412.000000	7.364684
1411.000000	7.430886
1410.000000	7.510820
1409.000000	7.576941
1408.000000	7.680168
1407.000000	7.761328
1406.000000	7.867089
1405.000000	7.953070
1404.000000	8.030389
1403.000000	8.157727
1402.000000	8.291195
1401.000000	8.351186
1400.000000	8.360994
1399.000000	8.417797
1398.000000	8.498303
1397.000000	8.551183
1396.000000	8.485144
1395.000000	8.410278
1394.000000	8.460052
1393.000000	8.512442
1392.000000	8.528952
1391.000000	8.553145
1390.000000	8.621309
1389.000000	8.663564
1388.000000	8.705983
1387.000000	8.760171
1386.000000	8.866423
1385.000000	8.993679
1384.000000	9.120036
1383.000000	9.236422
1382.000000	9.297312
1381.000000	9.376347
1380.000000	9.479247
1379.000000	9.564984
1378.000000	9.673524
1377.000000	9.796857
1376.000000	9.940132
1375.000000	10.101716
1374.000000	10.313892
1373.000000	10.531135
1372.000000	10.734892
1371.000000	10.905956
1370.000000	11.078574
1369.000000	11.232638
1368.000000	11.335538
1367.000000	11.455848
1366.000000	11.573214
1365.000000	11.652903
1364.000000	11.729322
1363.000000	11.824539
1362.000000	11.855924
1361.000000	11.837044
1360.000000	11.865405
1359.000000	11.915752
1358.000000	11.990455
1357.000000	12.091148
1356.000000	12.211866
1355.000000	12.390205
1354.000000	12.609082
1353.000000	12.855749
1352.000000	13.105684
1351.000000	13.333144
1350.000000	13.540743
1349.000000	13.735182
1348.000000	13.915810
1347.000000	14.077557
1346.000000	14.248703
1345.000000	14.427941
1344.000000	14.566394
1343.000000	14.682617
1342.000000	14.816820
1341.000000	14.937293
1340.000000	15.045260
1339.000000	15.169574
1338.000000	15.282201
1337.000000	15.386817
1336.000000	15.487838
1335.000000	15.575945
1334.000000	15.670100
1333.000000	15.764255
1332.000000	15.860535
1331.000000	15.937117
1330.000000	16.010757
1329.000000	16.080883
1328.000000	16.147413
1327.000000	16.214024
1326.000000	16.277285
1325.000000	16.337194
1324.000000	16.390810
1323.000000	16.446551
1322.000000	16.492893
1321.000000	16.534494
1320.000000	16.585332
1319.000000	16.642462
1318.000000	16.680631
1317.000000	16.711035
1316.000000	16.747978
1315.000000	16.775930
1314.000000	16.800368
1313.000000	16.841724
1312.000000	16.887412
1311.000000	16.903595
1310.000000	16.918797
1309.000000	16.932855
1308.000000	16.942663
1307.000000	16.961298
1306.000000	16.975764
1305.000000	16.988024
1304.000000	16.993827
1303.000000	16.984428
1302.000000	16.988514
1301.000000	16.980668
1300.000000	16.964076
1299.000000	16.955576
1298.000000	16.952225
1297.000000	16.952062
1296.000000	16.941028
1295.000000	16.932773
1294.000000	16.923619
1293.000000	16.905148
1292.000000	16.900162
1291.000000	16.882018
1290.000000	16.855618
1289.000000	16.831017
1288.000000	16.798733
1287.000000	16.779199
1286.000000	16.741766
1285.000000	16.701881
1284.000000	16.671640
1283.000000	16.638375
1282.000000	16.609361
1281.000000	16.574298
1280.000000	16.534903
1279.000000	16.508749
1278.000000	16.483085
1277.000000	16.449248
1276.000000	16.421133
1275.000000	16.393425
1274.000000	16.369723
1273.000000	16.350271
1272.000000	16.336458
1271.000000	16.306545
1270.000000	16.276222
1269.000000	16.253746
1268.000000	16.235601
1267.000000	16.213616
1266.000000	16.181659
1265.000000	16.159918
1264.000000	16.128451
1263.000000	16.096494
1262.000000	16.070013
1261.000000	16.036993
1260.000000	15.999642
1259.000000	15.967685
1258.000000	15.944473
1257.000000	15.910227
1256.000000	15.861924
1255.000000	15.825553
1254.000000	15.800217
1253.000000	15.765971
1252.000000	15.733360
1251.000000	15.688898
1250.000000	15.649667
1249.000000	15.605123
1248.000000	15.551180
1247.000000	15.504511
1246.000000	15.441251
1245.000000	15.393192
1244.000000	15.321759
1243.000000	15.262749
1242.000000	15.204392
1241.000000	15.140641
1240.000000	15.072967
1239.000000	15.001943
1238.000000	14.931408
1237.000000	14.857604
1236.000000	14.791729
1235.000000	14.710978
1234.000000	14.638808
1233.000000	14.587399
1232.000000	14.497413
1231.000000	14.403176
1230.000000	14.346781
1229.000000	14.260636
1228.000000	14.173837
1227.000000	14.098235
1226.000000	13.998032
1225.000000	13.930439
1224.000000	13.851487
1223.000000	13.753572
1222.000000	13.688759
1221.000000	13.607190
1220.000000	13.537964
1219.000000	13.470698
1218.000000	13.398938
1217.000000	13.331264
1216.000000	13.274951
1215.000000	13.223296
1214.000000	13.151373
1213.000000	13.098329
1212.000000	13.055501
1211.000000	13.013246
1210.000000	12.985375
1209.000000	12.943937
1208.000000	12.920399
1207.000000	12.891384
1206.000000	12.872749
1205.000000	12.866701
1204.000000	12.877163
1203.000000	12.862451
1202.000000	12.864739
1201.000000	12.843162
1200.000000	12.834499
1199.000000	12.810551
1198.000000	12.767887
1197.000000	12.684930
1196.000000	12.597722
1195.000000	12.489100
1194.000000	12.350974
1193.000000	12.184486
1192.000000	11.979585
1191.000000	11.777053
1190.000000	11.603782
1189.000000	11.454703
1188.000000	11.354991
1187.000000	11.327529
1186.000000	11.319928
1185.000000	11.384496
1184.000000	11.507584
1183.000000	11.662956
1182.000000	11.876439
1181.000000	12.106105
1180.000000	12.335526
1179.000000	12.529394
1178.000000	12.701112
1177.000000	12.870052
1176.000000	13.003029
1175.000000	13.140094
1174.000000	13.270864
1173.000000	13.436208
1172.000000	13.576051
1171.000000	13.721533
1170.000000	13.902160
1169.000000	14.054427
1168.000000	14.241102
1167.000000	14.401133
1166.000000	14.567048
1165.000000	14.740401
1164.000000	14.933370
1163.000000	15.121925
1162.000000	15.279585
1161.000000	15.476395
1160.000000	15.648849
1159.000000	15.794986
1158.000000	15.914968
1157.000000	16.028575
1156.000000	16.128369
1155.000000	16.189995
1154.000000	16.230779
1153.000000	16.247780
1152.000000	16.240178
1151.000000	16.226856
1150.000000	16.187461
1149.000000	16.183947
1148.000000	16.191630
1147.000000	16.218765
1146.000000	16.265679
1145.000000	16.362613
1144.000000	16.482840
1143.000000	16.638049
1142.000000	16.805027
1141.000000	16.988678
1140.000000	17.144213
1139.000000	17.320590
1138.000000	17.511189
1137.000000	17.716417
1136.000000	17.915924
1135.000000	18.094345
1134.000000	18.216288
1133.000000	18.379670
1132.000000	18.542807
1131.000000	18.673332
1130.000000	18.788165
1129.000000	18.886570
1128.000000	18.963725
1127.000000	19.029111
1126.000000	19.068914
1125.000000	19.123429
1124.000000	19.161107
1123.000000	19.207449
1122.000000	19.219137
1121.000000	19.256652
1120.000000	19.282642
1119.000000	19.295393
1118.000000	19.280109
1117.000000	19.294085
1116.000000	19.284931
1115.000000	19.290489
1114.000000	19.286647
1113.000000	19.293104
1112.000000	19.287710
1111.000000	19.280844
1110.000000	19.283460
1109.000000	19.287792
1108.000000	19.283868
1107.000000	19.285094
1106.000000	19.281662
1105.000000	19.272508
1104.000000	19.256325
1103.000000	19.243902
1102.000000	19.252565
1101.000000	19.232623
1100.000000	19.217747
1099.000000	19.206223
1098.000000	19.201973
1097.000000	19.177127
1096.000000	19.165766
1095.000000	19.144025
1094.000000	19.134299
1093.000000	19.102506
1092.000000	19.091717
1091.000000	19.077904
1090.000000	19.056491
1089.000000	19.031154
1088.000000	19.014399
1087.000000	18.984975
1086.000000	18.954326
1085.000000	18.917792
1084.000000	18.899566
1083.000000	18.883792
1082.000000	18.859272
1081.000000	18.834671
1080.000000	18.798382
1079.000000	18.773781
1078.000000	18.752776
1077.000000	18.728338
1076.000000	18.712400
1075.000000	18.688044
1074.000000	18.661073
1073.000000	18.653226
1072.000000	18.618082
1071.000000	18.581302
1070.000000	18.558091
1069.000000	18.536268
1068.000000	18.517960
1067.000000	18.502268
1066.000000	18.473825
1065.000000	18.449306
1064.000000	18.435248
1063.000000	18.398305
1062.000000	18.365204
1061.000000	18.334473
1060.000000	18.314203
1059.000000	18.288049
1058.000000	18.263202
1057.000000	18.234024
1056.000000	18.195447
1055.000000	18.162754
1054.000000	18.134638
1053.000000	18.118129
1052.000000	18.102027
1051.000000	18.075873
1050.000000	18.056585
1049.000000	18.038032
1048.000000	18.009834
1047.000000	17.991690
1046.000000	17.970031
1045.000000	17.954257
1044.000000	17.943304
1043.000000	17.936929
1042.000000	17.922054
1041.000000	17.896963
1040.000000	17.893938
1039.000000	17.875712
1038.000000	17.842693
1037.000000	17.822015
1036.000000	17.806322
1035.000000	17.783437
1034.000000	17.759898
1033.000000	17.738403
1032.000000	17.708081
1031.000000	17.680619
1030.000000	17.646863
1029.000000	17.620137
1028.000000	17.588098
1027.000000	17.550338
1026.000000	17.514376
1025.000000	17.473429
1024.000000	17.438774
1023.000000	17.406163
1022.000000	17.373226
1021.000000	17.341841
1020.000000	17.304407
1019.000000	17.279234
1018.000000	17.252508
1017.000000	17.226599
1016.000000	17.208373
1015.000000	17.175435
1014.000000	17.168651
1013.000000	17.157536
1012.000000	17.149689
1011.000000	17.146829
1010.000000	17.146257
1009.000000	17.143314
1008.000000	17.144867
1007.000000	17.149035
1006.000000	17.166117
1005.000000	17.177968
1004.000000	17.179194
1003.000000	17.174944
1002.000000	17.174863
1001.000000	17.176089
1000.000000	17.166689
999.000000	17.189002
998.000000	17.186223
997.000000	17.174863
996.000000	17.186632
995.000000	17.191046
994.000000	17.182709
993.000000	17.186387
992.000000	17.186060
991.000000	17.180829
990.000000	17.174536
989.000000	17.183118
988.000000	17.192435
987.000000	17.197829
986.000000	17.188430
985.000000	17.194233
984.000000	17.202406
983.000000	17.194642
982.000000	17.200281
981.000000	17.199709
980.000000	17.200118
979.000000	17.190310
978.000000	17.205185
977.000000	17.198483
976.000000	17.190800
975.000000	17.192844
974.000000	17.189983
973.000000	17.191618
972.000000	17.189738
971.000000	17.181319
970.000000	17.174209
969.000000	17.162848
968.000000	17.157127
967.000000	17.149281
966.000000	17.146665
965.000000	17.143396
964.000000	17.128112
963.000000	17.120920
962.000000	17.121247
961.000000	17.121328
960.000000	17.127050
959.000000	17.121900
958.000000	17.112828
957.000000	17.114953
956.000000	17.123699
955.000000	17.092232
954.000000	17.085366
953.000000	17.070982
952.000000	17.042130
951.000000	17.008293
950.000000	16.991293
949.000000	16.972822
948.000000	16.937105
947.000000	16.914465
946.000000	16.900571
945.000000	16.872864
944.000000	16.845647
943.000000	16.818185
942.000000	16.789497
941.000000	16.793993
940.000000	16.783041
939.000000	16.764406
938.000000	16.750675
937.000000	16.730569
936.000000	16.740458
935.000000	16.703107
934.000000	16.677934
933.000000	16.681530
932.000000	16.676953
931.000000	16.640010
930.000000	16.614101
929.000000	16.609034
928.000000	16.610505
927.000000	16.605683
926.000000	16.598817
925.000000	16.589745
924.000000	16.595466
923.000000	16.602332
922.000000	16.598082
921.000000	16.587620
920.000000	16.582961
919.000000	16.572663
918.000000	16.583533
917.000000	16.568822
916.000000	16.553783
915.000000	16.540870
914.000000	16.527874
913.000000	16.528610
912.000000	16.522725
911.000000	16.515287
910.000000	16.493792
909.000000	16.498042
908.000000	16.513898
907.000000	16.519864
906.000000	16.549370
905.000000	16.553783
904.000000	16.581735
903.000000	16.602740
902.000000	16.623827
901.000000	16.639847
900.000000	16.707275
899.000000	16.729261
898.000000	16.758439
897.000000	16.795219
896.000000	16.846791
895.000000	16.873599
894.000000	16.911360
893.000000	16.950264
892.000000	16.979687
891.000000	17.018755
890.000000	17.026520
889.000000	17.075559
888.000000	17.107679
887.000000	17.120511
886.000000	17.151079
885.000000	17.182627
884.000000	17.217445
883.000000	17.227007
882.000000	17.241229
881.000000	17.259210
880.000000	17.304653
879.000000	17.318710
878.000000	17.342821
877.000000	17.360639
876.000000	17.383442
875.000000	17.415890
874.000000	17.463049
873.000000	17.500564
872.000000	17.531376
871.000000	17.578291
870.000000	17.631661
869.000000	17.667215
868.000000	17.698927
867.000000	17.749764
866.000000	17.806976
865.000000	17.857077
864.000000	17.889770
863.000000	17.918948
862.000000	17.947555
861.000000	17.953112
860.000000	17.987358
859.000000	18.003377
858.000000	17.460433
857.000000	17.498600
856.000000	17.485900
855.000000	17.396800
854.000000	17.498300
853.000000	17.275800
852.000000	17.234400
851.000000	17.392900
850.000000	17.423000
849.000000	17.407900
848.000000	17.473400
847.000000	17.309800
846.000000	17.281800
845.000000	17.309300
844.000000	17.277400
843.000000	17.202000
842.000000	17.266700
841.000000	17.257900
840.000000	17.263300
839.000000	17.316600
838.000000	17.342700
837.000000	17.251200
836.000000	17.265200
835.000000	17.268600
834.000000	17.316700
833.000000	17.336700
832.000000	17.373800
831.000000	17.263100
830.000000	17.316700
829.000000	17.415600
828.000000	17.432800
827.000000	17.386400
826.000000	17.357200
825.000000	17.299400
824.000000	17.339700
823.000000	17.272200
822.000000	17.304400
821.000000	17.314000
820.000000	17.318400
819.000000	17.293400
818.000000	17.294200
817.000000	17.255600
816.000000	17.208100
815.000000	17.201000
814.000000	17.195700
813.000000	17.148200
812.000000	17.126800
811.000000	17.151300
810.000000	17.137100
809.000000	17.087900
808.000000	17.064600
807.000000	17.039300
806.000000	16.986800
805.000000	16.951600
804.000000	16.954300
803.000000	16.927800
802.000000	16.957100
801.000000	16.975900
800.000000	16.997000
799.000000	16.992500
798.000000	16.979400
797.000000	16.914400
796.000000	16.903900
795.000000	16.861600
794.000000	16.794500
793.000000	16.765900
792.000000	16.708800
791.000000	16.691800
790.000000	16.679500
789.000000	16.632700
788.000000	16.536300
787.000000	16.443400
786.000000	16.413000
785.000000	16.379200
784.000000	16.304900
783.000000	16.200200
782.000000	16.110500
781.000000	16.053600
780.000000	16.006600
779.000000	15.973000
778.000000	15.928000
777.000000	15.872700
776.000000	15.842200
775.000000	15.779400
774.000000	15.754300
773.000000	15.740000
772.000000	15.734000
771.000000	15.683700
770.000000	15.619900
769.000000	15.630700
768.000000	15.634800
767.000000	15.626400
766.000000	15.610600
765.000000	15.599900
764.000000	15.573500
763.000000	15.531200
762.000000	15.512300
761.000000	15.492300
760.000000	15.456400
759.000000	15.415400
758.000000	15.385900
757.000000	15.369200
756.000000	15.330900
755.000000	15.292000
754.000000	15.248000
753.000000	15.195000
752.000000	15.140400
751.000000	15.084700
750.000000	15.028100
749.000000	14.970700
748.000000	14.921200
747.000000	14.872000
746.000000	14.824300
745.000000	14.788200
744.000000	14.735500
743.000000	14.696000
742.000000	14.689200
741.000000	14.638400
740.000000	14.569000
739.000000	14.536900
738.000000	14.495400
737.000000	14.424600
736.000000	14.384800
735.000000	14.335400
734.000000	14.300800
733.000000	14.249500
732.000000	14.163200
731.000000	14.099400
730.000000	14.044700
729.000000	13.989800
728.000000	13.924400
727.000000	13.862200
726.000000	13.790000
725.000000	13.724600
724.000000	13.661300
723.000000	13.581300
722.000000	13.506300
721.000000	13.417300
720.000000	13.339800
719.000000	13.252000
718.000000	13.144600
717.000000	13.048300
716.000000	12.965800
715.000000	12.905200
714.000000	12.819500
713.000000	12.748200
712.000000	12.697000
711.000000	12.630500
710.000000	12.581600
709.000000	12.551400
708.000000	12.500500
707.000000	12.474400
706.000000	12.440500
705.000000	12.380300
704.000000	12.361300
703.000000	12.356300
702.000000	12.351100
701.000000	12.344800
700.000000	12.319200
699.000000	12.303900
698.000000	12.294000
697.000000	12.270700
696.000000	12.250600
695.000000	12.264800
694.000000	12.271300
693.000000	12.282100
692.000000	12.288400
691.000000	12.291300
690.000000	12.270600
689.000000	12.245400
688.000000	12.240500
687.000000	12.204600
686.000000	12.169200
685.000000	12.158100
684.000000	12.123900
683.000000	12.109900
682.000000	12.082600
681.000000	12.032500
680.000000	11.990100
679.000000	11.920200
678.000000	11.878000
677.000000	11.831200
676.000000	11.790400
675.000000	11.721100
674.000000	11.655200
673.000000	11.606500
672.000000	11.543200
671.000000	11.482400
670.000000	11.433200
669.000000	11.371200
668.000000	11.304700
667.000000	11.246700
666.000000	11.180700
665.000000	11.101000
664.000000	11.031600
663.000000	10.932400
662.000000	10.823700
661.000000	10.734800
660.000000	10.636400
659.000000	10.531200
658.000000	10.431700
657.000000	10.304000
656.000000	10.175100
655.000000	10.068000
654.000000	9.960700
653.000000	9.848800
652.000000	9.708000
651.000000	9.594100
650.000000	9.497700
649.000000	9.416300
648.000000	9.342700
647.000000	9.287300
646.000000	9.239100
645.000000	9.204700
644.000000	9.187500
643.000000	9.195100
642.000000	9.222600
641.000000	9.252700
640.000000	9.306500
639.000000	9.371700
638.000000	9.440100
637.000000	9.543400
636.000000	9.645500
635.000000	9.761600
634.000000	9.889100
633.000000	10.014100
632.000000	10.158100
631.000000	10.316200
630.000000	10.472400
629.000000	10.614500
628.000000	10.768300
627.000000	10.922300
626.000000	11.059700
625.000000	11.173200
624.000000	11.315200
623.000000	11.439000
622.000000	11.574600
621.000000	11.694000
620.000000	11.797500
619.000000	11.866400
618.000000	11.960800
617.000000	12.047300
616.000000	12.112800
615.000000	12.159500
614.000000	12.230400
613.000000	12.309700
612.000000	12.369200
611.000000	12.418900
610.000000	12.455100
609.000000	12.491600
608.000000	12.565000
607.000000	12.610300
606.000000	12.644900
605.000000	12.692600
604.000000	12.729000
603.000000	12.726500
602.000000	12.774400
601.000000	12.783600
600.000000	12.785100
599.000000	12.813300
598.000000	12.821700
597.000000	12.840800
596.000000	12.828000
595.000000	12.849800
594.000000	12.854000
593.000000	12.847700
592.000000	12.844800
591.000000	12.813700
590.000000	12.797500
589.000000	12.818000
588.000000	12.833600
587.000000	12.813700
586.000000	12.787200
585.000000	12.786700
584.000000	12.779100
583.000000	12.772100
582.000000	12.715800
581.000000	12.697000
580.000000	12.693100
579.000000	12.680500
578.000000	12.655000
577.000000	12.637000
576.000000	12.603600
575.000000	12.583400
574.000000	12.553000
573.000000	12.506900
572.000000	12.454800
571.000000	12.406300
570.000000	12.387700
569.000000	12.367200
568.000000	12.353700
567.000000	12.293600
566.000000	12.275500
565.000000	12.236800
564.000000	12.201800
563.000000	12.173100
562.000000	12.133900
561.000000	12.096600
560.000000	12.077500
559.000000	12.099400
558.000000	12.044000
557.000000	11.977500
556.000000	11.900700
555.000000	11.824500
554.000000	11.728000
553.000000	11.612300
552.000000	11.521800
551.000000	11.407600
550.000000	11.304500
549.000000	11.180900
548.000000	11.056900
547.000000	10.926400
546.000000	10.804400
545.000000	10.654800
544.000000	10.499900
543.000000	10.348400
542.000000	10.194100
541.000000	10.010500
540.000000	9.823200
539.000000	9.641600
538.000000	9.450700
537.000000	9.245200
536.000000	9.044600
535.000000	8.834400
534.000000	8.631800
533.000000	8.431100
532.000000	8.247400
531.000000	8.056000
530.000000	7.867700
529.000000	7.694500
528.000000	7.520100
527.000000	7.331000
526.000000	7.155400
525.000000	6.975500
524.000000	6.812500
523.000000	6.659500
522.000000	6.517800
521.000000	6.370000
520.000000	6.232600
519.000000	6.095700
518.000000	5.976800
517.000000	5.869700
516.000000	5.776400
515.000000	5.682500
514.000000	5.599100
513.000000	5.519800
512.000000	5.445600
511.000000	5.382300
510.000000	5.323700
509.000000	5.276200
508.000000	5.221900
507.000000	5.171400
506.000000	5.121600
505.000000	5.073500
504.000000	5.040400
503.000000	5.015800
502.000000	4.982000
501.000000	4.955700
500.000000	4.926500
499.000000	4.898500
498.000000	4.876300
497.000000	4.861200
496.000000	4.839400
495.000000	4.814000
494.000000	4.796000
493.000000	4.785200
492.000000	4.764300
491.000000	4.744200
490.000000	4.722500
489.000000	4.704200
488.000000	4.681700
487.000000	4.655000
486.000000	4.629500
485.000000	4.590200
484.000000	4.551300
483.000000	4.517300
482.000000	4.501400
481.000000	4.508900
480.000000	4.521300
479.000000	4.513600
478.000000	4.477900
477.000000	4.441800
476.000000	4.403600
475.000000	4.367100
474.000000	4.324900
473.000000	4.282300
472.000000	4.247500
471.000000	4.205800
470.000000	4.154600
469.000000	4.097900
468.000000	4.058800
467.000000	4.018400
466.000000	3.976100
465.000000	3.945100
464.000000	3.911200
463.000000	3.879200
462.000000	3.846100
461.000000	3.813600
460.000000	3.797600
459.000000	3.787100
458.000000	3.766300
457.000000	3.756300
456.000000	3.755200
455.000000	3.755000
454.000000	3.761800
453.000000	3.771900
452.000000	3.777100
451.000000	3.782100
450.000000	3.790400
449.000000	3.806600
448.000000	3.818800
447.000000	3.823100
446.000000	3.830200
445.000000	3.828600
444.000000	3.821800
443.000000	3.828800
442.000000	3.839800
441.000000	3.836700
440.000000	3.835600
439.000000	3.835900
438.000000	3.830600
437.000000	3.819600
436.000000	3.802200
435.000000	3.794600
434.000000	3.779100
433.000000	3.759100
432.000000	3.738100
431.000000	3.707800
430.000000	3.685000
429.000000	3.661700
428.000000	3.637500
427.000000	3.607000
426.000000	3.575700
425.000000	3.547700
424.000000	3.509800
423.000000	3.473100
422.000000	3.430100
421.000000	3.391200
420.000000	3.356500
419.000000	3.308100
418.000000	3.251100
417.000000	3.206500
416.000000	3.171500
415.000000	3.134100
414.000000	3.094000
413.000000	3.046600
412.000000	2.994600
411.000000	2.948100
410.000000	2.898500
409.000000	2.838700
408.000000	2.800300
407.000000	2.758500
406.000000	2.702200
405.000000	2.652200
404.000000	2.599000
403.000000	2.551300
402.000000	2.506500
401.000000	2.463800
400.000000	2.426600
399.000000	2.379400
398.000000	2.327300
397.000000	2.282700
396.000000	2.238700
395.000000	2.197800
394.000000	2.155900
393.000000	2.116000
392.000000	2.068400
391.000000	2.043400
390.000000	2.017300
389.000000	1.978000
388.000000	1.940100
387.000000	1.916300
386.000000	1.889600
385.000000	1.862800
384.000000	1.843900
383.000000	1.812400
382.000000	1.790800
381.000000	1.778100
380.000000	1.750600
379.000000	1.716700
378.000000	1.702300
377.000000	1.683600
376.000000	1.841600
375.000000	1.815800
374.000000	1.792400
373.000000	1.752100
372.000000	1.793800
371.000000	1.823900
370.000000	1.802900
369.000000	1.831800
368.000000	1.830100
367.000000	1.850100
366.000000	1.858200
365.000000	1.825100
364.000000	1.853000
363.000000	1.782300
362.000000	1.829900
361.000000	1.806400
360.000000	1.802800
359.000000	1.779200
358.000000	1.802300
357.000000	1.812000
356.000000	1.830500
355.000000	1.815200
354.000000	1.764500
353.000000	1.812800
352.000000	1.781200
351.000000	1.766800
350.000000	1.754200
349.000000	1.833700
348.000000	1.812600
347.000000	1.779800
346.000000	1.758000
345.000000	1.793600
344.000000	1.818800
343.000000	1.872400
342.000000	1.877300
341.000000	1.801400
340.000000	1.842100
339.000000	1.811100
338.000000	1.789800
337.000000	1.731500
336.000000	1.685500
335.000000	1.761300
334.000000	1.759500
333.000000	1.868600
332.000000	1.791200
331.000000	1.939200
330.000000	1.908100
329.000000	1.828600
328.000000	1.717100
327.000000	1.853900
326.000000	1.883500
325.000000	1.942300
324.000000	1.943000
323.000000	2.016500
322.000000	1.975700
321.000000	1.926700
320.000000	1.872300
319.000000	1.982100
318.000000	1.982600
317.000000	2.055500
316.000000	1.703100
315.000000	1.634100
314.000000	1.595700
313.000000	1.591400
312.000000	1.625800
311.000000	1.621300
310.000000	1.642100
309.000000	1.659600
308.000000	1.629200
307.000000	1.625400
306.000000	1.630800
305.000000	1.618500
304.000000	1.600700
303.000000	1.593900
302.000000	1.606100
301.000000	1.634700
300.000000	1.644900
299.000000	1.615800
298.000000	1.595500
297.000000	1.641800
296.000000	1.635900
295.000000	1.590200
294.000000	1.608000
293.000000	1.616900
292.000000	1.601900
291.000000	1.596900
290.000000	1.584400
289.000000	1.665700
288.000000	1.599200
287.000000	1.595200
286.000000	1.611900
285.000000	1.621300
284.000000	1.605200
283.000000	1.597300
282.000000	1.649100
281.000000	1.645000
280.000000	1.608400
279.000000	1.662700
278.000000	1.602700
277.000000	1.617400
276.000000	1.620200
275.000000	1.607500
274.000000	1.670400
273.000000	1.630200
272.000000	1.729300
271.000000	1.660000
270.000000	1.645400
269.000000	1.631000
268.000000	1.673300
267.000000	1.662500
266.000000	1.659700
265.000000	1.677000
264.000000	1.661400
263.000000	1.677400
262.000000	1.719000
261.000000	1.686300
260.000000	1.706300
259.000000	1.688700
258.000000	1.703000
257.000000	1.678800
256.000000	1.701300
255.000000	1.687300
254.000000	1.696700
253.000000	1.699100
252.000000	1.692700
251.000000	1.714300
250.000000	1.722200
