C.AURIGANS SIN MEDIO_T
Integration time [ms]:   8,000
Averaging Nr. [scans]: 10
Smoothing Nr. [pixels]: 0
Data measured with spectrometer [name]: 7314920SP
Wave   ;Sample   ;Dark     ;Reference;Reflectance
[nm]   ;[counts] ;[counts] ;[counts] ;[%]

 199,42;  102,970;   72,222;  210,244;22,27778
 200,02;  120,771;  102,008;  189,811;21,36878
 200,62;   76,357;   74,992;  115,875; 3,33861
 201,22;  119,191;   92,709;  193,470;26,28187
 201,82;  102,032;   64,025;  211,220;25,82041
 202,42;  125,897;   95,408;  188,025;32,91971
 203,03;   72,329;   55,806;  149,594;17,61823
 203,63;   91,835;   65,404;  161,149;27,60608
 204,23;  110,894;   81,415;  188,764;27,46055
 204,83;   94,688;   76,103;  162,076;21,61740
 205,43;   92,570;   65,122;  182,444;23,39565
 206,03;   88,015;   56,103;  131,590;42,27477
 206,63;   86,439;   81,096;  130,910;10,72449
 207,24;  118,020;   77,929;  242,810;24,31513
 207,84;   69,441;   57,902;  135,404;14,88867
 208,44;   65,191;   59,009;  153,170; 6,56515
 209,04;   54,912;   53,697;  112,596; 2,06348
 209,64;  106,529;   72,519;  200,426;26,58933
 210,24;   75,788;   50,503;  130,176;31,73614
 210,84;   79,265;   60,310;  167,756;17,64124
 211,44;   99,659;   86,511;  189,701;12,74091
 212,05;   87,112;   61,997;  128,496;37,76774
 212,65;   94,629;   75,406;  151,694;25,19895
 213,25;  112,097;   96,208;  175,325;20,08328
 213,85;  111,406;   84,098;  157,241;37,33489
 214,45;   77,288;   59,703;  144,876;20,64637
 215,05;   58,465;   46,810;  150,056;11,28841
 215,65;   74,238;   64,010;  156,742;11,02959
 216,25;   65,588;   47,903;  131,676;21,11077
 216,85;   55,318;   45,209;  131,084;11,77140
 217,45;   70,429;   61,406;  140,794;11,36669
 218,05;   96,479;   56,513;  170,560;35,04391
 218,66;   54,644;   35,109;  126,597;21,35292
 219,26;   52,735;   40,904;  108,649;17,46462
 219,86;   61,047;   30,415;  147,291;26,20902
 220,46;   99,006;   62,212;  165,774;35,52820
 221,06;   77,694;   50,415;  173,264;22,20497
 221,66;   80,414;   49,317;  185,122;22,89869
 222,26;   70,029;   47,619;  163,026;19,41788
 222,86;   87,650;   70,807;  163,753;18,12149
 223,46;   77,288;   54,503;  138,276;27,19866
 224,06;   98,520;   63,215;  169,877;33,10005
 224,66;   83,226;   59,613;  169,732;21,44304
 225,26;   86,085;   55,111;  162,715;28,78538
 225,86;   82,049;   43,521;  183,285;27,56704
 226,46;   84,424;   58,307;  160,639;25,52123
 227,06;   59,826;   30,313;  143,532;26,06706
 227,66;   67,133;   58,298;  114,355;15,76021
 228,27;   63,406;   40,012;  159,574;19,56612
 228,87;  113,653;   91,313;  208,446;19,07210
 229,47;   72,502;   37,020;  166,312;27,44369
 230,07;   41,985;   18,811;  112,215;24,81073
 230,67;   58,018;   40,209;  142,184;17,46380
 231,27;   58,406;   30,212;  143,374;24,91443
 231,87;   70,618;   40,109;  147,584;28,38681
 232,47;   89,673;   59,528;  218,437;18,96982
 233,07;   54,465;   37,496;  115,524;21,74757
 233,67;   81,929;   55,906;  155,694;26,07907
 234,27;   34,215;   20,103;  106,490;16,33579
 234,87;   58,847;   43,315;  164,991;12,76515
 235,47;   49,685;   20,211;  136,915;25,25554
 236,07;   53,300;   29,800;  113,786;27,98107
 236,67;   68,994;   59,802;  134,031;12,38413
 237,27;   70,417;   47,023;  174,316;18,37833
 237,87;   66,426;   44,213;  155,532;19,95424
 238,47;   54,671;   24,408;  124,611;30,20111
 239,07;   63,355;   26,119;  172,740;25,39640
 239,67;   84,728;   47,333;  213,158;22,55099
 240,27;   85,049;   43,621;  186,385;29,01907
 240,87;   84,990;   59,423;  199,102;18,30444
 241,47;   62,451;   48,693;   99,120;27,28182
 242,07;   61,477;   48,007;  129,466;16,53579
 242,67;   40,643;    5,722;  135,930;26,81971
 243,27;   45,788;   23,603;  102,476;28,12766
 243,87;   63,220;   50,915;  171,077;10,24057
 244,47;   65,094;   43,215;  154,464;19,66631
 245,07;   35,765;   13,110;  116,356;21,94253
 245,67;   57,029;   43,706;  124,694;16,45155
 246,27;   64,539;   36,296;  104,710;41,28161
 246,87;   45,950;   29,007;  121,153;18,38734
 247,46;   35,357;   12,792;   58,475;49,39401
 248,06;   46,679;   21,613;  126,060;23,99932
 248,66;   60,929;   43,719;  153,526;15,67256
 249,26;   44,800;   30,300;  102,586;20,05949
 249,86;   70,449;   44,721;  160,885;22,14869
 250,46;   47,946;    4,828;  172,023;25,78898
 251,06;   43,529;   30,406;  103,194;18,03014
 251,66;   44,873;   18,014;  130,305;23,91924
 252,26;   54,347;   40,501;  110,659;19,73614
 252,86;   53,865;   26,710;  135,356;24,99381
 253,46;   23,288;   -0,997;   71,476;33,50921
 254,06;   44,227;   46,300;  117,300;-2,91949
 254,66;   69,370;   43,622;  156,244;22,86253
 255,26;   74,223;   47,221;  183,271;19,84708
 255,86;   57,951;   53,693;   90,620;11,52922
 256,46;   48,759;   27,311;  117,701;23,72759
 257,05;   47,700;   24,314;  137,219;20,71300
 257,65;   75,747;   55,915;  159,191;19,20300
 258,25;   59,202;   44,920;  174,412;11,02970
 258,85;   47,865;   24,210;  114,956;26,06701
 259,45;   36,118;   13,309;  104,284;25,07142
 260,05;   59,088;   39,503;  115,376;25,81304
 260,65;   63,847;   49,901;  110,459;23,02996
 261,25;   61,520;   35,715;  144,777;23,66105
 261,85;   28,841;    3,916;  117,036;22,03382
 262,45;   85,065;   58,110;  146,656;30,44152
 263,04;   80,596;   54,121;  181,157;20,84062
 263,64;   61,409;   46,104;  120,435;20,58974
 264,24;   66,967;   50,116;  169,050;14,16880
 264,84;  101,485;   72,525;  200,347;22,65636
 265,44;   50,156;   27,105;  102,308;30,65160
 266,04;   67,980;   40,299;  110,528;39,41538
 266,64;   57,694;   46,002;  130,331;13,86547
 267,24;   54,794;   37,402;  107,331;24,87170
 267,84;   52,497;   35,308;  124,625;19,24526
 268,43;   60,003;   63,006;  136,180;-4,10406
 269,03;   63,644;   52,609;  143,797;12,10186
 269,63;   80,974;   71,300;  125,873;17,72584
 270,23;   28,233;   18,498;   87,355;14,13756
 270,83;   65,247;   57,001;  121,259;12,83339
 271,43;   54,382;   42,005;  112,221;17,62776
 272,03;   70,056;   66,705;  133,008; 5,05364
 272,62;   48,238;   31,410;  109,542;21,53782
 273,22;   33,653;   11,613;  120,746;20,19529
 273,82;   29,786;   23,684;   41,950;33,40910
 274,42;   37,524;   31,194;   62,506;20,21696
 275,02;   51,992;   37,396;   87,038;29,40261
 275,62;   68,602;   49,620;  176,012;15,01880
 276,21;   54,232;   22,012;  119,787;32,95342
 276,81;   62,341;   46,802;  100,904;28,72188
 277,41;   52,088;   34,617;  138,809;16,76801
 278,01;   40,892;   30,596;   62,038;32,74615
 278,61;   71,691;   53,409;  127,970;24,51935
 279,20;   80,049;   66,621;  179,185;11,92995
 279,80;   10,848;    2,887;   19,827;46,99562
 280,40;   61,700;   49,500;  111,686;19,61889
 281,00;   17,791;   -1,591;   79,870;23,79282
 281,60;   51,911;   24,024;  147,561;22,57371
 282,20;   55,459;   44,011;  129,701;13,35903
 282,79;   58,903;   32,006;  103,580;37,57921
 283,39;   28,374;   24,500;   69,873; 8,53689
 283,99;   26,665;   24,796;   62,724; 4,92818
 284,59;   30,312;   11,311;   95,329;22,61548
 285,19;   37,615;   27,803;   93,790;14,86959
 285,78;   37,559;   26,011;  114,401;13,06409
 286,38;   49,739;   46,196;   90,310; 8,02986
 286,98;   51,403;   42,206;  104,180;14,83996
 287,58;   31,294;   10,015;  106,264;22,10786
 288,17;   44,123;   30,221;  134,771;13,29695
 288,77;   55,514;   25,130;  160,455;22,45233
 289,37;   38,965;    7,610;  106,556;31,68874
 289,97;   56,565;   51,596;   89,824;12,99878
 290,57;   63,635;   40,218;  142,281;22,94368
 291,16;   79,556;   62,005;  153,508;19,18061
 291,76;   36,853;    9,813;  111,846;26,50094
 292,36;   48,235;   34,804;   91,949;23,50412
 292,96;   28,776;   12,920;  112,799;15,87505
 293,55;   47,341;   24,302;   95,904;32,17666
 294,15;   44,132;   21,012;  117,487;23,96504
 294,75;   50,639;   46,296;   87,510;10,53598
 295,35;   29,656;   30,905;   87,208;-2,21895
 295,94;   64,668;   47,602;  101,718;31,53590
 296,54;   51,124;   20,307;  102,039;37,70426
 297,14;   48,214;   35,817;  149,522;10,90336
 297,73;   27,359;   23,498;   65,969; 9,09227
 298,33;   46,127;   41,300;   94,600; 9,05648
 298,93;   46,350;   47,607;  131,952;-1,49015
 299,53;   41,982;   21,519;  133,654;18,24881
 300,12;   21,814;    5,217;  115,922;14,99267
 300,72;   67,009;   58,004;  131,835;12,19613
 301,32;   62,747;   37,415;  153,391;21,84252
 301,92;   19,598;   15,294;   52,693;11,50739
 302,51;   49,962;   22,804;   94,763;37,74135
 303,11;   33,715;   21,403;   92,290;17,36848
 303,71;   48,471;   25,908;  111,711;26,29561
 304,30;   26,453;   24,399;   89,214; 3,16909
 304,90;   24,527;   22,400;   83,400; 3,48710
 305,50;   49,533;   35,598;   93,655;24,00174
 306,09;   44,700;   27,100;  107,186;21,97662
 306,69;   64,067;   37,316;  149,950;23,75083
 307,29;   41,213;   40,383;   43,764;24,53911
 307,88;   66,112;   51,611;  142,529;15,94963
 308,48;   29,206;    7,612;  111,974;20,69110
 309,08;    3,210;    6,391;   47,803;-7,68201
 309,68;   28,059;   25,198;   76,769; 5,54882
 310,27;   28,338;    3,310;  109,342;23,60412
 310,87;   46,024;   40,507;  113,439; 7,56358
 311,47;   60,588;   52,803;  134,376; 9,54375
 312,06;   47,186;   54,797;   99,183;-17,14871
 312,66;   70,956;   58,605;  130,408;17,20097
 313,26;   62,373;   57,714;  154,805; 4,79871
 313,85;   48,815;   48,603;  102,090; 0,39640
 314,45;   56,991;   43,309;  124,070;16,94115
 315,04;   64,586;   52,497;  102,883;23,99206
 315,64;   37,909;   32,204;   92,535; 9,45535
 316,24;   52,306;   45,412;  136,874; 7,53710
 316,83;   56,300;   44,800;  109,286;17,83365
 317,43;   48,982;   34,805;  112,521;18,24271
 318,03;   54,204;   46,992;  105,248;12,37857
 318,62;   85,001;   83,886;  116,254; 3,44331
 319,22;   38,097;   23,508;  114,325;16,06450
 319,82;   61,956;   41,505;  135,108;21,84850
 320,41;   73,671;   50,808;  152,511;22,47960
 321,01;  103,133;   87,098;  148,755;26,00628
 321,60;   81,224;   75,494;  138,706; 9,06541
 322,20;   86,970;   57,422;  215,744;18,66337
 322,80;   69,509;   51,404;  154,635;17,53790
 323,39;   67,818;   51,895;  113,651;25,78356
 323,99;   71,347;   62,501;  142,359;11,07777
 324,59;   78,304;   68,792;  121,248;18,13195
 325,18;   73,262;   47,504;  158,863;23,13084
 325,78;   82,859;   66,698;  150,369;19,31560
 326,37;   83,429;   65,706;  177,794;15,81238
 326,97;   78,009;   72,204;  176,935; 5,54228
 327,57;   49,357;   49,692;  114,875;-0,51401
 328,16;   73,451;   66,793;  136,120; 9,60288
 328,76;   74,968;   65,802;  159,418; 9,79091
 329,35;   86,247;   70,715;  202,591;11,77783
 329,95;   64,659;   46,311;  172,301;14,56254
 330,54;   70,388;   57,403;  166,676;11,88320
 331,14;   47,541;   37,202;  149,004; 9,24757
 331,74;   72,633;   65,898;  158,355; 7,28415
 332,33;   62,406;   36,712;  182,074;17,67562
 332,93;   61,898;   48,294;  153,293;12,95599
 333,52;   69,774;   51,300;  173,173;15,15799
 334,12;   96,944;   76,609;  216,397;14,54733
 334,71;   68,800;   55,600;  177,586;10,82110
 335,31;   86,715;   68,403;  194,790;14,48883
 335,90;   46,216;   38,089;  116,458;10,36933
 336,50;   48,839;   31,796;  151,710;14,21211
 337,10;   71,038;   43,110;  224,742;15,37611
 337,69;   64,139;   58,596;  164,910; 5,21313
 338,29;   67,235;   38,604;  183,549;19,75330
 338,88;   49,550;   36,207;  199,452; 8,17365
 339,48;   67,842;   69,289;  185,372;-1,24637
 340,07;   75,821;   51,901;  214,445;14,71578
 340,67;   65,247;   44,015;  244,991;10,56451
 341,26;   71,100;   52,500;  219,286;11,15215
 341,86;   86,785;   73,011;  274,415; 6,83910
 342,45;   78,812;   51,411;  255,729;13,41100
 343,05;   70,612;   41,711;  268,829;12,72514
 343,64;   84,894;   62,602;  262,431;11,15585
 344,24;   55,839;   33,096;  233,710;11,33635
 344,83;   76,665;   72,396;  265,724; 2,20824
 345,43;   54,768;   42,302;  272,018; 5,42663
 346,02;   68,318;   43,109;  299,884; 9,81743
 346,62;   81,873;   49,414;  334,805;11,37356
 347,21;   73,759;   56,098;  304,069; 7,12244
 347,81;   65,435;   33,118;  351,481;10,15101
 348,40;   51,451;   34,893;  282,320; 6,69183
 349,00;   65,004;   60,892;  331,448; 1,51953
 349,59;  109,253;   71,813;  420,746;10,72978
 350,19;   76,573;   44,914;  383,305; 9,35578
 350,78;   71,715;   51,303;  373,790; 6,32956
 351,38;   46,418;   30,009;  377,584; 4,72090
 351,97;   57,468;   42,702;  406,118; 4,06307
 352,57;   65,706;   52,312;  422,774; 3,61537
 353,16;   52,018;   39,295;  383,751; 3,69363
 353,76;   73,653;   46,613;  467,346; 6,42682
 354,35;   68,985;   17,411;  484,915;11,03182
 354,95;   69,132;   51,712;  515,687; 3,75460
 355,54;   82,897;   38,008;  504,925; 9,61398
 356,14;   72,985;   42,611;  534,915; 6,16981
 356,73;   57,142;   52,589;  490,871; 1,03887
 357,32;   51,271;   26,908;  533,411; 4,80993
 357,92;   73,608;   36,718;  583,967; 6,74102
 358,51;  100,582;   51,519;  631,554; 8,45868
 359,11;   76,635;   47,018;  646,981; 4,93648
 359,70;   63,800;   30,014;  629,419; 5,63659
 360,30;   79,048;   58,187;  603,727; 3,82387
 360,89;   58,950;   25,007;  639,453; 5,52419
 361,48;   93,332;   54,112;  712,987; 5,95263
 362,08;   67,882;   25,005;  677,021; 6,57615
 362,67;   69,957;   33,892;  669,375; 5,67520
 363,27;   97,562;   64,804;  752,763; 4,76166
 363,86;   84,033;   36,998;  746,555; 6,62874
 364,46;   92,051;   56,393;  812,720; 4,71455
 365,05;   95,604;   75,379;  800,115; 2,79073
 365,64;  102,119;   53,582;  858,719; 6,02844
 366,24;  109,963;   39,876;  899,498; 8,15321
 366,83;  129,319;   64,668; 1001,887; 6,89822
 367,43;  127,485;   69,837; 1018,860; 6,07455
 368,02;  157,168;   44,141; 1136,095;10,35083
 368,61;  193,351;   63,919; 1250,365;10,90923
 369,21;  154,292;   44,061; 1249,760; 9,14251
 369,80;  201,708;   59,322; 1383,066;10,75629
 370,39;  238,020;   60,519; 1588,676;11,61535
 370,99;  231,684;   42,468; 1618,624;12,00490
 371,58;  238,551;   33,423; 1699,364;12,31302
 372,18;  258,687;   38,200; 1809,762;12,44592
 372,77;  254,445;   50,550; 1827,654;11,47343
 373,36;  269,901;   52,342; 1852,343;12,08663
 373,96;  236,900;   53,009; 1748,685;10,84472
 374,55;  234,205;   39,534; 1728,804;11,52393
 375,14;  207,572;   37,250; 1608,468;10,84010
 375,74;  210,235;   73,973; 1533,970; 9,33303
 376,33;  156,105;   50,595; 1398,327; 7,82870
 376,92;  134,430;   41,936; 1361,138; 7,01136
 377,52;  213,070;   93,712; 1534,810; 8,28243
 378,11;  165,829;   61,010; 1438,393; 7,61003
 378,71;  210,508;   79,636; 1530,799; 9,01838
 379,30;  195,969;   57,953; 1617,807; 8,84795
 379,89;  194,937;   56,742; 1639,606; 8,73069
 380,49;  188,010;   31,556; 1680,725; 9,48683
 381,08;  215,467;   81,520; 1641,749; 8,58509
 381,67;  199,970;   58,726; 1650,543; 8,87311
 382,26;  181,967;   44,520; 1663,849; 8,48790
 382,86;  183,623;   51,912; 1684,538; 8,06748
 383,45;  180,769;   63,740; 1765,375; 6,87747
 384,04;  181,822;   52,739; 1794,203; 7,41234
 384,64;  179,078;   47,044; 1831,224; 7,40025
 385,23;  185,914;   71,621; 1827,321; 6,50984
 385,82;  194,860;   55,649; 1889,958; 7,58928
 386,42;  228,391;   67,274; 1996,892; 8,34968
 387,01;  192,631;   67,543; 1922,351; 6,74396
 387,60;  197,911;   76,228; 1970,060; 6,42519
 388,20;  161,869;   48,340; 2018,675; 5,76193
 388,79;  225,530;   83,357; 2123,583; 6,96850
 389,38;  158,867;   54,020; 2028,549; 5,30998
 389,97;  193,613;   58,048; 2147,386; 6,48841
 390,57;  204,898;   74,645; 2194,082; 6,14564
 391,16;  204,598;   77,945; 2258,282; 5,80887
 391,75;  188,210;   56,642; 2278,892; 5,92049
 392,34;  208,627;   65,865; 2381,022; 6,16642
 392,94;  187,277;   55,558; 2418,156; 5,57519
 393,53;  164,554;   38,151; 2418,703; 5,30983
 394,12;  198,877;   61,871; 2581,588; 5,43732
 394,72;  192,884;   73,643; 2576,379; 4,76443
 395,31;  188,860;   50,649; 2629,658; 5,35907
 395,90;  191,565;   41,475; 2732,778; 5,57685
 396,49;  215,550;   59,286; 2807,207; 5,68662
 397,09;  194,842;   56,254; 2772,993; 5,10127
 397,68;  215,459;   64,576; 2914,023; 5,29515
 398,27;  214,988;   63,382; 3016,531; 5,13371
 398,86;  196,053;   53,778; 3036,468; 4,77002
 399,45;  229,593;   61,894; 3185,318; 5,36908
 400,05;  183,039;   47,961; 3091,132; 4,43871
 400,64;  213,924;   67,859; 3225,428; 4,62589
 401,23;  210,533;   55,563; 3253,277; 4,84627
 401,82;  223,133;   63,863; 3288,777; 4,93873
 402,42;  206,400;   66,665; 3369,608; 4,23063
 403,01;  247,759;   77,976; 3502,223; 4,95824
 403,60;  233,281;   73,197; 3538,808; 4,61922
 404,19;  243,712;   80,976; 3582,651; 4,64738
 404,78;  222,989;   68,668; 3550,598; 4,43203
 405,38;  244,749;   77,499; 3734,039; 4,57399
 405,97;  223,241;   55,281; 3700,958; 4,60709
 406,56;  252,270;   76,387; 3843,565; 4,66883
 407,15;  231,658;   68,690; 3813,955; 4,35131
 407,74;  252,173;   86,793; 3924,359; 4,30950
 408,34;  237,696;   59,000; 3935,712; 4,60947
 408,93;  233,661;   64,696; 4017,449; 4,27461
 409,52;  247,893;   55,908; 4063,050; 4,79107
 410,11;  269,208;   90,297; 4169,222; 4,38623
 410,70;  233,808;   58,983; 4135,689; 4,28839
 411,29;  248,423;   65,186; 4164,293; 4,47017
 411,89;  257,113;   71,609; 4289,809; 4,39771
 412,48;  233,497;   55,186; 4249,779; 4,25095
 413,07;  249,011;   66,503; 4362,416; 4,24840
 413,66;  256,966;   69,808; 4401,236; 4,32093
 414,25;  259,469;   80,814; 4542,030; 4,00462
 414,84;  251,961;   72,596; 4521,849; 4,03135
 415,44;  270,526;   92,492; 4528,687; 4,01321
 416,03;  252,975;   72,912; 4620,185; 3,95979
 416,62;  272,357;   78,017; 4684,620; 4,21872
 417,21;  261,178;   74,205; 4680,046; 4,05948
 417,80;  285,642;   82,814; 4723,417; 4,37072
 418,39;  267,239;   83,422; 4766,355; 3,92525
 418,98;  252,584;   59,003; 4695,202; 4,17542
 419,58;  252,690;   70,002; 4754,557; 3,89980
 420,17;  251,746;   54,107; 4792,378; 4,17112
 420,76;  278,375;   82,012; 4871,985; 4,09944
 421,35;  251,787;   66,309; 4790,295; 3,92629
 421,94;  280,039;   87,322; 4907,955; 3,99775
 422,53;  266,086;   66,423; 4867,228; 4,15895
 423,12;  261,577;   78,819; 4876,579; 3,80926
 423,71;  254,813;   59,809; 4856,909; 4,06505
 424,30;  269,654;   91,611; 4912,926; 3,69283
 424,90;  224,136;   44,016; 4917,061; 3,69626
 425,49;  265,366;   83,922; 4948,069; 3,73023
 426,08;  266,366;   92,422; 5032,169; 3,52131
 426,67;  233,260;   56,110; 4951,881; 3,61844
 427,26;  270,309;   70,530; 5041,180; 4,01918
 427,85;  255,310;   69,216; 5000,047; 3,77408
 428,44;  270,542;   70,628; 5078,549; 3,99195
 429,03;  291,748;   83,027; 5133,804; 4,13246
 429,62;  268,974;   84,326; 5156,817; 3,64018
 430,21;  293,624;   89,633; 5174,883; 4,01142
 430,80;  274,980;   64,238; 5194,005; 4,10821
 431,39;  252,271;   65,134; 5275,956; 3,59132
 431,99;  271,213;   85,909; 5201,209; 3,62255
 432,58;  276,477;   86,919; 5228,879; 3,68651
 433,17;  261,066;   80,608; 5265,236; 3,48064
 433,76;  282,609;   80,944; 5403,812; 3,78865
 434,35;  276,633;   94,637; 5427,532; 3,41269
 434,94;  284,364;   87,749; 5528,633; 3,61366
 435,53;  283,030;   85,131; 5489,938; 3,66153
 436,12;  268,697;   77,833; 5530,870; 3,50014
 436,71;  283,433;   95,824; 5567,900; 3,42849
 437,30;  279,227;   92,125; 5645,645; 3,36907
 437,89;  272,259;   86,337; 5750,746; 3,28228
 438,48;  270,736;   80,830; 5726,994; 3,36345
 439,07;  269,930;   89,118; 5756,006; 3,19069
 439,66;  305,976;  106,846; 5907,443; 3,43293
 440,25;  289,797;  102,533; 5933,270; 3,21167
 440,84;  307,732;  100,151; 5953,765; 3,54620
 441,43;  306,452;   81,466; 6120,255; 3,72568
 442,02;  287,426;   70,653; 6098,910; 3,59595
 442,61;  300,371;  102,834; 6151,956; 3,26555
 443,20;  329,358;   85,351; 6266,378; 3,94769
 443,79;  282,168;   81,541; 6234,795; 3,26049
 444,38;  296,797;   97,347; 6409,602; 3,15972
 444,97;  308,500;   78,439; 6464,563; 3,60251
 445,56;  323,821;  109,241; 6579,222; 3,31655
 446,15;  310,941;   88,455; 6706,313; 3,36189
 446,74;  274,144;   69,334; 6742,643; 3,06910
 447,33;  313,568;   95,241; 6883,895; 3,21605
 447,92;  307,493;   84,855; 6996,541; 3,22119
 448,51;  306,674;  100,340; 7059,750; 2,96482
 449,10;  324,953;   94,139; 7198,291; 3,24901
 449,69;  309,373;   87,253; 7331,782; 3,06603
 450,28;  321,703;   81,345; 7420,757; 3,27489
 450,87;  329,156;   82,645; 7551,885; 3,30035
 451,46;  329,844;  109,948; 7689,475; 2,90118
 452,05;  329,932;   83,751; 7799,165; 3,19077
 452,64;  322,499;   79,053; 7949,396; 3,09321
 453,23;  373,808;  121,857; 8107,044; 3,15522
 453,82;  343,720;   84,154; 8243,854; 3,18107
 454,40;  339,999;   65,153; 8384,695; 3,30362
 454,99;  366,717;  106,662; 8574,793; 3,07098
 455,58;  342,362;   87,043; 8649,739; 2,98176
 456,17;  350,676;   80,659; 8846,976; 3,08016
 456,76;  344,894;   76,455; 9034,841; 2,99651
 457,35;  361,697;   81,647; 9159,302; 3,08505
 457,94;  362,311;   81,464; 9376,038; 3,02163
 458,53;  349,746;   61,254; 9526,168; 3,04802
 459,12;  399,349;  102,874; 9854,294; 3,04033
 459,71;  354,750;   74,246; 9828,729; 2,87564
 460,30;  378,676;   87,146;10047,144; 2,92701
 460,89;  367,194;   73,955;10215,141; 2,89156
 461,48;  379,411;   79,164;10399,538; 2,90927
 462,06;  367,879;   79,052;10532,938; 2,76287
 462,65;  367,291;   50,349;10614,747; 3,00010
 463,24;  405,887;   97,770;10972,218; 2,83340
 463,83;  369,679;   68,452;11002,037; 2,75506
 464,42;  415,564;   85,649;11187,634; 2,97168
 465,01;  389,799;   73,753;11387,596; 2,79345
 465,60;  402,926;   78,553;11587,810; 2,81837
 466,19;  433,111;   85,064;11761,938; 2,98065
 466,77;  422,841;   85,955;11897,913; 2,85207
 467,36;  425,975;   69,673;12026,008; 2,98003
 467,95;  420,414;   80,156;12155,399; 2,81782
 468,54;  432,305;   89,865;12369,683; 2,78864
 469,13;  428,035;   81,657;12434,158; 2,80411
 469,72;  420,146;   74,968;12666,501; 2,74135
 470,31;  442,993;   85,968;12844,173; 2,79839
 470,90;  436,605;   80,951;12953,451; 2,76290
 471,48;  422,022;   39,174;13142,381; 2,92179
 472,07;  477,835;  121,143;13334,026; 2,69958
 472,66;  450,196;   88,761;13472,034; 2,70065
 473,25;  441,841;   72,055;13588,813; 2,73575
 473,84;  449,325;   61,866;13773,542; 2,82576
 474,43;  457,278;   54,279;14038,502; 2,88181
 475,01;  480,178;   80,066;14139,770; 2,84581
 475,60;  477,772;   49,967;14305,914; 3,00089
 476,19;  493,763;   93,176;14422,298; 2,79561
 476,78;  483,475;   82,173;14542,208; 2,77525
 477,37;  466,572;   58,867;14636,614; 2,79676
 477,95;  491,340;   82,169;14810,445; 2,77813
 478,54;  475,517;   76,062;14981,894; 2,67986
 479,13;  473,917;   63,162;15125,093; 2,72711
 479,72;  503,258;   76,964;15232,811; 2,81273
 480,31;  490,625;   75,880;15418,174; 2,70328
 480,89;  484,978;   70,066;15522,369; 2,68512
 481,48;  492,339;   55,283;15600,078; 2,81159
 482,07;  493,405;   57,765;15750,783; 2,77601
 482,66;  488,490;   68,962;15832,380; 2,66140
 483,25;  530,939;   84,683;15929,778; 2,81637
 483,83;  506,952;   68,466;16050,655; 2,74359
 484,42;  494,611;   63,364;16126,138; 2,68476
 485,01;  519,916;   70,776;16307,025; 2,76628
 485,60;  533,124;   77,194;16445,707; 2,78541
 486,18;  510,540;   67,069;16479,246; 2,70208
 486,77;  519,708;   74,057;16525,145; 2,70894
 487,36;  556,398;   72,094;16711,293; 2,91062
 487,95;  545,507;   70,785;16813,010; 2,83548
 488,53;  541,833;   71,684;16801,322; 2,81028
 489,12;  526,930;   62,692;16952,961; 2,74855
 489,71;  501,495;   39,888;16938,100; 2,73169
 490,30;  545,986;   69,484;17113,451; 2,79573
 490,88;  569,780;   89,585;17127,195; 2,81844
 491,47;  551,704;   69,492;17224,348; 2,81093
 492,06;  536,336;   65,090;17261,617; 2,74035
 492,65;  544,227;   77,986;17233,469; 2,71774
 493,23;  542,966;   68,382;17320,291; 2,75090
 493,82;  544,743;   69,661;17342,307; 2,75049
 494,41;  543,274;   58,487;17437,141; 2,78956
 494,99;  559,925;   84,866;17518,842; 2,72490
 495,58;  569,086;   84,284;17554,650; 2,77500
 496,17;  533,087;   72,370;17509,719; 2,64213
 496,76;  552,740;   93,469;17612,945; 2,62149
 497,34;  561,196;   64,574;17624,666; 2,82812
 497,93;  568,922;   65,474;17590,080; 2,87281
 498,52;  568,172;   75,281;17695,846; 2,79725
 499,10;  577,169;   93,088;17745,086; 2,74235
 499,69;  568,119;   72,282;17776,318; 2,80070
 500,28;  545,125;   45,880;17695,674; 2,82862
 500,86;  565,748;   78,487;17817,127; 2,74689
 501,45;  553,248;   62,587;17787,127; 2,76826
 502,04;  558,895;   74,588;17819,199; 2,72932
 502,62;  583,887;   80,870;17980,617; 2,81019
 503,21;  577,334;   73,771;17892,291; 2,82607
 503,80;  588,842;   80,889;18049,971; 2,82682
 504,38;  567,966;   66,782;18081,592; 2,78206
 504,97;  597,642;   63,789;18149,771; 2,95175
 505,56;  596,604;   86,979;18184,016; 2,81607
 506,14;  600,671;   78,294;18216,379; 2,88000
 506,73;  560,039;   38,396;18106,211; 2,88714
 507,32;  613,333;   77,098;18168,154; 2,96409
 507,90;  620,739;   84,283;18161,578; 2,96757
 508,49;  613,112;   59,197;18255,996; 3,04403
 509,08;  622,851;   77,493;18383,420; 2,97913
 509,66;  633,013;   85,583;18346,564; 2,99781
 510,25;  611,754;   68,886;18430,381; 2,95656
 510,83;  626,039;   75,296;18536,609; 2,98322
 511,42;  668,424;   72,807;18572,838; 3,21954
 512,01;  628,318;   60,695;18642,652; 3,05470
 512,59;  646,142;   62,589;18756,072; 3,12169
 513,18;  667,674;   74,787;18718,840; 3,18004
 513,77;  651,202;   53,173;18818,521; 3,18688
 514,35;  679,263;   48,290;18820,730; 3,36116
 514,94;  713,368;   84,088;18969,385; 3,33212
 515,52;  726,100;   53,000;18990,287; 3,55436
 516,11;  785,565;   92,196;19062,123; 3,65510
 516,69;  787,398;   51,880;18975,660; 3,88674
 517,28;  866,390;  102,676;18976,813; 4,04635
 517,87;  891,643;   69,975;18977,738; 4,34566
 518,45;  983,737;   66,277;19035,684; 4,83652
 519,04; 1098,657;   60,478;19057,742; 5,46489
 519,62; 1226,436;   53,390;19135,617; 6,14732
 520,21; 1360,074;   41,900;19184,572; 6,88605
 520,79; 1584,630;   57,406;19303,594; 7,93520
 521,38; 1768,060;   58,784;19330,137; 8,86952
 521,97; 1992,450;   54,407;19542,053; 9,94498
 522,55; 2204,231;   65,078;19568,729;10,96796
 523,14; 2447,204;   34,679;19635,314;12,30840
 523,72; 2699,933;   79,184;19741,822;13,32857
 524,31; 2920,139;   73,996;19769,811;14,45049
 524,89; 3161,156;   55,805;20040,607;15,53856
 525,48; 3360,194;   53,902;20077,531;16,51195
 526,06; 3522,918;   75,395;20128,451;17,19201
 526,65; 3711,826;   73,913;20367,232;17,92665
 527,23; 3827,789;   49,890;20330,645;18,62800
 527,82; 3988,462;   51,304;20600,063;19,16008
 528,41; 4084,521;   68,401;20707,045;19,45922
 528,99; 4170,412;   59,097;20783,096;19,83843
 529,58; 4247,715;   47,789;20840,559;20,19897
 530,16; 4368,074;   56,887;21053,141;20,53313
 530,75; 4487,945;   76,995;21260,465;20,82260
 531,33; 4481,294;   49,602;21294,031;20,86049
 531,92; 4517,413;   56,183;21466,564;20,83676
 532,50; 4651,332;  104,412;21786,588;20,97077
 533,09; 4699,306;   83,598;21850,541;21,20513
 533,67; 4714,984;   78,678;22009,957;21,14015
 534,26; 4791,892;   70,982;22162,506;21,36978
 534,84; 4885,027;   66,086;22364,168;21,61146
 535,42; 4865,445;   63,895;22625,564;21,28189
 536,01; 4983,336;   83,690;22830,316;21,54010
 536,59; 5039,674;   54,600;22982,172;21,74270
 537,18; 5105,419;   80,682;23112,119;21,81686
 537,76; 5188,062;   66,517;23531,195;21,82661
 538,35; 5261,876;   75,907;23692,867;21,95867
 538,93; 5328,718;   89,595;23721,951;22,16928
 539,52; 5363,426;   70,313;24095,432;22,03158
 540,10; 5496,438;   75,810;24403,342;22,28187
 540,69; 5540,077;   91,093;24507,135;22,31723
 541,27; 5602,968;   82,888;24822,186;22,31300
 541,85; 5692,027;   59,400;25106,500;22,48814
 542,44; 5743,540;   67,483;25112,178;22,66371
 543,02; 5863,038;   92,310;25576,242;22,64457
 543,61; 5906,289;   96,503;25801,377;22,60188
 544,19; 5951,153;   68,999;26045,113;22,64447
 544,78; 5995,547;   69,301;26190,260;22,68771
 545,36; 6111,991;  100,009;26530,770;22,74616
 545,94; 6116,445;   66,795;26660,564;22,74837
 546,53; 6157,415;   73,917;26816,822;22,74808
 547,11; 6255,197;  105,408;27133,426;22,75339
 547,70; 6265,619;   93,082;27194,020;22,77610
 548,28; 6324,912;   45,797;27442,697;22,91907
 548,86; 6408,312;   87,897;27794,797;22,81170
 549,45; 6380,250;   46,507;27921,453;22,72199
 550,03; 6483,735;   76,004;28138,549;22,83375
 550,62; 6590,800;   70,000;28556,387;22,89093
 551,20; 6673,488;   79,903;28837,176;22,92841
 551,78; 6712,498;   71,094;28870,492;23,06091
 552,37; 6775,345;   58,995;29194,064;23,05246
 552,95; 6866,765;   59,696;29443,123;23,16636
 553,54; 6912,139;   55,296;29695,211;23,13381
 554,12; 7076,709;   74,404;29911,135;23,46874
 554,70; 7117,297;   90,408;30498,525;23,10860
 555,29; 7191,859;   74,598;30497,770;23,39421
 555,87; 7251,379;   61,613;30831,760;23,36605
 556,45; 7352,995;   62,488;31186,799;23,42383
 557,04; 7417,642;   58,902;31462,805;23,43256
 557,62; 7576,042;   63,202;31739,805;23,71731
 558,20; 7626,088;   48,717;32057,809;23,67256
 558,79; 7755,529;  104,406;32384,094;23,70259
 559,37; 7780,988;   53,403;32421,775;23,87388
 559,95; 7853,244;   58,009;32974,496;23,68186
 560,54; 7971,724;   76,907;33105,141;23,90324
 561,12; 7996,447;   61,901;33310,559;23,86426
 561,70; 8107,718;   57,109;33693,484;23,93423
 562,29; 8208,177;   74,007;34096,867;23,90796
 562,87; 8247,750;   81,807;34555,254;23,68763
 563,45; 8431,950;   82,507;34828,051;24,03026
 564,04; 8411,589;   58,590;34728,145;24,09318
 564,62; 8491,471;   63,108;35171,711;24,00655
 565,20; 8577,948;   62,387;35393,527;24,10214
 565,78; 8687,286;   81,397;35845,984;24,06260
 566,37; 8758,727;   67,400;36021,801;24,17319
 566,95; 8802,038;   73,010;36297,043;24,09734
 567,53; 8869,595;   77,488;36631,398;24,05244
 568,12; 8936,513;   61,697;36731,496;24,20198
 568,70; 9055,592;   88,396;37224,637;24,14675
 569,28; 9118,317;   72,909;37518,684;24,15602
 569,86; 9133,415;   69,103;37728,289;24,06933
 570,45; 9220,812;   75,011;38155,730;24,01688
 571,03; 9282,121;   53,588;38139,211;24,23102
 571,61; 9462,673;   57,514;38657,105;24,36595
 572,19; 9362,109;   59,991;38611,504;24,12906
 572,78; 9473,930;   75,906;39057,594;24,10882
 573,36; 9532,944;   86,495;39295,066;24,09282
 573,94; 9575,197;   61,294;39533,691;24,10267
 574,52; 9637,325;   76,080;39699,473;24,13030
 575,11; 9594,351;   48,093;39929,320;23,93672
 575,69; 9656,494;   64,102;40206,430;23,89595
 576,27; 9704,407;   59,785;40348,609;23,93870
 576,85; 9737,145;   40,795;40698,863;23,84853
 577,44; 9683,095;   48,888;40863,898;23,60457
 578,02; 9688,271;   49,881;40926,648;23,57914
 578,60; 9702,124;   62,994;41257,508;23,39906
 579,18; 9700,530;   62,292;41632,262;23,18558
 579,76; 9635,019;   50,795;41594,051;23,07047
 580,35; 9635,858;   68,111;41928,703;22,85622
 580,93; 9720,582;   76,905;42284,422;22,84825
 581,51; 9747,933;   37,412;42435,488;22,90321
 582,09; 9853,862;   66,590;42631,930;22,99353
 582,67; 9983,589;   72,803;42942,875;23,11819
 583,26;10230,224;   35,007;43231,340;23,60204
 583,84;10369,671;   39,694;43499,578;23,76899
 584,42;10568,392;   68,796;43810,539;24,00361
 585,00;10747,395;   81,602;44189,230;24,18129
 585,58;10815,541;   37,302;44473,902;24,25532
 586,17;10906,533;   64,784;44458,621;24,42174
 586,75;10924,174;   19,300;44482,672;24,52552
 587,33;11095,762;   63,604;44897,063;24,60698
 587,91;11164,574;   91,000;45095,574;24,60544
 588,49;11208,495;   80,188;45246,199;24,63868
 589,07;11199,156;   60,505;45233,109;24,65798
 589,65;11067,868;   46,902;45181,918;24,41777
 590,24;11043,821;   58,588;45293,613;24,28480
 590,82;10964,428;   35,086;45274,168;24,15907
 591,40;10856,571;   58,994;45434,578;23,79601
 591,98;10757,099;   54,580;45384,961;23,61003
 592,56;10641,527;   72,486;45642,168;23,19314
 593,14;10516,898;   45,880;45612,262;22,97970
 593,72;10412,039;   50,996;45797,711;22,64871
 594,30;10368,972;   52,581;45818,848;22,54147
 594,89;10372,218;   57,095;45617,051;22,64077
 595,47;10502,434;   52,484;45796,723;22,84430
 596,05;10639,741;   39,602;45930,805;23,09841
 596,63;10778,642;   54,302;46063,105;23,30932
 597,21;10920,801;   55,000;46049,988;23,62388
 597,79;11074,568;   45,002;46159,816;23,91762
 598,37;11250,985;   52,411;46221,414;24,25561
 598,95;11409,874;   53,800;46273,074;24,57000
 599,53;11379,002;   46,873;46082,320;24,61609
 600,11;11580,465;   57,096;46384,324;24,87386
 600,70;11505,903;   80,192;46052,746;24,85333
 601,28;11539,371;   45,494;46162,879;24,92309
 601,86;11555,574;   68,300;46300,273;24,84703
 602,44;11524,627;   36,486;46388,270;24,78468
 603,02;11486,014;   39,570;46382,832;24,69926
 603,60;11481,263;   66,176;46730,398;24,46218
 604,18;11274,283;   66,491;46584,891;24,09325
 604,76;11080,162;   58,790;46600,031;23,68087
 605,34;10792,080;   36,599;46312,227;23,24222
 605,92;10478,401;   62,486;46220,855;22,56560
 606,50;10280,722;   37,188;46309,914;22,13730
 607,08; 9920,095;   43,702;46046,633;21,46905
 607,66; 9764,801;   41,000;46295,488;21,02239
 608,24; 9598,115;   48,503;46338,488;20,62997
 608,82; 9689,950;   33,993;46369,520;20,83921
 609,40; 9639,521;   64,001;46126,047;20,78831
 609,98; 9763,019;   35,095;46236,750;21,05536
 610,56; 9995,960;   52,784;46044,535;21,61948
 611,14;10213,759;   49,098;46042,070;22,10047
 611,72;10449,013;   64,597;46143,598;22,53611
 612,30;10585,889;   41,690;46084,242;22,90099
 612,88;10818,831;   71,478;46250,930;23,27302
 613,46;10800,422;   42,588;46000,414;23,40806
 614,04;10881,797;   50,408;46040,227;23,55171
 614,62;10979,907;   51,785;45729,809;23,92425
 615,20;10962,456;   57,905;45750,707;23,86492
 615,78;10983,238;   32,910;45702,141;23,97747
 616,36;10890,598;   47,494;45707,492;23,74749
 616,94;10739,900;   26,000;45666,988;23,47430
 617,52;10592,282;   34,005;45546,723;23,19852
 618,10;10423,151;   72,180;45702,289;22,68452
 618,68;10152,927;   25,800;45447,398;22,29584
 619,26; 9839,303;   44,406;45536,379;21,53104
 619,84; 9496,683;   40,491;45161,188;20,95755
 620,42; 9088,039;   40,896;45357,211;19,96443
 621,00; 8779,938;   39,096;45365,609;19,28417
 621,58; 8513,219;   39,482;45249,020;18,74325
 622,16; 8326,800;   57,014;45337,918;18,26330
 622,74; 8234,500;   57,600;45236,785;18,09882
 623,32; 8205,554;   44,799;45204,113;18,07103
 623,90; 8392,747;   79,315;45023,992;18,49703
 624,48; 8509,422;   43,688;44883,313;18,88003
 625,05; 8800,422;   40,088;45065,711;19,45633
 625,63; 9085,321;   57,388;45042,613;20,06866
 626,21; 9437,389;   48,190;44855,445;20,95464
 626,79; 9713,188;   74,903;45051,477;21,42957
 627,37; 9865,769;   43,088;44755,484;21,96858
 627,95;10202,556;   71,305;44796,508;22,65222
 628,53;10313,139;   57,896;44747,512;22,94771
 629,11;10365,578;   49,879;44640,102;23,13444
 629,69;10576,870;   52,108;44879,012;23,47867
 630,27;10607,183;   84,091;44600,891;23,63847
 630,84;10531,722;   54,488;44537,711;23,55323
 631,42;10453,183;   61,005;44855,422;23,19972
 632,00;10353,725;   45,980;44578,773;23,14641
 632,58;10112,677;   61,493;44575,133;22,58001
 633,16; 9874,926;   59,113;44579,633;22,04784
 633,74; 9579,992;   66,096;44446,836;21,43699
 634,32; 9211,980;   57,385;44291,395;20,69583
 634,90; 8968,152;   61,113;44901,246;19,86399
 635,47; 8614,613;   38,283;44333,266;19,36185
 636,05; 8393,181;   42,085;44188,996;18,91660
 636,63; 8216,339;   54,696;44344,809;18,42769
 637,21; 8164,118;   62,095;44528,051;18,22073
 637,79; 8260,506;   70,898;44448,043;18,45456
 638,37; 8314,220;   64,468;44258,387;18,66717
 638,94; 8473,759;   47,098;44318,270;19,03419
 639,52; 8779,659;   42,198;44423,570;19,68723
 640,10; 9103,219;   72,894;44524,383;20,31501
 640,68; 9417,274;   57,694;44555,723;21,03370
 641,26; 9795,029;   33,794;44602,766;21,90141
 641,84;10106,185;   54,794;44264,703;22,73561
 642,41;10275,141;   33,394;44386,445;23,09141
 642,99;10578,796;   61,194;44412,684;23,71420
 643,57;10693,251;   27,195;44380,227;24,04809
 644,15;10814,006;   34,095;44424,863;24,28413
 644,73;10899,762;   51,095;44794,105;24,24662
 645,30;10916,617;   69,595;44532,445;24,39570
 645,88;10804,872;   53,895;44571,184;24,15012
 646,46;10776,328;   57,295;44724,324;23,99764
 647,04;10501,683;   47,895;44548,164;23,49152
 647,61;10273,938;   45,795;44756,004;22,87653
 648,19;10049,594;   69,795;44812,445;22,30489
 648,77; 9703,949;   32,095;44807,887;21,60063
 649,35; 9469,204;   61,995;44879,125;20,99021
 649,92; 9230,160;   52,995;44855,965;20,48338
 650,50; 9003,615;   31,796;44722,105;20,07554
 651,08; 8847,671;   47,596;44624,445;19,74136
 651,66; 8868,826;   27,196;44888,984;19,70860
 652,23; 8858,981;   56,496;44823,027;19,66310
 652,81; 8945,536;   45,996;45074,367;19,76430
 653,39; 9025,092;   69,596;45120,406;19,87866
 653,97; 9225,747;   33,196;45228,348;20,33968
 654,54; 9398,303;   37,096;45073,086;20,78606
 655,12; 9694,258;   30,696;45271,324;21,36036
 655,70; 9980,613;   49,196;45327,367;21,93423
 656,28;10301,969;   45,596;45491,605;22,56826
 656,85;10562,424;   44,896;45428,547;23,17471
 657,43;10730,180;   17,297;45216,785;23,70134
 658,01;10931,635;   21,797;45644,426;23,91322
 658,58;11205,790;   70,597;45949,367;24,27091
 659,16;11199,545;   57,397;45552,508;24,49087
 659,74;11266,900;   78,497;45746,246;24,49957
 660,32;11234,156;   79,297;45955,586;24,31509
 660,89;11048,211;   37,497;45904,125;24,00594
 661,47;11037,467;   53,597;46094,566;23,85673
 662,05;10731,522;   35,997;46285,605;23,12566
 662,62;10586,277;   73,597;46643,047;22,57420
 663,20;10307,433;   94,697;46661,586;21,93132
 663,78;10086,688;   67,397;46944,527;21,37352
 664,35; 9799,743;   51,597;47161,066;20,69254
 664,93; 9519,499;   64,698;47390,008;19,97832
 665,51; 9323,854;   54,798;47523,445;19,52669
 666,08; 9210,310;   52,598;47587,188;19,26536
 666,66; 9204,465;   54,898;48219,926;18,99629
 667,23; 9177,521;   73,498;48259,168;18,89363
 667,81; 9310,376;   67,298;48827,809;18,95607
 668,39; 9414,331;   53,798;48982,547;19,13095
 668,96; 9657,586;   64,898;49249,488;19,50344
 669,54; 9978,741;   52,398;49565,027;20,04810
 670,12;10424,197;   62,098;50043,266;20,73201
 670,69;10842,152;   72,198;50587,309;21,32026
 671,27;11194,907;   42,698;50804,949;21,96949
 671,84;11487,963;   52,699;50686,289;22,58434
 672,42;11850,118;   77,899;51094,227;23,07540
 673,00;12004,874;   61,099;51364,270;23,28077
 673,57;12133,629;   73,699;51056,109;23,65508
 674,15;12281,584;   76,499;51454,246;23,75559
 674,72;12083,240;   64,499;51271,988;23,47067
 675,30;12012,195;   68,499;51194,930;23,36110
 675,88;11867,950;   47,299;51369,867;23,03207
 676,45;11679,406;   68,799;51601,406;22,53060
 677,03;11259,361;   70,999;51397,750;21,79831
 677,60;10936,017;   36,999;51440,387;21,20292
 678,18;10592,972;   63,399;51741,328;20,37538
 678,76;10084,427;   39,800;51655,566;19,46039
 679,33; 9684,083;   60,000;51613,008;18,66833
 679,91; 9337,438;   48,100;51616,250;18,01371
 680,48; 9105,493;   49,900;51590,789;17,56973
 681,06; 8936,549;   53,900;51551,828;17,24856
 681,63; 8807,404;   48,800;51360,969;17,06925
 682,21; 8861,560;   75,100;51466,910;17,09700
 682,78; 8803,114;   22,700;50943,648;17,24323
 683,36; 8966,870;   54,300;51124,789;17,45151
 683,93; 9114,125;   48,100;50885,328;17,83344
 684,51; 9324,181;   45,600;50889,270;18,24923
 685,08; 9763,836;   50,900;51123,410;19,01793
 685,66;10043,092;   59,001;51258,648;19,50031
 686,24;10363,447;   45,801;51266,789;20,14340
 686,81;10674,502;   58,201;51376,027;20,68736
 687,39;10838,258;   46,201;51314,770;21,05005
 687,96;11107,113;   54,201;51515,711;21,47802
 688,54;11263,168;   25,401;51650,148;21,76818
 689,11;11279,023;   31,501;51776,789;21,73632
 689,69;11286,879;   41,901;51664,027;21,78325
 690,26;11305,034;   60,901;52121,570;21,59813
 690,84;11175,590;   57,601;51906,211;21,44318
 691,41;10930,945;   51,001;52199,750;20,86329
 691,98;10840,000;   40,201;52310,590;20,66141
 692,56;10524,655;   37,101;52299,531;20,06710
 693,13;10297,111;   66,302;52835,871;19,38771
 693,71;10106,366;   35,502;52870,508;19,06097
 694,28; 9892,521;   34,302;52895,852;18,64913
 694,86; 9787,077;   51,802;53283,488;18,28850
 695,43; 9674,633;   69,202;53173,031;18,08802
 696,01; 9574,788;   54,302;53738,871;17,73412
 696,58; 9549,743;   45,002;53627,512;17,73851
 697,16; 9558,698;   49,502;53758,352;17,70508
 697,73; 9676,454;   80,802;54265,191;17,70926
 698,30; 9619,509;   52,702;53928,930;17,75701
 698,88; 9706,864;   45,602;54095,770;17,87462
 699,45; 9793,520;   40,902;54204,309;18,00592
 700,03; 9920,275;   58,803;54551,648;18,09682
 700,60;10090,830;   69,203;54563,492;18,39023
 701,18;10377,086;   73,403;54806,930;18,82518
 701,75;10622,841;   75,303;55150,672;19,15110
 702,32;10767,297;   47,703;54894,012;19,54479
 702,90;11044,052;   54,703;55278,152;19,89979
 703,47;11334,607;   64,703;55434,191;20,35400
 704,05;11609,362;   82,503;55625,531;20,75303
 704,62;11665,918;   40,303;55573,270;20,93462
 705,19;11870,474;   48,703;55701,609;21,24196
 705,77;11978,629;   30,503;55980,852;21,35487
 706,34;12162,084;   65,903;55939,090;21,64935
 706,91;12259,039;   51,604;56105,730;21,77794
 707,49;12327,395;   64,904;56452,871;21,74664
 708,06;12375,750;   81,504;56656,609;21,73084
 708,64;12399,006;   41,804;56518,352;21,88024
 709,21;12396,261;   66,604;56773,191;21,74290
 709,78;12249,716;   54,904;56750,332;21,50934
 710,36;12289,172;   68,504;57047,770;21,44757
 710,93;12211,327;   69,704;57101,910;21,28906
 711,50;12083,382;   53,104;57382,551;20,98447
 712,08;12039,338;   64,704;57739,492;20,76234
 712,65;11846,692;   77,104;57507,930;20,49350
 713,22;11678,548;   88,404;57647,773;20,13598
 713,80;11542,403;   89,904;57985,113;19,78143
 714,37;11388,659;   62,705;57654,953;19,66576
 714,94;11339,614;   67,705;57721,691;19,55096
 715,52;11269,970;   58,905;57599,434;19,48377
 716,09;11289,425;   63,205;57731,973;19,46672
 716,66;11446,380;   74,205;57502,613;19,80235
 717,23;11629,036;   72,805;57685,254;20,05857
 717,81;11836,291;   58,805;57459,191;20,51813
 718,38;11977,146;   51,605;57252,332;20,84858
 718,95;12254,302;   70,805;57242,070;21,31052
 719,53;12547,557;   58,505;57111,012;21,89045
 720,10;12909,013;   78,805;56880,754;22,58762
 720,67;13118,968;   49,405;56701,691;23,06979
 721,24;13353,923;   68,006;56407,832;23,58175
 721,82;13531,679;   65,506;56337,973;23,93031
 722,39;13814,834;   63,006;56449,414;24,38855
 722,96;14030,889;   79,706;56495,953;24,72902
 723,53;13986,244;   87,306;56453,094;24,65847
 724,11;14080,899;   67,806;56521,234;24,82240
 724,68;14032,255;   69,806;56581,574;24,70715
 725,25;13939,511;   74,206;56729,711;24,47301
 725,82;13851,366;   99,706;57170,152;24,09594
 726,40;13667,722;   62,206;57214,395;23,80576
 726,97;13484,477;   67,806;57301,234;23,44202
 727,54;13290,832;   62,706;57229,973;23,13934
 728,11;13065,787;   53,607;57361,813;22,70561
 728,69;12908,242;   49,507;57573,352;22,35375
 729,26;12738,098;   58,707;57865,293;21,93416
 729,83;12703,054;   53,707;58108,832;21,78851
 730,40;12591,709;   58,407;58192,074;21,55946
 730,97;12554,864;   47,007;58596,813;21,36276
 731,55;12602,819;   47,407;58769,953;21,38091
 732,12;12677,475;  100,907;58623,992;21,48993
 732,69;12749,930;   71,407;58612,434;21,65750
 733,26;12827,985;   53,407;58592,074;21,82246
 733,83;13052,741;   50,907;58912,113;22,08897
 734,41;13448,896;   74,707;59208,754;22,61673
 734,98;13624,752;   62,607;59257,492;22,91101
 735,55;14020,106;   55,908;59487,133;23,49640
 736,12;14420,962;   72,208;59456,172;24,16267
 736,69;14826,117;   90,408;59613,313;24,75637
 737,26;15172,272;   68,108;59770,754;25,29899
 737,84;15465,229;   62,508;59579,195;25,87967
 738,41;15689,483;   59,908;59723,734;26,19607
 738,98;15798,539;   70,608;59579,676;26,42947
 739,55;15742,095;   62,008;59464,215;26,39647
 740,12;15778,250;   79,008;59831,754;26,27367
 740,69;15588,705;   71,408;59967,594;25,90699
 741,26;15509,860;   69,108;59921,535;25,79804
 741,83;15312,815;   69,208;59843,773;25,50183
 742,41;15193,271;   74,309;60309,313;25,09996
 742,98;15031,326;  103,909;60395,656;24,75864
 743,55;14782,082;   69,509;60240,496;24,45127
 744,12;14546,137;   57,709;60022,535;24,16154
 744,69;14323,393;   75,109;60194,574;23,69995
 745,26;14107,147;   46,009;59896,914;23,49361
 745,83;14106,703;   62,409;60193,254;23,35622
 746,40;13980,858;   64,009;60053,293;23,19889
 746,97;13967,214;   47,509;59961,535;23,23280
 747,55;13936,270;   72,209;60003,477;23,13327
 748,12;13998,324;   64,409;60031,316;23,23601
 748,69;13973,479;   64,109;60045,355;23,18953
 749,26;14112,035;   68,610;60145,594;23,37572
 749,83;14087,291;   62,210;60013,035;23,39431
 750,40;14324,446;  103,510;59932,074;23,76948
 750,97;14655,001;  103,510;60095,516;24,25572
 751,54;14699,557;   43,310;59869,254;24,49815
 752,11;14979,612;   67,510;59894,594;24,92534
 752,68;15329,167;  102,510;59665,434;25,56399
 753,25;15540,022;   71,610;59511,777;26,02350
 753,82;15914,878;   72,910;59701,414;26,56778
 754,39;16108,333;   76,010;59739,355;26,87131
 754,96;16133,188;   72,910;59250,297;27,13921
 755,53;16223,344;   52,210;59510,137;27,19761
 756,10;16265,999;   70,911;59313,574;27,33687
 756,67;16091,854;   81,611;59430,316;26,97657
 757,24;15953,311;   82,211;59289,656;26,80592
 757,81;15868,165;   43,711;59342,195;26,68610
 758,38;15707,121;   60,311;59341,734;26,39412
 758,95;15540,676;   84,911;59414,574;26,05065
 759,52;15275,331;   59,511;58757,516;25,92221
 760,09;15095,887;   70,811;58642,957;25,65225
 760,66;14778,842;   68,611;58366,598;25,23283
 761,23;14664,498;   85,611;58358,438;25,01833
 761,80;14594,853;   74,811;58348,176;24,91711
 762,37;14505,708;   87,411;58400,617;24,72561
 762,94;14414,964;   84,011;58434,258;24,56023
 763,51;14268,219;   59,112;58202,297;24,43813
 764,08;14261,175;   68,712;58167,637;24,42810
 764,65;14231,330;   87,212;57945,176;24,44628
 765,22;14221,785;   59,812;57632,418;24,59846
 765,79;14275,341;   79,712;57326,059;24,79744
 766,36;14297,195;   80,612;57346,598;24,82553
 766,93;14308,751;   65,712;57506,738;24,79593
 767,50;14419,807;   77,912;57339,375;25,04633
 768,07;14561,361;   77,312;57431,219;25,25381
 768,64;14759,417;   91,312;57245,355;25,66416
 769,21;14965,673;   64,112;56750,797;26,28759
 769,78;15128,628;   78,412;56606,938;26,62411
 770,34;15296,483;   44,213;56182,477;27,16912
 770,91;15506,438;   63,513;56215,117;27,50220
 771,48;15512,794;   69,513;55998,656;27,61223
 772,05;15498,049;   79,213;55701,898;27,72041
 772,62;15452,305;   51,913;55274,836;27,88768
 773,19;15311,760;   66,313;55428,477;27,53766
 773,76;15255,815;   78,913;55294,016;27,48687
 774,33;15165,471;   75,413;55158,156;27,39525
 774,90;14969,626;   60,413;54598,199;27,33740
 775,47;14830,682;   70,013;54692,637;27,02299
 776,03;14643,637;   77,913;54517,977;26,75552
 776,60;14498,992;   63,713;54224,719;26,65253
 777,17;14336,947;   66,414;54057,457;26,43130
 777,74;14152,402;   41,514;53490,098;26,40087
 778,31;14118,858;   71,414;53612,637;26,23669
 778,88;13836,613;   44,614;53275,879;25,90958
 779,45;13782,369;   91,914;53168,418;25,79382
 780,01;13678,524;   80,414;53129,656;25,63300
 780,58;13462,880;   75,314;52949,398;25,31971
 781,15;13300,435;   60,014;52661,438;25,17122
 781,72;13236,690;   74,014;52554,078;25,08129
 782,29;13183,945;   69,114;52079,219;25,21593
 782,86;13141,400;   75,114;51771,258;25,27517
 783,42;13140,557;   70,814;51617,297;25,35526
 783,99;13232,611;   66,514;51666,738;25,51558
 784,56;13284,067;   75,815;51183,078;25,84418
 785,13;13400,622;   65,615;51106,617;26,12607
 785,70;13563,777;   63,815;50902,359;26,55458
 786,26;13696,433;   80,715;50828,699;26,83007
 786,83;13824,088;   81,915;50547,141;27,23097
 787,40;13992,844;   71,915;50338,180;27,69438
 787,97;14022,299;   50,915;50082,520;27,92512
 788,54;14079,854;   76,715;50067,559;28,01141
 789,10;14008,510;   70,915;49707,098;28,07951
 789,67;14044,065;   88,815;49374,039;28,31528
 790,24;13895,620;   67,215;49515,980;27,96512
 790,81;13818,775;   85,715;48790,621;28,19646
 791,37;13665,431;   89,816;48703,758;27,92535
 791,94;13544,387;   77,416;48731,301;27,67913
 792,51;13382,542;   55,216;48281,039;27,63525
 793,08;13253,797;   78,116;48263,180;27,34391
 793,64;13040,853;   70,516;47992,719;27,06540
 794,21;12833,008;   91,216;47794,559;26,71048
 794,78;12605,363;   67,216;47492,598;26,43763
 795,35;12427,519;   74,916;47095,641;26,27055
 795,91;12283,674;   58,816;46888,879;26,10472
 796,48;12058,529;   76,616;46538,621;25,78863
 797,05;11901,385;   66,716;46539,961;25,46555
 797,62;11752,640;   57,616;46365,500;25,25493
 798,18;11609,995;   65,717;46022,840;25,11967
 798,75;11531,650;   60,917;45731,480;25,11625
 799,32;11521,006;   71,517;45653,219;25,11861
 799,88;11509,461;   71,317;45503,160;25,17649
 800,45;11507,717;   43,617;45090,801;25,44909
 801,02;11651,072;   70,617;45058,039;25,74154
 801,58;11765,627;  103,217;44902,180;26,03277
 802,15;11768,982;   78,917;44603,820;26,25512
 802,72;11895,638;   86,717;44283,559;26,71892
 803,28;12033,193;   62,217;44124,699;27,16818
 803,85;12060,148;   51,017;43840,340;27,42479
 804,42;12107,604;   86,817;43684,180;27,57228
 804,98;12148,060;  110,518;43623,922;27,66399
 805,55;12248,115;   63,118;43303,762;28,17950
 806,12;12207,870;  101,318;43094,000;28,15957
 806,68;12164,926;   75,418;42643,539;28,40038
 807,25;12036,081;  100,118;42538,480;28,12541
 807,82;11999,036;   94,218;42414,621;28,13021
 808,38;11841,092;   78,818;42374,461;27,80966
 808,95;11733,247;   71,618;42215,199;27,67119
 809,52;11651,603;   67,418;42170,340;27,51397
 810,08;11475,558;   78,418;42035,480;27,16382
 810,65;11260,513;   70,318;42062,520;26,64827
 811,21;11178,168;   81,418;42152,461;26,37622
 811,78;11076,323;  103,518;42171,902;26,08326
 812,35;10875,079;   77,619;41843,543;25,85232
 812,91;10744,935;   96,919;42028,383;25,39386
 813,48;10643,590;   73,519;41847,520;25,30299
 814,04;10540,945;   84,319;41782,961;25,07666
 814,61;10410,301;   86,119;41608,602;24,86408
 815,18;10317,456;   80,719;41371,543;24,79180
 815,74;10300,711;   85,619;41303,980;24,78287
 816,31;10241,166;   87,719;40917,621;24,86767
 816,87;10244,021;   48,519;40470,363;25,22275
 817,44;10296,777;   89,319;40395,402;25,32486
 818,00;10193,133;   56,519;40200,641;25,25056
 818,57;10299,288;   93,519;39997,082;25,57608
 819,14;10383,743;   97,720;39811,922;25,90011
 819,70;10510,299;   88,420;39535,660;26,41979
 820,27;10525,354;   77,320;39377,602;26,58514
 820,83;10599,409;   77,020;39086,941;26,97362
 821,40;10586,665;  107,520;38849,980;27,04822
 821,96;10717,720;   81,620;38601,422;27,61203
 822,53;10715,075;   83,020;38411,762;27,73912
 823,09;10752,331;  109,920;38424,301;27,77654
 823,66;10602,486;   88,420;38045,141;27,70014
 824,22;10532,941;   85,720;37912,484;27,61860
 824,79;10424,196;   84,920;37523,723;27,61647
 825,35;10241,452;   93,320;37602,664;27,05494
 825,92;10111,607;   80,021;37253,602;26,98580
 826,48;10006,463;  107,521;37167,043;26,71093
 827,05; 9798,019;   99,421;36937,082;26,32794
 827,61; 9595,974;   84,421;36644,523;26,01621
 828,18; 9346,329;   74,121;36543,762;25,42446
 828,74; 9265,284;   88,421;36346,004;25,31019
 829,31; 9067,039;   99,621;36305,645;24,76775
 829,87; 8951,195;   85,121;36173,883;24,56741
 830,44; 8876,150;   91,621;36054,922;24,42637
 831,00; 8751,105;   97,221;35964,465;24,12754
 831,57; 8763,661;  113,021;35736,305;24,28367
 832,13; 8638,716;   81,521;35201,441;24,36564
 832,69; 8625,271;   81,021;35253,785;24,29223
 833,26; 8619,327;   92,922;35075,125;24,37355
 833,82; 8599,282;  103,122;34779,063;24,50160
 834,39; 8609,938;   82,922;34662,203;24,65932
 834,95; 8659,293;   75,222;34586,445;24,87327
 835,52; 8710,349;  114,822;34573,582;24,94439
 836,08; 8711,304;  102,222;34467,223;25,05189
 836,64; 8771,259;   88,722;34415,863;25,29350
 837,21; 8827,715;  100,422;34108,805;25,66218
 837,77; 8948,870;   87,922;33973,742;26,14943
 838,34; 8934,825;   80,322;33883,184;26,19454
 838,90; 8976,681;   74,022;33688,023;26,48497
 839,46; 9033,636;  102,722;33660,965;26,61317
 840,03; 9033,491;   89,823;33589,305;26,69793
 840,59; 8998,847;   98,623;33224,945;26,86753
 841,16; 8924,902;  115,023;33197,586;26,62998
 841,72; 8765,957;   60,623;32782,023;26,60441
 842,28; 8683,612;   88,023;33006,664;26,11162
 842,85; 8618,468;  111,223;32981,305;25,88142
 843,41; 8540,123;  115,623;32759,645;25,80718
 843,97; 8374,579;  101,523;32628,484;25,43446
 844,54; 8235,134;  103,923;32606,424;25,01718
 845,10; 8124,790;  101,623;32435,264;24,81368
 845,67; 8032,145;   84,723;32257,805;24,70208
 846,23; 7905,900;   89,623;32027,045;24,47372
 846,79; 7826,456;   95,524;31792,686;24,38998
 847,36; 7694,211;   74,924;31579,225;24,18491
 847,92; 7671,966;   98,924;31430,064;24,17098
 848,48; 7628,321;   52,124;31495,006;24,09511
 849,04; 7615,577;   76,124;31293,445;24,15150
 849,61; 7534,032;   69,624;31314,285;23,89019
 850,17; 7517,888;   75,324;31291,824;23,84176
 850,73; 7535,543;   79,824;31295,666;23,88441
 851,30; 7508,198;   67,024;31085,805;23,98925
 851,86; 7491,653;   82,024;30886,045;24,05410
 852,42; 7544,209;   68,124;30971,785;24,19158
 852,99; 7587,564;   94,224;30848,025;24,36557
 853,55; 7626,919;  105,124;30691,564;24,59193
 854,11; 7636,375;   74,425;30375,906;24,95571
 854,67; 7639,130;   95,225;30426,945;24,87134
 855,24; 7665,986;   67,225;30329,586;25,10961
 855,80; 7721,241;   89,225;30332,326;25,23556
 856,36; 7730,296;   86,525;30215,365;25,37028
 856,92; 7675,852;   62,925;30050,506;25,38693
 857,49; 7710,907;   83,025;29960,646;25,53042
 858,05; 7722,462;   79,825;29911,785;25,61896
 858,61; 7702,518;   66,325;29929,727;25,57040
 859,17; 7555,873;   89,325;29718,566;25,19993
 859,74; 7486,729;   83,025;29678,205;25,01658
 860,30; 7519,184;  113,925;29483,246;25,21426
 860,86; 7348,239;   68,026;29312,586;24,89425
 861,42; 7221,594;   86,626;29074,326;24,61378
 861,99; 7131,150;   63,326;29042,166;24,38960
 862,55; 7105,905;   75,226;28893,006;24,39702
 863,11; 7132,960;   91,926;29061,646;24,30481
 863,67; 7027,216;   76,826;28852,586;24,15363
 864,23; 6988,471;   90,526;28750,727;24,06803
 864,80; 6933,026;   70,326;28544,666;24,10135
 865,36; 6909,582;   65,426;28649,607;23,94386
 865,92; 6866,938;  100,126;28461,146;23,85955
 866,48; 6817,493;   89,526;28425,188;23,74381
 867,04; 6761,148;   67,426;28159,627;23,82769
 867,60; 6765,903;   91,327;28118,768;23,81444
 868,17; 6681,559;  104,427;27939,207;23,62919
 868,73; 6665,914;   82,127;27621,646;23,90669
 869,29; 6618,669;   65,927;27596,787;23,80145
 869,85; 6630,325;  113,027;27568,627;23,73759
 870,41; 6478,080;   81,527;27384,168;23,42833
 870,97; 6517,835;  107,827;27213,406;23,64830
 871,54; 6470,391;   85,727;26980,947;23,73903
 872,10; 6491,146;   88,627;26828,088;23,94408
 872,66; 6404,801;   62,827;26528,428;23,96308
 873,22; 6526,957;   93,127;26519,367;24,34637
 873,78; 6435,312;   78,627;26172,908;24,36045
 874,34; 6442,467;  104,228;26033,547;24,44430
 874,90; 6501,368;  120,827;25783,248;24,86336
 875,46; 6419,667;   99,728;25709,348;24,67799
 876,03; 6351,167;   98,927;25420,648;24,69121
 876,59; 6336,067;   77,327;25181,547;24,93103
 877,15; 6369,967;  109,827;25149,047;25,00134
 877,71; 6206,868;  106,228;25212,648;24,29912
 878,27; 6115,567;   96,427;24989,248;24,18022
 878,83; 6127,967;  116,827;25022,148;24,13597
 879,39; 6051,067;  100,027;24973,648;23,92510
 879,95; 6023,667;   98,827;24843,648;23,94376
 880,51; 6054,567;   83,728;24936,047;24,02528
 881,07; 6004,067;   90,527;25061,848;23,68133
 881,63; 6055,667;  101,027;25156,047;23,76626
 882,19; 6023,667;   87,628;24975,447;23,85119
 882,75; 5997,268;  101,427;25261,947;23,43290
 883,31; 6053,467;  105,327;25428,648;23,48878
 883,88; 5988,567;   98,927;25336,748;23,33656
 884,44; 5940,967;   91,927;25417,947;23,09498
 885,00; 6017,868;  107,427;25761,848;23,03868
 885,56; 6014,667;  107,827;25751,648;23,03416
 886,12; 6021,868;  111,228;25842,648;22,97052
 886,68; 5995,167;   99,228;25852,348;22,89408
 887,24; 6096,167;  117,927;26350,547;22,78934
 887,80; 6060,567;   90,728;26280,748;22,79433
 888,36; 6100,768;  116,327;26529,848;22,65673
 888,92; 6117,967;  125,728;26572,047;22,65812
 889,48; 6221,967;  103,128;26954,447;22,78785
 890,04; 6259,768;  109,128;26947,547;22,91730
 890,60; 6414,167;  112,128;27251,248;23,22124
 891,16; 6395,067;   96,628;27188,848;23,24815
 891,72; 6438,467;  118,228;27260,547;23,28556
 892,28; 6475,567;  134,827;27331,547;23,31436
 892,84; 6533,268;  104,728;27348,848;23,59606
 893,39; 6528,268;  123,927;27411,947;23,46942
 893,95; 6549,268;  114,228;27186,348;23,76999
 894,51; 6449,167;   76,327;26955,748;23,70899
 895,07; 6526,268;  129,727;27084,848;23,73033
 895,63; 6424,667;   77,128;26839,947;23,71775
 896,19; 6353,167;   97,128;26677,248;23,53654
 896,75; 6261,167;  124,927;26555,748;23,21623
 897,31; 6186,868;   90,728;26203,148;23,34575
 897,87; 6092,768;  101,728;25897,248;23,22512
 898,43; 5992,368;  106,527;25790,848;22,91608
 898,99; 5936,567;  117,427;25589,047;22,84558
 899,55; 5921,567;  119,927;25597,447;22,77160
 900,11; 5818,567;  108,327;25305,447;22,66227
 900,67; 5693,868;   98,527;25075,248;22,40222
 901,22; 5651,868;  119,628;24861,047;22,36024
 901,78; 5490,667;   91,628;24661,248;21,97445
 902,34; 5470,067;  111,228;24532,248;21,94355
 902,90; 5377,067;   80,827;24335,148;21,83627
 903,46; 5317,967;  105,728;24231,348;21,60458
 904,02; 5278,167;  100,527;24123,947;21,55247
 904,58; 5149,868;   90,728;23850,848;21,29257
 905,14; 5098,467;   68,527;23822,947;21,17475
 905,70; 5085,667;   83,927;23630,748;21,24168
 906,25; 5086,167;   90,628;23553,348;21,29139
 906,81; 5055,368;   94,628;23392,047;21,29309
 907,37; 5060,868;   98,827;23257,447;21,42632
 907,93; 5043,268;   89,527;23089,748;21,53779
 908,49; 5036,467;   99,628;22999,447;21,55842
 909,05; 5056,768;   97,827;22927,848;21,72114
 909,60; 5027,268;  108,228;22788,748;21,68839
 910,16; 4980,467;   74,228;22700,748;21,68358
 910,72; 5030,067;  110,427;22663,447;21,81366
 911,28; 4972,567;  102,128;22408,248;21,83454
 911,84; 5006,268;   90,628;22454,148;21,98062
 912,39; 4983,467;   78,427;22258,547;22,11458
 912,95; 5054,567;  102,728;22258,148;22,35047
 913,51; 4944,167;   98,327;22083,547;22,04135
 914,07; 4880,967;   98,728;21907,547;21,92801
 914,63; 4894,067;   76,128;21874,547;22,10224
 915,18; 4818,467;   87,628;21589,648;22,00184
 915,74; 4725,768;   80,927;21587,248;21,59756
 916,30; 4680,768;   59,528;21357,648;21,69788
 916,86; 4632,268;   93,728;21262,648;21,43964
 917,42; 4639,368;  100,228;21321,348;21,38973
 917,97; 4510,967;   77,427;21064,748;21,12485
 918,53; 4435,167;   74,927;20915,447;20,92193
 919,09; 4334,567;   98,728;20860,447;20,40216
 919,65; 4334,268;   85,527;20650,848;20,65973
 920,20; 4242,567;   73,527;20532,748;20,37732
 920,76; 4161,967;   72,027;20320,547;20,19871
 921,32; 4115,368;   82,027;20178,947;20,06944
 921,87; 4098,268;  102,728;19954,348;20,12702
 922,43; 3942,667;   77,027;19849,648;19,55047
 922,99; 3913,367;   67,427;19482,748;19,80879
 923,55; 3916,567;   70,527;19338,047;19,96126
 924,10; 3842,067;   73,027;19189,547;19,71614
 924,66; 3817,468;   87,827;18955,648;19,76720
 925,22; 3752,067;   55,228;18851,248;19,66821
 925,77; 3743,367;   82,128;18536,348;19,83958
 926,33; 3726,567;   95,927;18507,947;19,71886
 926,89; 3656,167;   71,427;18124,148;19,85706
 927,44; 3640,768;   62,327;17937,248;20,01933
 928,00; 3636,867;   71,228;17715,447;20,20854
 928,56; 3618,167;   88,827;17529,648;20,23609
 929,12; 3585,867;   87,728;17383,348;20,22558
 929,67; 3531,867;   69,527;17014,248;20,43315
 930,23; 3491,867;   56,127;16842,248;20,46774
 930,78; 3518,367;  115,628;16704,547;20,51213
 931,34; 3442,067;   72,327;16173,647;20,92835
 931,90; 3353,768;   73,128;15997,647;20,60119
 932,45; 3274,667;   83,427;15594,647;20,57375
 933,01; 3184,867;   64,728;15138,247;20,69948
 933,57; 3055,768;   74,527;14649,048;20,45515
 934,12; 2908,968;   82,628;14015,147;20,28592
 934,68; 2733,167;   64,427;13299,647;20,16393
 935,24; 2568,667;   77,027;12511,147;20,03873
 935,79; 2413,567;   75,228;11770,247;19,99432
 936,35; 2241,067;  101,827;10989,848;19,64765
 936,90; 2080,167;   84,427;10143,848;19,83951
 937,46; 1897,968;   83,728; 9403,947;19,46564
 938,02; 1746,767;   73,527; 8615,747;19,58788
 938,57; 1639,767;   81,728; 8016,047;19,63672
 939,13; 1511,968;   80,228; 7513,447;19,26137
 939,68; 1367,267;   68,628; 6973,248;18,80828
 940,24; 1334,968;   71,527; 6581,047;19,40911
 940,79; 1285,667;  110,628; 6292,447;19,00799
 941,35; 1238,167;  101,228; 6079,047;19,01931
 941,91; 1162,468;   75,527; 5851,348;18,81880
 942,46; 1153,968;   77,128; 5791,947;18,84294
 943,02; 1126,368;   79,927; 5671,348;18,71510
 943,57; 1091,667;   64,427; 5573,547;18,64617
 944,13; 1132,968;   79,027; 5648,147;18,92471
 944,68; 1137,968;   78,027; 5685,248;18,90313
 945,24; 1158,068;   90,427; 5783,147;18,75448
 945,79; 1150,468;   73,027; 5876,147;18,56656
 946,35; 1181,767;   60,627; 5994,447;18,89407
 946,90; 1257,368;  114,927; 6160,147;18,89824
 947,46; 1253,568;   64,927; 6271,248;19,15209
 948,01; 1280,068;   57,827; 6434,447;19,16752
 948,57; 1384,968;  104,827; 6687,547;19,44698
 949,12; 1365,167;   79,827; 6797,248;19,13443
 949,68; 1428,267;  103,327; 7106,647;18,91874
 950,23; 1456,568;   83,527; 7300,047;19,02635
 950,79; 1482,667;   83,327; 7497,748;18,87322
 951,34; 1528,868;  100,927; 7735,248;18,70422
 951,90; 1549,968;   70,527; 7954,848;18,76433
 952,45; 1590,667;   97,628; 8185,147;18,46104
 953,01; 1602,167;   82,628; 8326,348;18,43270
 953,56; 1658,167;   88,228; 8589,947;18,46615
 954,12; 1614,767;   52,028; 8720,447;18,02797
 954,67; 1665,968;   77,327; 8976,247;17,85206
 955,23; 1669,468;   76,927; 9148,048;17,55616
 955,78; 1701,667;   73,927; 9338,348;17,56980
 956,33; 1707,068;   63,728; 9521,548;17,37546
 956,89; 1709,868;   59,928; 9696,848;17,12103
 957,44; 1741,068;   69,628; 9882,348;17,03340
 958,00; 1736,968;   59,428;10075,548;16,74840
 958,55; 1745,868;   61,627;10222,348;16,57599
 959,10; 1737,568;   69,327;10408,747;16,13475
 959,66; 1801,968;   82,527;10609,048;16,33436
 960,21; 1785,968;   81,427;10733,147;16,00249
 960,77; 1804,868;   70,327;10817,147;16,14003
 961,32; 1824,868;   64,728;10986,548;16,11581
 961,87; 1842,667;   88,527;11049,147;16,00402
 962,43; 1822,667;   70,728;11118,048;15,85851
 962,98; 1868,767;   94,327;11290,247;15,84899
 963,54; 1830,068;   47,228;11352,147;15,77048
 964,09; 1890,068;   79,027;11395,348;16,00379
 964,64; 1909,267;   74,527;11550,747;15,98732
 965,20; 1906,767;   60,327;11524,247;16,10653
 965,75; 1934,667;   81,728;11624,447;16,05289
 966,30; 1946,368;   70,827;11653,848;16,19215
 966,86; 1917,667;   78,527;11719,247;15,79919
 967,41; 1963,167;   93,527;11768,048;16,01470
 967,96; 1950,968;   76,728;11864,647;15,89967
 968,52; 1998,368;   93,228;11930,647;16,09422
 969,07; 1978,068;   77,628;11868,348;16,11810
 969,62; 1981,667;   79,527;11967,147;16,00102
 970,18; 1967,167;   75,728;12076,747;15,76066
 970,73; 1960,068;   80,728;12023,048;15,73681
 971,28; 1986,568;   96,327;12036,348;15,83113
 971,84; 1929,667;   77,527;12048,848;15,47148
 972,39; 1910,167;  100,228;12039,548;15,15949
 972,94; 1889,167;   66,228;12109,947;15,13602
 973,49; 1862,767;   96,628;12092,447;14,72296
 974,05; 1843,167;   76,728;12000,747;14,81413
 974,60; 1853,267;   93,228;12070,048;14,69539
 975,15; 1820,968;   88,628;12097,447;14,42556
 975,71; 1782,267;   65,128;11908,548;14,49868
 976,26; 1796,267;   98,927;11977,247;14,28939
 976,81; 1784,368;   91,827;11959,048;14,26231
 977,36; 1776,968;   98,728;11983,247;14,12123
 977,92; 1753,068;   96,527;12038,848;13,87117
 978,47; 1720,568;   81,927;11925,647;13,83552
 979,02; 1733,968;   93,228;11922,548;13,87011
 979,57; 1696,968;   88,427;11895,747;13,62324
 980,13; 1671,667;   83,527;11783,147;13,57429
 980,68; 1658,167;   82,927;11805,147;13,43807
 981,23; 1674,968;   90,527;11802,247;13,52867
 981,78; 1664,167;   92,427;11735,247;13,49965
 982,33; 1679,468;   90,728;11677,848;13,71126
 982,89; 1658,468;   89,927;11703,647;13,50592
 983,44; 1641,167;   83,027;11608,947;13,51857
 983,99; 1687,767;  118,628;11622,647;13,63993
 984,54; 1637,568;   96,128;11457,247;13,56768
 985,09; 1635,468;   93,728;11413,947;13,61935
 985,65; 1632,767;   91,327;11470,747;13,54586
 986,20; 1635,667;  106,927;11419,548;13,51358
 986,75; 1631,968;  108,628;11414,447;13,47395
 987,30; 1592,667;  102,827;11258,348;13,35518
 987,85; 1592,368;   90,228;11246,747;13,46424
 988,40; 1578,468;  108,527;11213,747;13,23648
 988,96; 1581,468;  108,027;11133,947;13,36342
 989,51; 1559,167;  115,427;11038,447;13,21741
 990,06; 1552,068;  138,227;11045,147;12,96278
 990,61; 1520,868;   92,128;10938,348;13,17270
 991,16; 1561,667;  118,927;10940,048;13,33263
 991,71; 1478,568;   92,527;10792,848;12,95326
 992,26; 1474,968;  102,427;10714,848;12,93334
 992,81; 1432,468;  104,728;10660,548;12,57827
 993,37; 1462,868;  137,727;10574,647;12,69666
 993,92; 1409,968;  121,728;10458,048;12,46324
 994,47; 1437,368;  124,628;10466,848;12,69302
 995,02; 1395,968;  137,027;10490,947;12,15907
 995,57; 1364,068;  110,427;10392,848;12,19207
 996,12; 1384,368;  145,727;10300,348;12,19780
 996,67; 1359,968;  129,628;10209,147;12,20634
 997,22; 1325,568;  113,527;10126,947;12,10416
 997,77; 1319,868;  121,527;10148,647;11,95099
 998,32; 1286,368;  111,628;10071,647;11,79456
 998,87; 1275,767;  125,128; 9984,647;11,67034
 999,42; 1264,568;  127,927; 9851,147;11,68995
 999,97; 1244,568;  108,927; 9777,548;11,74563
1000,53; 1284,968;  142,727; 9784,247;11,84710
1001,08; 1208,068;  107,228; 9686,947;11,49136
1001,63; 1221,868;  153,027; 9649,647;11,25495
1002,18; 1169,068;   83,728; 9424,147;11,61982
1002,73; 1197,667;  138,327; 9412,947;11,42192
1003,28; 1177,767;  124,327; 9381,947;11,37917
1003,83; 1154,767;  125,927; 9218,247;11,31548
1004,38; 1180,368;  149,928; 9191,647;11,39650
1004,93; 1147,468;  126,027; 9120,247;11,35663
1005,48; 1130,368;  116,827; 9054,348;11,34028
1006,03; 1106,068;  117,927; 9005,947;11,11766
1006,58; 1097,767;  111,128; 8858,647;11,27908
1007,13; 1104,568;  107,927; 8851,247;11,39887
1007,68; 1092,368;  104,728; 8818,747;11,33392
1008,23; 1085,068;  133,727; 8715,848;11,08514
1008,78; 1096,068;  112,027; 8711,147;11,44350
1009,33; 1081,167;  130,327; 8604,447;11,22052
1009,88; 1044,167;   88,228; 8605,447;11,22362
1010,43; 1055,468;  124,228; 8525,848;11,08405
1010,98; 1043,267;   99,827; 8492,447;11,24130
1011,52; 1024,368;   95,827; 8398,447;11,18370
1012,07; 1043,667;  150,327; 8388,247;10,84424
1012,62; 1002,068;  104,628; 8320,747;10,92292
1013,17;  994,968;  113,128; 8276,947;10,80181
1013,72;  957,167;   95,728; 8223,848;10,59827
1014,27;  964,167;  121,228; 8163,047;10,48196
1014,82;  938,468;   95,728; 7981,147;10,68732
1015,37;  912,568;   94,128; 7887,848;10,50128
1015,92;  899,768;  118,427; 7731,447;10,26321
1016,47;  861,768;  102,628; 7596,447;10,13021
1017,02;  843,768;   93,128; 7494,047;10,14252
1017,57;  848,268;  112,527; 7367,248;10,14154
1018,11;  805,367;   99,827; 7284,647; 9,81987
1018,66;  828,367;  130,928; 7236,947; 9,81478
1019,21;  804,068;  112,327; 7082,447; 9,92436
1019,76;  772,968;   93,628; 6976,348; 9,87023
1020,31;  767,167;   98,827; 6900,348; 9,82633
1020,86;  771,568;   93,927; 6846,248;10,03566
1021,41;  748,468;   94,827; 6743,047; 9,83181
1021,96;  737,367;  104,128; 6702,147; 9,59742
1022,50;  749,068;  133,027; 6633,047; 9,47751
1023,05;  732,167;  100,128; 6498,748; 9,87775
1023,60;  721,268;  102,628; 6447,947; 9,74955
1024,15;  682,068;   86,927; 6297,348; 9,58293
1024,70;  695,068;  117,427; 6274,447; 9,38181
1025,25;  677,468;   97,728; 6228,447; 9,45631
1025,79;  693,167;  122,228; 6171,147; 9,43871
1026,34;  664,968;  101,427; 6090,447; 9,40955
1026,89;  664,968;  114,827; 6060,147; 9,25333
1027,44;  652,068;  104,827; 5966,348; 9,33614
1027,99;  641,468;  103,027; 5876,547; 9,32603
1028,53;  626,968;   96,728; 5813,647; 9,27492
1029,08;  641,867;  116,628; 5784,147; 9,26755
1029,63;  620,568;  115,327; 5690,348; 9,06257
1030,18;  613,867;  103,027; 5656,147; 9,19915
1030,73;  590,468;   96,027; 5543,647; 9,07626
1031,27;  571,667;   96,027; 5490,147; 8,81775
1031,82;  576,468;   88,827; 5398,447; 9,18409
1032,37;  596,667;  108,527; 5371,147; 9,27561
1032,92;  574,968;  115,827; 5293,348; 8,86795
1033,46;  572,768;  100,228; 5164,647; 9,33059
1034,01;  550,468;   93,927; 5108,748; 9,10382
1034,56;  559,167;  117,728; 5101,348; 8,85782
1035,11;  540,167;  107,128; 5004,248; 8,84275
1035,65;  540,167;  101,527; 4981,547; 8,98849
1036,20;  512,867;   92,927; 4950,047; 8,64586
1036,75;  553,768;  122,728; 4905,848; 9,01169
1037,29;  514,867;  103,927; 4828,647; 8,69766
1037,84;  499,568;   94,527; 4709,147; 8,77732
1038,39;  502,367;  103,827; 4639,547; 8,78670
1038,94;  473,168;   75,728; 4562,848; 8,85735
1039,48;  488,767;   96,628; 4571,947; 8,76228
1040,03;  492,568;  112,427; 4492,248; 8,67935
1040,58;  459,068;   98,128; 4393,447; 8,40310
1041,12;  464,867;  107,827; 4359,547; 8,39754
1041,67;  446,168;  109,128; 4320,947; 8,00224
1042,22;  467,367;  120,527; 4276,447; 8,34569
1042,76;  433,467;   99,827; 4151,447; 8,23473
1043,31;  442,967;  110,728; 4086,548; 8,35651
1043,86;  433,668;  114,628; 4037,647; 8,13251
1044,40;  426,867;  110,327; 4005,847; 8,12574
1044,95;  419,967;  115,228; 3962,147; 7,92166
1045,50;  390,967;   84,628; 3881,548; 8,06812
1046,04;  430,668;  120,628; 3843,548; 8,32787
1046,59;  374,467;   97,927; 3796,548; 7,47684
1047,13;  415,668;  126,128; 3766,347; 7,95392
1047,68;  391,568;  119,427; 3689,948; 7,62186
1048,23;  386,568;  123,228; 3670,847; 7,42301
1048,77;  368,068;  105,628; 3606,948; 7,49546
1049,32;  374,367;  108,228; 3568,048; 7,69231
1049,86;  377,367;   99,027; 3502,847; 8,17728
1050,41;  339,467;   91,527; 3451,248; 7,37978
1050,96;  362,168;  113,628; 3423,347; 7,50940
1051,50;  368,867;  104,927; 3366,948; 8,09131
1052,05;  360,068;  119,427; 3347,448; 7,45472
1052,59;  331,767;   99,827; 3256,748; 7,34703
1053,14;  325,568;   95,427; 3219,948; 7,36561
1053,69;  334,867;  104,128; 3185,448; 7,48835
1054,23;  354,767;  118,427; 3134,748; 7,83538
1054,78;  337,867;  114,628; 3053,847; 7,59521
1055,32;  357,467;  130,027; 3055,548; 7,77434
1055,87;  303,767;   86,128; 2966,347; 7,55637
1056,41;  300,668;   96,128; 2919,548; 7,24441
1056,96;  308,068;  107,728; 2911,948; 7,14423
1057,50;  341,967;  124,427; 2892,048; 7,86018
1058,05;  266,068;   76,527; 2784,248; 6,99999
1058,59;  309,568;  112,128; 2788,548; 7,37702
1059,14;  305,967;  117,527; 2774,748; 7,09162
1059,68;  280,967;   85,827; 2677,147; 7,53053
1060,23;  315,367;  130,928; 2707,448; 7,15849
1060,77;  301,867;  112,728; 2641,347; 7,47997
1061,32;  297,668;  122,628; 2596,847; 7,07455
1061,86;  291,867;  115,827; 2570,748; 7,17091
1062,41;  282,668;  106,128; 2522,048; 7,30736
1062,95;  276,668;  101,628; 2446,048; 7,46624
1063,50;  291,168;  119,927; 2427,847; 7,41967
1064,04;  265,668;  101,128; 2392,548; 7,18070
1064,59;  282,068;  124,427; 2369,948; 7,02020
1065,13;  263,967;  122,327; 2316,948; 6,45396
1065,68;  262,068;  125,128; 2272,948; 6,37577
1066,22;  267,867;  117,427; 2267,748; 6,99617
1066,76;  284,168;  137,027; 2243,448; 6,98531
1067,31;  249,268;  105,927; 2185,248; 6,89360
1067,85;  249,867;  102,728; 2165,948; 7,13157
1068,40;  253,467;  117,927; 2147,847; 6,67711
1068,94;  248,068;  102,327; 2097,548; 7,30446
1069,49;  242,867;  100,128; 2098,048; 7,14443
1070,03;  241,268;  102,628; 2031,848; 7,18632
1070,57;  220,167;  100,427; 2008,147; 6,27660
1071,12;  204,467;   90,327; 1958,448; 6,10989
1071,66;  275,168;  145,327; 2002,448; 6,99147
1072,21;  232,867;  124,427; 1952,047; 5,93340
1072,75;  234,967;  112,427; 1928,547; 6,74735
1073,29;  204,967;   92,427; 1865,047; 6,34879
1073,84;  227,568;  107,728; 1884,848; 6,74350
1074,38;  208,867;  104,427; 1862,448; 5,94077
1074,92;  236,667;  121,027; 1845,547; 6,70563
1075,47;  235,967;  134,327; 1822,448; 6,02090
1076,01;  240,667;  137,628; 1818,647; 6,12961
1076,56;  228,068;  102,027; 1735,848; 7,71444
1077,10;  202,867;   87,628; 1681,248; 7,23133
1077,64;  209,268;   99,628; 1726,147; 6,74077
1078,19;  240,467;  129,628; 1703,948; 7,04050
1078,73;  221,467;  123,527; 1661,248; 6,36917
1079,27;  231,068;  128,227; 1683,848; 6,61087
1079,81;  234,268;  136,727; 1662,547; 6,39263
1080,36;  216,367;  113,327; 1624,547; 6,81833
1080,90;  208,268;  107,228; 1608,848; 6,72873
1081,44;  202,867;  103,027; 1572,647; 6,79359
1081,99;  174,667;   81,728; 1551,748; 6,32236
1082,53;  220,568;  125,527; 1540,147; 6,71841
1083,07;  206,867;  122,827; 1522,147; 6,00577
1083,62;  206,967;  121,128; 1502,948; 6,21210
1084,16;  189,167;  112,228; 1487,248; 5,59555
1084,70;  200,367;  121,327; 1481,848; 5,80954
1085,24;  213,068;  117,527; 1450,948; 7,16503
1085,79;  193,768;  109,728; 1423,147; 6,39856
1086,33;  187,768;  100,628; 1400,047; 6,70607
1086,87;  196,367;  122,228; 1391,448; 5,84138
1087,41;  183,268;  106,827; 1360,547; 6,09706
1087,96;  204,867;  131,827; 1364,748; 5,92415
1088,50;  189,667;  102,628; 1345,848; 7,00117
1089,04;  204,367;  138,727; 1334,147; 5,49096
1089,58;  167,867;   93,427; 1286,848; 6,23754
1090,13;  176,268;  113,628; 1273,848; 5,39898
1090,67;  187,867;  114,728; 1274,948; 6,30398
1091,21;  168,467;  111,228; 1250,848; 5,02273
1091,75;  171,467;  112,327; 1235,948; 5,26335
1092,29;  193,167;  121,427; 1240,647; 6,40982
1092,84;  177,068;  104,628; 1213,147; 6,53484
1093,38;  213,467;  134,128; 1226,448; 7,26344
1093,92;  189,967;  128,027; 1210,748; 5,72078
1094,46;  193,967;  128,527; 1207,248; 6,06645
1095,00;  160,667;  110,228; 1150,448; 4,84897
1095,54;  168,167;   92,027; 1139,547; 7,26860
1096,09;  175,068;  113,128; 1144,047; 6,00823
1096,63;  191,768;  130,527; 1128,647; 6,13554
1097,17;  178,568;  109,427; 1108,147; 6,92286
1097,71;  186,068;  126,128; 1099,248; 6,15957
1098,25;  152,068;   97,927; 1059,547; 5,63008
1098,79;  184,367;  124,728; 1078,647; 6,25210
1099,33;  183,967;  117,728; 1040,147; 7,18111
1099,88;  176,367;  118,628; 1035,848; 6,29511
1100,42;  145,967;  103,628; 1000,747; 4,71955

