C.AURIGANS SIN MEDIO_M
Integration time [ms]:   8,000
Averaging Nr. [scans]: 10
Smoothing Nr. [pixels]: 0
Data measured with spectrometer [name]: 7314920SP
Wave   ;Sample   ;Dark     ;Reference;Reflectance
[nm]   ;[counts] ;[counts] ;[counts] ;[%]

 199,42;   92,598;   72,222;  210,244;14,76329
 200,02;  104,789;  102,008;  189,811; 3,16768
 200,62;   77,982;   74,992;  115,875; 7,31348
 201,22;  104,346;   92,709;  193,470;11,54894
 201,82;   93,868;   64,025;  211,220;20,27452
 202,42;  106,904;   95,408;  188,025;12,41256
 203,03;   62,276;   55,806;  149,594; 6,89896
 203,63;   89,534;   65,404;  161,149;25,20222
 204,23;   83,829;   81,415;  188,764; 2,24884
 204,83;   92,763;   76,103;  162,076;19,37757
 205,43;   65,298;   65,122;  182,444; 0,15049
 206,03;   69,077;   56,103;  131,590;17,18745
 206,63;   78,608;   81,096;  130,910;-4,99489
 207,24;  101,153;   77,929;  242,810;14,08541
 207,84;   54,592;   57,902;  135,404;-4,27197
 208,44;   58,846;   59,009;  153,170;-0,17333
 209,04;   55,494;   53,697;  112,596; 3,05099
 209,64;   96,485;   72,519;  200,426;18,73681
 210,24;   65,763;   50,503;  130,176;19,15263
 210,84;   70,032;   60,310;  167,756; 9,04817
 211,44;   86,374;   86,511;  189,701;-0,13320
 212,05;   72,394;   61,997;  128,496;15,63472
 212,65;   69,076;   75,406;  151,694;-8,29697
 213,25;  104,804;   96,208;  175,325;10,86510
 213,85;   96,736;   84,098;  157,241;17,27801
 214,45;   75,963;   59,703;  144,876;19,08994
 215,05;   38,332;   46,810;  150,056;-8,21148
 215,65;   66,317;   64,010;  156,742; 2,48790
 216,25;   50,663;   47,903;  131,676; 3,29399
 216,85;   45,961;   45,209;  131,084; 0,87527
 217,45;   64,176;   61,406;  140,794; 3,48969
 218,05;   70,731;   56,513;  170,560;12,46676
 218,66;   44,675;   35,109;  126,597;10,45643
 219,26;   41,034;   40,904;  108,649; 0,19158
 219,86;   57,658;   30,415;  147,291;23,30988
 220,46;   76,645;   62,212;  165,774;13,93651
 221,06;   70,329;   50,415;  173,264;16,21031
 221,66;   70,486;   49,317;  185,122;15,58811
 222,26;   60,685;   47,619;  163,026;11,32138
 222,86;   71,233;   70,807;  163,753; 0,45819
 223,46;   59,163;   54,503;  138,276; 5,56203
 224,06;   70,444;   63,215;  169,877; 6,77740
 224,66;   71,902;   59,613;  169,732;11,15912
 225,26;   64,388;   55,111;  162,715; 8,62180
 225,86;   75,342;   43,521;  183,285;22,76770
 226,46;   72,818;   58,307;  160,639;14,18041
 227,06;   44,302;   30,313;  143,532;12,35510
 227,66;   47,651;   58,298;  114,355;-18,99408
 228,27;   42,345;   40,012;  159,574; 1,95118
 228,87;   97,716;   91,313;  208,446; 5,46657
 229,47;   53,771;   37,020;  166,312;12,95573
 230,07;   26,988;   18,811;  112,215; 8,75487
 230,67;   53,361;   40,209;  142,184;12,89694
 231,27;   44,745;   30,212;  143,374;12,84258
 231,87;   57,161;   40,109;  147,584;15,86570
 232,47;   75,382;   59,528;  218,437; 9,97667
 233,07;   51,523;   37,496;  115,524;17,97654
 233,67;   75,476;   55,906;  155,694;19,61197
 234,27;   28,177;   20,103;  106,490; 9,34667
 234,87;   51,558;   43,315;  164,991; 6,77516
 235,47;   31,288;   20,211;  136,915; 9,49188
 236,07;   44,178;   29,800;  113,786;17,11976
 236,67;   57,121;   59,802;  134,031;-3,61195
 237,27;   55,569;   47,023;  174,316; 6,71430
 237,87;   50,002;   44,213;  155,532; 5,19976
 238,47;   24,189;   24,408;  124,611;-0,21823
 239,07;   52,799;   26,119;  172,740;18,19692
 239,67;   78,694;   47,333;  213,158;18,91199
 240,27;   64,642;   43,621;  186,385;14,72434
 240,87;   76,655;   59,423;  199,102;12,33685
 241,47;   52,524;   48,693;   99,120; 7,59640
 242,07;   56,547;   48,007;  129,466;10,48457
 242,67;   17,884;    5,722;  135,930; 9,34025
 243,27;   31,663;   23,603;  102,476;10,21829
 243,87;   69,744;   50,915;  171,077;15,66957
 244,47;   54,129;   43,215;  154,464; 9,81058
 245,07;   16,732;   13,110;  116,356; 3,50805
 245,67;   47,076;   43,706;  124,694; 4,16160
 246,27;   44,108;   36,296;  104,710;11,41856
 246,87;   45,533;   29,007;  121,153;17,93451
 247,46;   14,982;   12,792;   58,475; 4,79387
 248,06;   48,231;   21,613;  126,060;25,48462
 248,66;   58,685;   43,719;  153,526;13,62907
 249,26;   39,478;   30,300;  102,586;12,69708
 249,86;   52,942;   44,721;  160,885; 7,07713
 250,46;   36,867;    4,828;  172,023;19,16264
 251,06;   30,676;   30,406;  103,194; 0,37149
 251,66;   29,773;   18,014;  130,305;10,47160
 252,26;   46,649;   40,501;  110,659; 8,76387
 252,86;   46,032;   26,710;  135,356;17,78423
 253,46;    7,563;   -0,997;   71,476;11,81057
 254,06;   61,993;   46,300;  117,300;22,10281
 254,66;   52,398;   43,622;  156,244; 7,79295
 255,26;   63,427;   47,221;  183,271;11,91197
 255,86;   41,224;   53,693;   90,620;-33,76767
 256,46;   44,674;   27,311;  117,701;19,20852
 257,05;   39,387;   24,314;  137,219;13,35060
 257,65;   58,258;   55,915;  159,191; 2,26942
 258,25;   62,771;   44,920;  174,412;13,78519
 258,85;   40,232;   24,210;  114,956;17,65571
 259,45;   14,361;   13,309;  104,284; 1,15596
 260,05;   42,563;   39,503;  115,376; 4,03236
 260,65;   51,349;   49,901;  110,459; 2,39201
 261,25;   47,744;   35,715;  144,777;11,02941
 261,85;    9,801;    3,916;  117,036; 5,20191
 262,45;   64,232;   58,110;  146,656; 6,91382
 263,04;   63,413;   54,121;  181,157; 7,31400
 263,64;   43,719;   46,104;  120,435;-3,20873
 264,24;   51,615;   50,116;  169,050; 1,26057
 264,84;   89,497;   72,525;  200,347;13,27827
 265,44;   37,591;   27,105;  102,308;13,94274
 266,04;   55,922;   40,299;  110,528;22,24557
 266,64;   43,721;   46,002;  130,331;-2,70503
 267,24;   49,421;   37,402;  107,331;17,18708
 267,84;   36,104;   35,308;  124,625; 0,89139
 268,43;   60,862;   63,006;  136,180;-2,93062
 269,03;   68,675;   52,609;  143,797;17,61889
 269,63;   76,064;   71,300;  125,873; 8,72864
 270,23;   13,151;   18,498;   87,355;-7,76612
 270,83;   61,549;   57,001;  121,259; 7,07859
 271,43;   41,805;   42,005;  112,221;-0,28470
 272,03;   70,091;   66,705;  133,008; 5,10578
 272,62;   27,517;   31,410;  109,542;-4,98245
 273,22;   20,916;   11,613;  120,746; 8,52460
 273,82;   26,971;   23,684;   41,950;17,99411
 274,42;   24,809;   31,194;   62,506;-20,38854
 275,02;   37,837;   37,396;   87,038; 0,88947
 275,62;   59,071;   49,620;  176,012; 7,47733
 276,21;   38,059;   22,012;  119,787;16,41278
 276,81;   49,792;   46,802;  100,904; 5,52513
 277,41;   45,172;   34,617;  138,809;10,13010
 278,01;   27,937;   30,596;   62,038;-8,45507
 278,61;   61,146;   53,409;  127,970;10,37650
 279,20;   77,342;   66,621;  179,185; 9,52443
 279,80;    6,041;    2,887;   19,827;18,61539
 280,40;   56,478;   49,500;  111,686;11,22152
 281,00;   21,146;   -1,591;   79,870;27,91138
 281,60;   41,612;   24,024;  147,561;14,23663
 282,20;   46,474;   44,011;  129,701; 2,87380
 282,79;   48,662;   32,006;  103,580;23,27043
 283,39;   27,764;   24,500;   69,873; 7,19253
 283,99;   31,323;   24,796;   62,724;17,20822
 284,59;   28,303;   11,311;   95,329;20,22449
 285,19;   44,677;   27,803;   93,790;25,57213
 285,78;   33,274;   26,011;  114,401; 8,21650
 286,38;   49,108;   46,196;   90,310; 6,60081
 286,98;   42,662;   42,206;  104,180; 0,73507
 287,58;   32,129;   10,015;  106,264;22,97610
 288,17;   28,727;   30,221;  134,771;-1,42874
 288,77;   45,895;   25,130;  160,455;15,34445
 289,37;   25,532;    7,610;  106,556;18,11276
 289,97;   42,323;   51,596;   89,824;-24,25798
 290,57;   55,943;   40,218;  142,281;15,40712
 291,16;   84,691;   62,005;  153,508;24,79202
 291,76;   23,516;    9,813;  111,846;13,43011
 292,36;   36,934;   34,804;   91,949; 3,72701
 292,96;   18,456;   12,920;  112,799; 5,54268
 293,55;   36,292;   24,302;   95,904;16,74434
 294,15;   28,559;   21,012;  117,487; 7,82343
 294,75;   47,008;   46,296;   87,510; 1,72724
 295,35;   33,991;   30,905;   87,208; 5,47979
 295,94;   44,306;   47,602;  101,718;-6,09064
 296,54;   34,218;   20,307;  102,039;17,02040
 297,14;   52,686;   35,817;  149,522;14,83614
 297,73;   25,065;   23,498;   65,969; 3,69032
 298,33;   53,593;   41,300;   94,600;23,06377
 298,93;   39,033;   47,607;  131,952;-10,16549
 299,53;   42,614;   21,519;  133,654;18,81244
 300,12;   16,086;    5,217;  115,922; 9,81842
 300,72;   59,019;   58,004;  131,835; 1,37469
 301,32;   56,558;   37,415;  153,391;16,50660
 301,92;   20,295;   15,294;   52,693;13,37198
 302,51;   39,048;   22,804;   94,763;22,57489
 303,11;   21,777;   21,403;   92,290; 0,52806
 303,71;   34,689;   25,908;  111,711;10,23427
 304,30;   23,807;   24,399;   89,214;-0,91347
 304,90;   31,993;   22,400;   83,400;15,72627
 305,50;   48,151;   35,598;   93,655;21,62093
 306,09;   38,478;   27,100;  107,186;14,20749
 306,69;   56,415;   37,316;  149,950;16,95690
 307,29;   28,485;   40,383;   43,764;-351,92439
 307,88;   58,903;   51,611;  142,529; 8,02067
 308,48;   17,745;    7,612;  111,974; 9,70938
 309,08;    9,711;    6,391;   47,803; 8,01631
 309,68;   24,865;   25,198;   76,769;-0,64508
 310,27;   27,117;    3,310;  109,342;22,45268
 310,87;   36,718;   40,507;  113,439;-5,19527
 311,47;   64,763;   52,803;  134,376;14,66107
 312,06;   45,079;   54,797;   99,183;-21,89423
 312,66;   63,491;   58,605;  130,408; 6,80375
 313,26;   67,373;   57,714;  154,805; 9,94805
 313,85;   52,377;   48,603;  102,090; 7,05651
 314,45;   58,246;   43,309;  124,070;18,49513
 315,04;   59,679;   52,497;  102,883;14,25447
 315,64;   27,819;   32,204;   92,535;-7,26840
 316,24;   61,345;   45,412;  136,874;17,42029
 316,83;   42,478;   44,800;  109,286;-3,60039
 317,43;   46,205;   34,805;  112,521;14,66884
 318,03;   51,953;   46,992;  105,248; 8,51481
 318,62;   74,369;   83,886;  116,254;-29,40281
 319,22;   25,204;   23,508;  114,325; 1,86767
 319,82;   52,591;   41,505;  135,108;11,84293
 320,41;   63,089;   50,808;  152,511;12,07566
 321,01;   93,651;   87,098;  148,755;10,62729
 321,60;   78,809;   75,494;  138,706; 5,24543
 322,20;   74,098;   57,422;  215,744;10,53333
 322,80;   58,519;   51,404;  154,635; 6,89228
 323,39;   54,252;   51,895;  113,651; 3,81565
 323,99;   68,149;   62,501;  142,359; 7,07326
 324,59;   75,953;   68,792;  121,248;13,65033
 325,18;   54,948;   47,504;  158,863; 6,68526
 325,78;   81,165;   66,698;  150,369;17,29068
 326,37;   81,976;   65,706;  177,794;14,51573
 326,97;   75,319;   72,204;  176,935; 2,97423
 327,57;   48,182;   49,692;  114,875;-2,31651
 328,16;   61,324;   66,793;  136,120;-7,88924
 328,76;   77,806;   65,802;  159,418;12,82268
 329,35;   89,258;   70,715;  202,591;14,06147
 329,95;   51,674;   46,311;  172,301; 4,25634
 330,54;   63,063;   57,403;  166,676; 5,17921
 331,14;   55,592;   37,202;  149,004;16,44808
 331,74;   68,451;   65,898;  158,355; 2,76072
 332,33;   62,045;   36,712;  182,074;17,42749
 332,93;   55,295;   48,294;  153,293; 6,66764
 333,52;   57,464;   51,300;  173,173; 5,05727
 334,12;   85,375;   76,609;  216,397; 6,27123
 334,71;   51,378;   55,600;  177,586;-3,46085
 335,31;   77,377;   68,403;  194,790; 7,10066
 335,90;   31,068;   38,089;  116,458;-8,95884
 336,50;   37,408;   31,796;  151,710; 4,67991
 337,10;   68,517;   43,110;  224,742;13,98820
 337,69;   58,708;   58,596;  164,910; 0,10522
 338,29;   51,834;   38,604;  183,549; 9,12747
 338,88;   44,433;   36,207;  199,452; 5,03895
 339,48;   74,283;   69,289;  185,372; 4,30205
 340,07;   64,535;   51,901;  214,445; 7,77250
 340,67;   46,258;   44,015;  244,991; 1,11644
 341,26;   70,678;   52,500;  219,286;10,89913
 341,86;   90,788;   73,011;  274,415; 8,82674
 342,45;   74,103;   51,411;  255,729;11,10633
 343,05;   58,803;   41,711;  268,829; 7,52571
 343,64;   59,221;   62,602;  262,431;-1,69201
 344,24;   55,808;   33,096;  233,710;11,32119
 344,83;   80,823;   72,396;  265,724; 4,35876
 345,43;   60,606;   42,302;  272,018; 7,96812
 346,02;   51,861;   43,109;  299,884; 3,40829
 346,62;   73,173;   49,414;  334,805; 8,32495
 347,21;   59,865;   56,098;  304,069; 1,51926
 347,81;   58,843;   33,118;  351,481; 8,08040
 348,40;   46,824;   34,893;  282,320; 4,82188
 349,00;   68,053;   60,892;  331,448; 2,64653
 349,59;   90,816;   71,813;  420,746; 5,44608
 350,19;   55,073;   44,914;  383,305; 3,00204
 350,78;   56,977;   51,303;  373,790; 1,75955
 351,38;   33,361;   30,009;  377,584; 0,96429
 351,97;   48,706;   42,702;  406,118; 1,65211
 352,57;   60,845;   52,312;  422,774; 2,30331
 353,16;   49,552;   39,295;  383,751; 2,97756
 353,76;   63,016;   46,613;  467,346; 3,89871
 354,35;   56,788;   17,411;  484,915; 8,42290
 354,95;   75,359;   51,712;  515,687; 5,09676
 355,54;   64,404;   38,008;  504,925; 5,65329
 356,14;   67,288;   42,611;  534,915; 5,01263
 356,73;   54,483;   52,589;  490,871; 0,43213
 357,32;   42,689;   26,908;  533,411; 3,11574
 357,92;   46,028;   36,718;  583,967; 1,70127
 358,51;   74,114;   51,519;  631,554; 3,89551
 359,11;   61,443;   47,018;  646,981; 2,40432
 359,70;   55,487;   30,014;  629,419; 4,24980
 360,30;   63,541;   58,187;  603,727; 0,98129
 360,89;   42,233;   25,007;  639,453; 2,80348
 361,48;   80,259;   54,112;  712,987; 3,96853
 362,08;   43,405;   25,005;  677,021; 2,82203
 362,67;   43,682;   33,892;  669,375; 1,54056
 363,27;   80,048;   64,804;  752,763; 2,21592
 363,86;   60,751;   36,998;  746,555; 3,34751
 364,46;   80,424;   56,393;  812,720; 3,17728
 365,05;   90,544;   75,379;  800,115; 2,09250
 365,64;   85,043;   53,582;  858,719; 3,90755
 366,24;   94,131;   39,876;  899,498; 6,31140
 366,83;   99,234;   64,668; 1001,887; 3,68814
 367,43;  109,961;   69,837; 1018,860; 4,22792
 368,02;  117,087;   44,141; 1136,095; 6,68030
 368,61;  155,296;   63,919; 1250,365; 7,70175
 369,21;  117,890;   44,061; 1249,760; 6,12340
 369,80;  155,063;   59,322; 1383,066; 7,23253
 370,39;  182,978;   60,519; 1588,676; 8,01351
 370,99;  169,713;   42,468; 1618,624; 8,07309
 371,58;  166,830;   33,423; 1699,364; 8,00792
 372,18;  190,468;   38,200; 1809,762; 8,59514
 372,77;  181,245;   50,550; 1827,654; 7,35435
 373,36;  207,748;   52,342; 1852,343; 8,63367
 373,96;  181,447;   53,009; 1748,685; 7,57446
 374,55;  164,623;   39,534; 1728,804; 7,40487
 375,14;  157,059;   37,250; 1608,468; 7,62524
 375,74;  172,222;   73,973; 1533,970; 6,72934
 376,33;  123,042;   50,595; 1398,327; 5,37543
 376,92;  110,983;   41,936; 1361,138; 5,23400
 377,52;  175,124;   93,712; 1534,810; 5,64926
 378,11;  140,610;   61,010; 1438,393; 5,77911
 378,71;  148,572;   79,636; 1530,799; 4,75036
 379,30;  142,950;   57,953; 1617,807; 5,44904
 379,89;  148,569;   56,742; 1639,606; 5,80136
 380,49;  133,464;   31,556; 1680,725; 6,17935
 381,08;  163,549;   81,520; 1641,749; 5,25752
 381,67;  150,733;   58,726; 1650,543; 5,77997
 382,26;  120,849;   44,520; 1663,849; 4,71364
 382,86;  133,453;   51,912; 1684,538; 4,99447
 383,45;  131,442;   63,740; 1765,375; 3,97863
 384,04;  126,070;   52,739; 1794,203; 4,21091
 384,64;  140,583;   47,044; 1831,224; 5,24266
 385,23;  149,220;   71,621; 1827,321; 4,41986
 385,82;  145,109;   55,649; 1889,958; 4,87706
 386,42;  177,899;   67,274; 1996,892; 5,73300
 387,01;  145,912;   67,543; 1922,351; 4,22514
 387,60;  162,346;   76,228; 1970,060; 4,54726
 388,20;  137,142;   48,340; 2018,675; 4,50694
 388,79;  175,620;   83,357; 2123,583; 4,52222
 389,38;  116,649;   54,020; 2028,549; 3,17186
 389,97;  136,438;   58,048; 2147,386; 3,75191
 390,57;  166,839;   74,645; 2194,082; 4,34993
 391,16;  151,239;   77,945; 2258,282; 3,36159
 391,75;  127,655;   56,642; 2278,892; 3,19553
 392,34;  151,146;   65,865; 2381,022; 3,68361
 392,94;  138,592;   55,558; 2418,156; 3,51451
 393,53;  114,752;   38,151; 2418,703; 3,21778
 394,12;  147,600;   61,871; 2581,588; 3,40233
 394,72;  139,840;   73,643; 2576,379; 2,64502
 395,31;  132,109;   50,649; 2629,658; 3,15859
 395,90;  137,085;   41,475; 2732,778; 3,55256
 396,49;  143,695;   59,286; 2807,207; 3,07175
 397,09;  132,536;   56,254; 2772,993; 2,80786
 397,68;  168,327;   64,576; 2914,023; 3,64109
 398,27;  162,325;   63,382; 3016,531; 3,35042
 398,86;  141,369;   53,778; 3036,468; 2,93666
 399,45;  160,592;   61,894; 3185,318; 3,15992
 400,05;  133,862;   47,961; 3091,132; 2,82272
 400,64;  162,563;   67,859; 3225,428; 2,99927
 401,23;  148,904;   55,563; 3253,277; 2,91898
 401,82;  160,904;   63,863; 3288,777; 3,00910
 402,42;  153,832;   66,665; 3369,608; 2,63906
 403,01;  177,427;   77,976; 3502,223; 2,90431
 403,60;  182,076;   73,197; 3538,808; 3,14169
 404,19;  183,556;   80,976; 3582,651; 2,92947
 404,78;  149,316;   68,668; 3550,598; 2,31618
 405,38;  173,004;   77,499; 3734,039; 2,61188
 405,97;  155,854;   55,281; 3700,958; 2,75868
 406,56;  185,452;   76,387; 3843,565; 2,89513
 407,15;  163,236;   68,690; 3813,955; 2,52442
 407,74;  195,735;   86,793; 3924,359; 2,83883
 408,34;  154,675;   59,000; 3935,712; 2,46794
 408,93;  169,319;   64,696; 4017,449; 2,64685
 409,52;  161,900;   55,908; 4063,050; 2,64510
 410,11;  193,090;   90,297; 4169,222; 2,52012
 410,70;  163,082;   58,983; 4135,689; 2,55349
 411,29;  169,781;   65,186; 4164,293; 2,55164
 411,89;  183,957;   71,609; 4289,809; 2,66342
 412,48;  154,166;   55,186; 4249,779; 2,35970
 413,07;  180,074;   66,503; 4362,416; 2,64370
 413,66;  177,586;   69,808; 4401,236; 2,48828
 414,25;  187,269;   80,814; 4542,030; 2,38624
 414,84;  179,419;   72,596; 4521,849; 2,40093
 415,44;  201,564;   92,492; 4528,687; 2,45868
 416,03;  180,327;   72,912; 4620,185; 2,36218
 416,62;  191,354;   78,017; 4684,620; 2,46031
 417,21;  176,702;   74,205; 4680,046; 2,22537
 417,80;  180,255;   82,814; 4723,417; 2,09974
 418,39;  196,381;   83,422; 4766,355; 2,41213
 418,98;  170,159;   59,003; 4695,202; 2,39757
 419,58;  181,517;   70,002; 4754,557; 2,38049
 420,17;  157,629;   54,107; 4792,378; 2,18482
 420,76;  190,227;   82,012; 4871,985; 2,25919
 421,35;  174,743;   66,309; 4790,295; 2,29538
 421,94;  198,881;   87,322; 4907,955; 2,31419
 422,53;  191,452;   66,423; 4867,228; 2,60433
 423,12;  188,611;   78,819; 4876,579; 2,28840
 423,71;  172,757;   59,809; 4856,909; 2,35451
 424,30;  194,870;   91,611; 4912,926; 2,14172
 424,90;  160,097;   44,016; 4917,061; 2,38211
 425,49;  189,195;   83,922; 4948,069; 2,16427
 426,08;  195,695;   92,422; 5032,169; 2,09066
 426,67;  166,028;   56,110; 4951,881; 2,24517
 427,26;  190,192;   70,530; 5041,180; 2,40736
 427,85;  171,283;   69,216; 5000,047; 2,06996
 428,44;  196,564;   70,628; 5078,549; 2,51473
 429,03;  196,622;   83,027; 5133,804; 2,24906
 429,62;  191,336;   84,326; 5156,817; 2,10961
 430,21;  199,390;   89,633; 5174,883; 2,15835
 430,80;  178,203;   64,238; 5194,005; 2,22163
 431,39;  166,362;   65,134; 5275,956; 1,94265
 431,99;  175,057;   85,909; 5201,209; 1,74278
 432,58;  207,111;   86,919; 5228,879; 2,33747
 433,17;  164,586;   80,608; 5265,236; 1,61975
 433,76;  207,801;   80,944; 5403,812; 2,38324
 434,35;  203,532;   94,637; 5427,532; 2,04193
 434,94;  214,413;   87,749; 5528,633; 2,32800
 435,53;  206,648;   85,131; 5489,938; 2,24831
 436,12;  185,976;   77,833; 5530,870; 1,98316
 436,71;  200,123;   95,824; 5567,900; 1,90602
 437,30;  196,865;   92,125; 5645,645; 1,88600
 437,89;  202,846;   86,337; 5750,746; 2,05686
 438,48;  187,006;   80,830; 5726,994; 1,88050
 439,07;  194,139;   89,118; 5756,006; 1,85325
 439,66;  224,228;  106,846; 5907,443; 2,02363
 440,25;  211,276;  102,533; 5933,270; 1,86499
 440,84;  219,941;  100,151; 5953,765; 2,04642
 441,43;  218,606;   81,466; 6120,255; 2,27099
 442,02;  187,983;   70,653; 6098,910; 1,94634
 442,61;  219,762;  102,834; 6151,956; 1,93297
 443,20;  216,755;   85,351; 6266,378; 2,12593
 443,79;  195,087;   81,541; 6234,795; 1,84530
 444,38;  212,185;   97,347; 6409,602; 1,81929
 444,97;  215,159;   78,439; 6464,563; 2,14089
 445,56;  238,716;  109,241; 6579,222; 2,00117
 446,15;  224,882;   88,455; 6706,313; 2,06149
 446,74;  190,347;   69,334; 6742,643; 1,81339
 447,33;  207,187;   95,241; 6883,895; 1,64901
 447,92;  225,711;   84,855; 6996,541; 2,03794
 448,51;  235,745;  100,340; 7059,750; 1,94564
 449,10;  235,688;   94,139; 7198,291; 1,99249
 449,69;  226,654;   87,253; 7331,782; 1,92422
 450,28;  218,143;   81,345; 7420,757; 1,86387
 450,87;  230,772;   82,645; 7551,885; 1,98316
 451,46;  232,356;  109,948; 7689,475; 1,61499
 452,05;  226,341;   83,751; 7799,165; 1,84811
 452,64;  226,168;   79,053; 7949,396; 1,86924
 453,23;  266,109;  121,857; 8107,044; 1,80649
 453,82;  229,625;   84,154; 8243,854; 1,78279
 454,40;  233,168;   65,153; 8384,695; 2,01953
 454,99;  260,551;  106,662; 8574,793; 1,81727
 455,58;  221,829;   87,043; 8649,739; 1,57411
 456,17;  228,037;   80,659; 8846,976; 1,68118
 456,76;  228,711;   76,455; 9034,841; 1,69959
 457,35;  245,985;   81,647; 9159,302; 1,81036
 457,94;  241,893;   81,464; 9376,038; 1,72605
 458,53;  230,039;   61,254; 9526,168; 1,78328
 459,12;  266,532;  102,874; 9854,294; 1,67830
 459,71;  227,514;   74,246; 9828,729; 1,57125
 460,30;  253,028;   87,146;10047,144; 1,66549
 460,89;  243,611;   73,955;10215,141; 1,67294
 461,48;  252,893;   79,164;10399,538; 1,68336
 462,06;  254,712;   79,052;10532,938; 1,68033
 462,65;  235,127;   50,349;10614,747; 1,74907
 463,24;  280,262;   97,770;10972,218; 1,67817
 463,83;  242,612;   68,452;11002,037; 1,59289
 464,42;  281,113;   85,649;11187,634; 1,76062
 465,01;  254,468;   73,753;11387,596; 1,59729
 465,60;  252,583;   78,553;11587,810; 1,51209
 466,19;  291,393;   85,064;11761,938; 1,76699
 466,77;  275,182;   85,955;11897,913; 1,60199
 467,36;  275,546;   69,673;12026,008; 1,72187
 467,95;  280,367;   80,156;12155,399; 1,65803
 468,54;  289,435;   89,865;12369,683; 1,62519
 469,13;  284,624;   81,657;12434,158; 1,64312
 469,72;  274,648;   74,968;12666,501; 1,58583
 470,31;  307,019;   85,968;12844,173; 1,73262
 470,90;  282,326;   80,951;12953,451; 1,56438
 471,48;  263,217;   39,174;13142,381; 1,70984
 472,07;  325,515;  121,143;13334,026; 1,54676
 472,66;  297,194;   88,761;13472,034; 1,55742
 473,25;  283,482;   72,055;13588,813; 1,56418
 473,84;  309,792;   61,866;13773,542; 1,80813
 474,43;  295,129;   54,279;14038,502; 1,72230
 475,01;  308,321;   80,066;14139,770; 1,62347
 475,60;  295,263;   49,967;14305,914; 1,72065
 476,19;  325,231;   93,176;14422,298; 1,61946
 476,78;  323,646;   82,173;14542,208; 1,66993
 477,37;  305,563;   58,867;14636,614; 1,69228
 477,95;  324,691;   82,169;14810,445; 1,64664
 478,54;  325,551;   76,062;14981,894; 1,67377
 479,13;  311,551;   63,162;15125,093; 1,64912
 479,72;  334,064;   76,964;15232,811; 1,69637
 480,31;  331,401;   75,880;15418,174; 1,66547
 480,89;  327,921;   70,066;15522,369; 1,66872
 481,48;  306,799;   55,283;15600,078; 1,61801
 482,07;  312,935;   57,765;15750,783; 1,62601
 482,66;  313,036;   68,962;15832,380; 1,54836
 483,25;  355,899;   84,683;15929,778; 1,71168
 483,83;  317,106;   68,466;16050,655; 1,55573
 484,42;  308,293;   63,364;16126,138; 1,52483
 485,01;  322,859;   70,776;16307,025; 1,55260
 485,60;  357,209;   77,194;16445,707; 1,71070
 486,18;  333,091;   67,069;16479,246; 1,62088
 486,77;  343,209;   74,057;16525,145; 1,63607
 487,36;  338,395;   72,094;16711,293; 1,60044
 487,95;  352,327;   70,785;16813,010; 1,68163
 488,53;  352,442;   71,684;16801,322; 1,67820
 489,12;  344,067;   62,692;16952,961; 1,66590
 489,71;  308,412;   39,888;16938,100; 1,58907
 490,30;  357,671;   69,484;17113,451; 1,69084
 490,88;  382,713;   89,585;17127,195; 1,72047
 491,47;  340,553;   69,492;17224,348; 1,58008
 492,06;  349,325;   65,090;17261,617; 1,65286
 492,65;  361,284;   77,986;17233,469; 1,65135
 493,23;  355,514;   68,382;17320,291; 1,66435
 493,82;  353,865;   69,661;17342,307; 1,64540
 494,41;  343,455;   58,487;17437,141; 1,63976
 494,99;  361,192;   84,866;17518,842; 1,58498
 495,58;  386,571;   84,284;17554,650; 1,73028
 496,17;  347,762;   72,370;17509,719; 1,57932
 496,76;  377,291;   93,469;17612,945; 1,62003
 497,34;  356,403;   64,574;17624,666; 1,66188
 497,93;  349,817;   65,474;17590,080; 1,62254
 498,52;  364,372;   75,281;17695,846; 1,64064
 499,10;  380,597;   93,088;17745,086; 1,62876
 499,69;  368,743;   72,282;17776,318; 1,67454
 500,28;  355,701;   45,880;17695,674; 1,75538
 500,86;  373,441;   78,487;17817,127; 1,66277
 501,45;  359,041;   62,587;17787,127; 1,67256
 502,04;  361,212;   74,588;17819,199; 1,61527
 502,62;  371,862;   80,870;17980,617; 1,62567
 503,21;  355,433;   73,771;17892,291; 1,58073
 503,80;  377,983;   80,889;18049,971; 1,65336
 504,38;  370,314;   66,782;18081,592; 1,68490
 504,97;  374,083;   63,789;18149,771; 1,71566
 505,56;  383,344;   86,979;18184,016; 1,63764
 506,14;  394,381;   78,294;18216,379; 1,74267
 506,73;  349,208;   38,396;18106,211; 1,72025
 507,32;  392,651;   77,098;18168,154; 1,74425
 507,90;  389,299;   84,283;18161,578; 1,68729
 508,49;  401,394;   59,197;18255,996; 1,88053
 509,08;  413,324;   77,493;18383,420; 1,83455
 509,66;  406,785;   85,583;18346,564; 1,75895
 510,25;  394,798;   68,886;18430,381; 1,77498
 510,83;  394,108;   75,296;18536,609; 1,72692
 511,42;  421,618;   72,807;18572,838; 1,88546
 512,01;  413,052;   60,695;18642,652; 1,89623
 512,59;  409,583;   62,589;18756,072; 1,85623
 513,18;  417,955;   74,787;18718,840; 1,84063
 513,77;  404,561;   53,173;18818,521; 1,87254
 514,35;  413,439;   48,290;18820,730; 1,94514
 514,94;  444,997;   84,088;18969,385; 1,91106
 515,52;  422,378;   53,000;18990,287; 1,95053
 516,11;  477,723;   92,196;19062,123; 2,03230
 516,69;  445,286;   51,880;18975,660; 2,07890
 517,28;  504,945;  102,676;18976,813; 2,13132
 517,87;  501,774;   69,975;18977,738; 2,28371
 518,45;  544,816;   66,277;19035,684; 2,52269
 519,04;  554,473;   60,478;19057,742; 2,60035
 519,62;  604,325;   53,390;19135,617; 2,88716
 520,21;  653,364;   41,900;19184,572; 3,19424
 520,79;  749,476;   57,406;19303,594; 3,59588
 521,38;  807,356;   58,784;19330,137; 3,88438
 521,97;  938,033;   54,407;19542,053; 4,53429
 522,55; 1046,058;   65,078;19568,729; 5,02973
 523,14; 1147,344;   34,679;19635,314; 5,67668
 523,72; 1351,842;   79,184;19741,822; 6,47246
 524,31; 1499,208;   73,996;19769,811; 7,23612
 524,89; 1692,791;   55,805;20040,607; 8,19115
 525,48; 1818,721;   53,902;20077,531; 8,81368
 526,06; 2003,152;   75,395;20128,451; 9,61328
 526,65; 2223,002;   73,913;20367,232;10,59013
 527,23; 2370,254;   49,890;20330,645;11,44121
 527,82; 2503,548;   51,304;20600,063;11,93378
 528,41; 2654,935;   68,401;20707,045;12,53248
 528,99; 2778,994;   59,097;20783,096;13,12438
 529,58; 2822,168;   47,789;20840,559;13,34300
 530,16; 2932,955;   56,887;21053,141;13,69801
 530,75; 3060,866;   76,995;21260,465;14,08585
 531,33; 3053,321;   49,602;21294,031;14,13885
 531,92; 3091,385;   56,183;21466,564;14,17631
 532,50; 3216,059;  104,412;21786,588;14,35118
 533,09; 3245,436;   83,598;21850,541;14,52587
 533,67; 3308,187;   78,678;22009,957;14,72559
 534,26; 3338,628;   70,982;22162,506;14,79140
 534,84; 3374,784;   66,086;22364,168;14,83849
 535,42; 3422,366;   63,895;22625,564;14,88574
 536,01; 3495,325;   83,690;22830,316;14,99842
 536,59; 3541,764;   54,600;22982,172;15,20948
 537,18; 3597,443;   80,682;23112,119;15,26940
 537,76; 3634,357;   66,517;23531,195;15,20515
 538,35; 3685,047;   75,907;23692,867;15,28199
 538,93; 3699,852;   89,595;23721,951;15,27675
 539,52; 3768,202;   70,313;24095,432;15,39176
 540,10; 3842,317;   75,810;24403,342;15,48249
 540,69; 3885,938;   91,093;24507,135;15,54243
 541,27; 3972,097;   82,888;24822,186;15,72077
 541,85; 4003,193;   59,400;25106,500;15,74551
 542,44; 4027,899;   67,483;25112,178;15,81340
 543,02; 4107,317;   92,310;25576,242;15,75505
 543,61; 4172,063;   96,503;25801,377;15,85520
 544,19; 4196,207;   68,999;26045,113;15,88847
 544,78; 4182,449;   69,301;26190,260;15,74654
 545,36; 4287,446;  100,009;26530,770;15,84304
 545,94; 4281,166;   66,795;26660,564;15,84721
 546,53; 4305,786;   73,917;26816,822;15,82427
 547,11; 4384,604;  105,408;27133,426;15,83245
 547,70; 4398,743;   93,082;27194,020;15,88750
 548,28; 4425,494;   45,797;27442,697;15,98610
 548,86; 4496,094;   87,897;27794,797;15,91011
 549,45; 4518,433;   46,507;27921,453;16,04281
 550,03; 4623,634;   76,004;28138,549;16,20534
 550,62; 4618,578;   70,000;28556,387;15,96755
 551,20; 4691,163;   79,903;28837,176;16,03511
 551,78; 4727,495;   71,094;28870,492;16,16840
 552,37; 4792,066;   58,995;29194,064;16,24527
 552,95; 4842,523;   59,696;29443,123;16,27729
 553,54; 4883,508;   55,296;29695,211;16,28956
 554,12; 4967,620;   74,404;29911,135;16,39997
 554,70; 4992,204;   90,408;30498,525;16,12003
 555,29; 5075,665;   74,598;30497,770;16,43835
 555,87; 5130,931;   61,613;30831,760;16,47479
 556,45; 5137,812;   62,488;31186,799;16,30662
 557,04; 5201,192;   58,902;31462,805;16,37468
 557,62; 5306,692;   63,202;31739,805;16,55319
 558,20; 5357,972;   48,717;32057,809;16,58671
 558,79; 5438,376;  104,406;32384,094;16,52423
 559,37; 5422,163;   53,403;32421,775;16,58644
 559,95; 5509,775;   58,009;32974,496;16,56242
 560,54; 5532,418;   76,907;33105,141;16,51772
 561,12; 5617,949;   61,901;33310,559;16,71059
 561,70; 5679,761;   57,109;33693,484;16,71599
 562,29; 5728,547;   74,007;34096,867;16,61983
 562,87; 5815,733;   81,807;34555,254;16,63288
 563,45; 5853,533;   82,507;34828,051;16,60940
 564,04; 5855,754;   58,590;34728,145;16,72120
 564,62; 5923,790;   63,108;35171,711;16,69301
 565,20; 5999,940;   62,387;35393,527;16,80544
 565,78; 6053,179;   81,397;35845,984;16,69747
 566,37; 6149,093;   67,400;36021,801;16,91502
 566,95; 6156,917;   73,010;36297,043;16,79522
 567,53; 6224,312;   77,488;36631,398;16,81578
 568,12; 6249,694;   61,697;36731,496;16,87491
 568,70; 6319,737;   88,396;37224,637;16,77968
 569,28; 6346,561;   72,909;37518,684;16,75396
 569,86; 6431,377;   69,103;37728,289;16,89435
 570,45; 6504,203;   75,011;38155,730;16,88306
 571,03; 6463,426;   53,588;38139,211;16,83007
 571,61; 6562,373;   57,514;38657,105;16,85214
 572,19; 6631,610;   59,991;38611,504;17,04633
 572,78; 6635,676;   75,906;39057,594;16,82783
 573,36; 6726,666;   86,495;39295,066;16,93551
 573,94; 6710,495;   61,294;39533,691;16,84519
 574,52; 6734,500;   76,080;39699,473;16,80427
 575,11; 6815,124;   48,093;39929,320;16,96796
 575,69; 6869,320;   64,102;40206,430;16,95273
 576,27; 6858,227;   59,785;40348,609;16,87426
 576,85; 6924,166;   40,795;40698,863;16,92990
 577,44; 6950,312;   48,888;40863,898;16,90903
 578,02; 6944,572;   49,881;40926,648;16,86702
 578,60; 7017,709;   62,994;41257,508;16,88263
 579,18; 7021,267;   62,292;41632,262;16,74039
 579,76; 7005,552;   50,795;41594,051;16,74100
 580,35; 6980,574;   68,111;41928,703;16,51305
 580,93; 6982,905;   76,905;42284,422;16,36201
 581,51; 6931,259;   37,412;42435,488;16,25981
 582,09; 6996,540;   66,590;42631,930;16,28073
 582,67; 6968,763;   72,803;42942,875;16,08572
 583,26; 6924,918;   35,007;43231,340;15,95022
 583,84; 6961,281;   39,694;43499,578;15,92638
 584,42; 7003,537;   68,796;43810,539;15,85383
 585,00; 7103,420;   81,602;44189,230;15,91974
 585,58; 7160,992;   37,302;44473,902;16,03113
 586,17; 7269,542;   64,784;44458,621;16,22918
 586,75; 7339,364;   19,300;44482,672;16,46313
 587,33; 7453,148;   63,604;44897,063;16,48221
 587,91; 7605,964;   91,000;45095,574;16,69822
 588,49; 7705,711;   80,188;45246,199;16,88332
 589,07; 7734,291;   60,505;45233,109;16,98770
 589,65; 7714,206;   46,902;45181,918;16,98748
 590,24; 7770,926;   58,588;45293,613;17,04948
 590,82; 7729,484;   35,086;45274,168;17,00830
 591,40; 7740,880;   58,994;45434,578;16,92956
 591,98; 7636,786;   54,580;45384,961;16,72654
 592,56; 7685,184;   72,486;45642,168;16,70562
 593,14; 7609,986;   45,880;45612,262;16,60019
 593,72; 7526,608;   50,996;45797,711;16,34131
 594,30; 7419,972;   52,581;45818,848;16,09786
 594,89; 7330,751;   57,095;45617,051;15,96502
 595,47; 7199,142;   52,484;45796,723;15,62308
 596,05; 7004,992;   39,602;45930,805;15,17805
 596,63; 6977,792;   54,302;46063,105;15,04818
 597,21; 6908,878;   55,000;46049,988;14,90136
 597,79; 6806,406;   45,002;46159,816;14,66211
 598,37; 6782,588;   52,411;46221,414;14,57726
 598,95; 6871,764;   53,800;46273,074;14,75134
 599,53; 6940,261;   46,873;46082,320;14,97409
 600,11; 7122,923;   57,096;46384,324;15,25200
 600,70; 7222,453;   80,192;46052,746;15,53592
 601,28; 7444,081;   45,494;46162,879;16,04294
 601,86; 7637,964;   68,300;46300,273;16,37322
 602,44; 7737,384;   36,486;46388,270;16,61403
 603,02; 7889,676;   39,570;46382,832;16,93905
 603,60; 7986,931;   66,176;46730,398;16,97393
 604,18; 8011,496;   66,491;46584,891;17,07927
 604,76; 8033,339;   58,790;46600,031;17,13437
 605,34; 7924,922;   36,599;46312,227;17,04639
 605,92; 7916,469;   62,486;46220,855;17,01530
 606,50; 7802,226;   37,188;46309,914;16,78103
 607,08; 7708,920;   43,702;46046,633;16,66246
 607,66; 7665,479;   41,000;46295,488;16,48376
 608,24; 7537,377;   48,503;46338,488;16,17817
 608,82; 7404,024;   33,993;46369,520;15,90579
 609,40; 7214,235;   64,001;46126,047;15,52305
 609,98; 7033,052;   35,095;46236,750;15,14655
 610,56; 6874,956;   52,784;46044,535;14,83347
 611,14; 6695,765;   49,098;46042,070;14,45148
 611,72; 6513,394;   64,597;46143,598;13,99509
 612,30; 6399,954;   41,690;46084,242;13,80954
 612,88; 6325,958;   71,478;46250,930;13,54386
 613,46; 6363,226;   42,588;46000,414;13,75313
 614,04; 6455,904;   50,408;46040,227;13,92807
 614,62; 6547,727;   51,785;45729,809;14,22115
 615,20; 6746,291;   57,905;45750,707;14,63772
 615,78; 6999,517;   32,910;45702,141;15,25449
 616,36; 7235,895;   47,494;45707,492;15,74332
 616,94; 7346,278;   26,000;45666,988;16,03883
 617,52; 7532,605;   34,005;45546,723;16,47583
 618,10; 7747,115;   72,180;45702,289;16,81989
 618,68; 7772,593;   25,800;45447,398;17,05531
 619,26; 7766,162;   44,406;45536,379;16,97389
 619,84; 7650,796;   40,491;45161,188;16,86655
 620,42; 7674,408;   40,896;45357,211;16,84495
 621,00; 7600,808;   39,096;45365,609;16,68276
 621,58; 7556,043;   39,482;45249,020;16,62605
 622,16; 7446,687;   57,014;45337,918;16,31962
 622,74; 7281,778;   57,600;45236,785;15,99006
 623,32; 7056,407;   44,799;45204,113;15,52638
 623,90; 6920,858;   79,315;45023,992;15,22214
 624,48; 6645,026;   43,688;44883,313;14,72211
 625,05; 6431,026;   40,088;45065,711;14,19400
 625,63; 6235,926;   57,388;45042,613;13,73460
 626,21; 6008,054;   48,190;44855,445;13,30111
 626,79; 5845,063;   74,903;45051,477;12,82926
 627,37; 5648,397;   43,088;44755,484;12,53636
 627,95; 5542,291;   71,305;44796,508;12,23244
 628,53; 5479,608;   57,896;44747,512;12,13193
 629,11; 5470,429;   49,879;44640,102;12,15636
 629,69; 5695,890;   52,108;44879,012;12,59017
 630,27; 5911,796;   84,091;44600,891;13,09102
 630,84; 6125,526;   54,488;44537,711;13,64793
 631,42; 6430,105;   61,005;44855,422;14,21851
 632,00; 6644,701;   45,980;44578,773;14,81767
 632,58; 6861,738;   61,493;44575,133;15,27677
 633,16; 7085,001;   59,113;44579,633;15,78124
 633,74; 7223,037;   66,096;44446,836;16,12623
 634,32; 7251,613;   57,385;44291,395;16,26402
 634,90; 7338,416;   61,113;44901,246;16,22944
 635,47; 7328,885;   38,283;44333,266;16,45920
 636,05; 7249,913;   42,085;44188,996;16,32691
 636,63; 7187,308;   54,696;44344,809;16,10430
 637,21; 7211,751;   62,095;44528,051;16,07894
 637,79; 7053,036;   70,898;44448,043;15,73363
 638,37; 6880,034;   64,468;44258,387;15,42195
 638,94; 6674,965;   47,098;44318,270;14,97107
 639,52; 6469,865;   42,198;44423,570;14,48280
 640,10; 6262,109;   72,894;44524,383;13,92353
 640,68; 6010,247;   57,694;44555,723;13,37712
 641,26; 5720,384;   33,794;44602,766;12,75908
 641,84; 5476,222;   54,794;44264,703;12,26292
 642,41; 5183,060;   33,394;44386,445;11,61062
 642,99; 5018,397;   61,194;44412,684;11,17708
 643,57; 4851,435;   27,195;44380,227;10,87691
 644,15; 4801,572;   34,095;44424,863;10,73980
 644,73; 4877,610;   51,095;44794,105;10,78719
 645,30; 5006,547;   69,595;44532,445;11,10354
 645,88; 5247,785;   53,895;44571,184;11,66713
 646,46; 5643,123;   57,295;44724,324;12,50548
 647,04; 5998,460;   47,895;44548,164;13,37198
 647,61; 6350,498;   45,795;44756,004;14,10126
 648,19; 6714,935;   69,795;44812,445;14,85191
 648,77; 6922,272;   32,095;44807,887;15,38818
 649,35; 7165,910;   61,995;44879,125;15,85089
 649,92; 7276,147;   52,995;44855,965;16,12204
 650,50; 7391,285;   31,796;44722,105;16,46775
 651,08; 7368,423;   47,596;44624,445;16,42294
 651,66; 7422,460;   27,196;44888,984;16,48455
 652,23; 7302,598;   56,496;44823,027;16,18643
 652,81; 7254,835;   45,996;45074,367;16,00955
 653,39; 7181,573;   69,596;45120,406;15,78657
 653,97; 7027,811;   33,196;45228,348;15,47647
 654,54; 6827,948;   37,096;45073,086;15,07872
 655,12; 6705,085;   30,696;45271,324;14,75309
 655,70; 6431,723;   49,196;45327,367;14,09626
 656,28; 6232,761;   45,596;45491,605;13,61432
 656,85; 5994,898;   44,896;45428,547;13,11045
 657,43; 5728,836;   17,297;45216,785;12,63629
 658,01; 5574,173;   21,797;45644,426;12,17023
 658,58; 5395,911;   70,597;45949,367;11,60736
 659,16; 5224,048;   57,397;45552,508;11,35650
 659,74; 5146,086;   78,497;45746,246;11,09665
 660,32; 5210,324;   79,297;45955,586;11,18449
 660,89; 5316,661;   37,497;45904,125;11,50982
 661,47; 5624,499;   53,597;46094,566;12,09988
 662,05; 5912,936;   35,997;46285,605;12,70700
 662,62; 6334,574;   73,597;46643,047;13,44439
 663,20; 6734,411;   94,697;46661,586;14,25844
 663,78; 7119,949;   67,397;46944,527;15,04476
 664,35; 7447,787;   51,597;47161,066;15,70001
 664,93; 7693,424;   64,698;47390,008;16,11976
 665,51; 7823,562;   54,798;47523,445;16,36609
 666,08; 7965,899;   52,598;47587,188;16,64746
 666,66; 8108,836;   54,898;48219,926;16,72155
 667,23; 8155,974;   73,498;48259,168;16,77361
 667,81; 8216,012;   67,298;48827,809;16,71171
 668,39; 8140,250;   53,798;48982,547;16,52699
 668,96; 8117,187;   64,898;49249,488;16,37157
 669,54; 7982,424;   52,398;49565,027;16,01617
 670,12; 7921,162;   62,098;50043,266;15,72405
 670,69; 7839,299;   72,198;50587,309;15,37580
 671,27; 7559,937;   42,698;50804,949;14,80872
 671,84; 7397,575;   52,699;50686,289;14,50594
 672,42; 7249,712;   77,899;51094,227;14,05788
 673,00; 7075,650;   61,099;51364,270;13,67274
 673,57; 6748,887;   73,699;51056,109;13,09312
 674,15; 6588,725;   76,499;51454,246;12,67519
 674,72; 6313,762;   64,499;51271,988;12,20381
 675,30; 6189,900;   68,499;51194,930;11,97307
 675,88; 6130,538;   47,299;51369,867;11,85295
 676,45; 6164,075;   68,799;51601,406;11,82800
 677,03; 6254,113;   70,999;51397,750;12,04657
 677,60; 6498,750;   36,999;51440,387;12,57067
 678,18; 6839,788;   63,399;51741,328;13,11273
 678,76; 7179,125;   39,800;51655,566;13,83168
 679,33; 7575,063;   60,000;51613,008;14,57735
 679,91; 7923,900;   48,100;51616,250;15,27261
 680,48; 8157,438;   49,900;51590,789;15,73030
 681,06; 8445,176;   53,900;51551,828;16,29440
 681,63; 8597,413;   48,800;51360,969;16,66001
 682,21; 8699,251;   75,100;51466,910;16,78118
 682,78; 8688,988;   22,700;50943,648;17,01910
 683,36; 8697,226;   54,300;51124,789;16,92352
 683,93; 8609,863;   48,100;50885,328;16,84152
 684,51; 8501,001;   45,600;50889,270;16,63019
 685,08; 8598,639;   50,900;51123,410;16,73648
 685,66; 8381,576;   59,001;51258,648;16,25514
 686,24; 8206,613;   45,801;51266,789;15,93256
 686,81; 8080,951;   58,201;51376,027;15,63346
 687,39; 7837,088;   46,201;51314,770;15,19623
 687,96; 7628,626;   54,201;51515,711;14,71862
 688,54; 7409,864;   25,401;51650,148;14,30411
 689,11; 7168,201;   31,501;51776,789;13,79198
 689,69; 6860,539;   41,901;51664,027;13,20875
 690,26; 6662,376;   60,901;52121,570;12,68035
 690,84; 6403,514;   57,601;51906,211;12,23931
 691,41; 6143,651;   51,001;52199,750;11,68321
 691,98; 6075,589;   40,201;52310,590;11,54648
 692,56; 6014,626;   37,101;52299,531;11,43752
 693,13; 6203,264;   66,302;52835,871;11,62974
 693,71; 6407,501;   35,502;52870,508;12,06019
 694,28; 6755,139;   34,302;52895,852;12,71404
 694,86; 7114,477;   51,802;53283,488;13,26780
 695,43; 7562,114;   69,202;53173,031;14,10993
 696,01; 8079,152;   54,302;53738,871;14,94815
 696,58; 8350,589;   45,002;53627,512;15,50056
 697,16; 8685,026;   49,502;53758,352;16,07840
 697,73; 8952,864;   80,802;54265,191;16,37383
 698,30; 9113,802;   52,702;53928,930;16,81836
 698,88; 9231,340;   45,602;54095,770;16,99484
 699,45; 9292,077;   40,902;54204,309;17,08012
 700,03; 9391,314;   58,803;54551,648;17,12612
 700,60; 9291,652;   69,203;54563,492;16,92370
 701,18; 9236,189;   73,403;54806,930;16,74072
 701,75; 9123,827;   75,303;55150,672;16,42935
 702,32; 8928,465;   47,703;54894,012;16,19209
 702,90; 8762,702;   54,703;55278,152;15,76866
 703,47; 8613,540;   64,703;55434,191;15,43962
 704,05; 8288,577;   82,503;55625,531;14,77426
 704,62; 8056,115;   40,303;55573,270;14,43433
 705,19; 7830,652;   48,703;55701,609;13,98301
 705,77; 7491,990;   30,503;55980,852;13,33591
 706,34; 7306,127;   65,903;55939,090;12,95832
 706,91; 7111,765;   51,604;56105,730;12,59526
 707,49; 6860,103;   64,904;56452,871;12,05080
 708,06; 6711,140;   81,504;56656,609;11,71829
 708,64; 6594,378;   41,804;56518,352;11,60229
 709,21; 6696,715;   66,604;56773,191;11,69196
 709,78; 6787,353;   54,904;56750,332;11,87477
 710,36; 7068,391;   68,504;57047,770;12,28497
 710,93; 7397,928;   69,704;57101,910;12,84927
 711,50; 7729,666;   53,104;57382,551;13,39026
 712,08; 8231,803;   64,704;57739,492;14,16060
 712,65; 8611,341;   77,104;57507,930;14,86003
 713,22; 8991,778;   88,404;57647,773;15,46816
 713,80; 9290,216;   89,904;57985,113;15,89132
 714,37; 9391,054;   62,705;57654,953;16,19723
 714,94; 9576,190;   67,705;57721,691;16,49233
 715,52; 9665,129;   58,905;57599,434;16,69471
 716,09; 9719,166;   63,205;57731,973;16,74383
 716,66; 9727,203;   74,205;57502,613;16,80875
 717,23; 9633,941;   72,805;57685,254;16,59561
 717,81; 9637,278;   58,805;57459,191;16,68712
 718,38; 9539,017;   51,605;57252,332;16,58617
 718,95; 9454,854;   70,805;57242,070;16,41392
 719,53; 9333,392;   58,505;57111,012;16,25676
 720,10; 9252,229;   78,805;56880,754;16,14984
 720,67; 9030,767;   49,405;56701,691;15,85348
 721,24; 8864,804;   68,006;56407,832;15,61382
 721,82; 8713,642;   65,506;56337,973;15,36833
 722,39; 8612,079;   63,006;56449,414;15,16159
 722,96; 8467,517;   79,706;56495,953;14,86772
 723,53; 8214,554;   87,306;56453,094;14,41876
 724,11; 8233,892;   67,806;56521,234;14,46517
 724,68; 8068,229;   69,806;56581,574;14,15355
 725,25; 8017,267;   74,206;56729,711;14,01993
 725,82; 8039,404;   99,706;57170,152;13,91210
 726,40; 8035,742;   62,206;57214,395;13,95141
 726,97; 8077,080;   67,806;57301,234;13,99405
 727,54; 8101,617;   62,706;57229,973;14,06209
 728,11; 8289,154;   53,607;57361,813;14,37063
 728,69; 8423,392;   49,507;57573,352;14,55724
 729,26; 8621,930;   58,707;57865,293;14,81358
 729,83; 8809,367;   53,707;58108,832;15,08163
 730,40; 9007,104;   58,407;58192,074;15,39331
 730,97; 9189,242;   47,007;58596,813;15,61446
 731,55; 9347,979;   47,407;58769,953;15,83816
 732,12; 9578,417;  100,907;58623,992;16,19448
 732,69; 9759,155;   71,407;58612,434;16,54865
 733,26; 9786,093;   53,407;58592,074;16,62608
 733,83; 9991,230;   50,907;58912,113;16,88773
 734,41;10133,668;   74,707;59208,754;17,01044
 734,98;10132,805;   62,607;59257,492;17,01194
 735,55;10383,043;   55,908;59487,133;17,37662
 736,12;10332,280;   72,208;59456,172;17,27751
 736,69;10403,418;   90,408;59613,313;17,32612
 737,26;10443,355;   68,108;59770,754;17,37820
 737,84;10345,593;   62,508;59579,195;17,27765
 738,41;10336,631;   59,908;59723,734;17,22438
 738,98;10190,268;   70,608;59579,676;17,00524
 739,55;10050,006;   62,008;59464,215;16,81419
 740,12;10037,043;   79,008;59831,754;16,66540
 740,69; 9947,081;   71,408;59967,594;16,48798
 741,26; 9808,019;   69,108;59921,535;16,27154
 741,83; 9668,655;   69,208;59843,773;16,05942
 742,41; 9459,594;   74,309;60309,313;15,58111
 742,98; 9408,531;  103,909;60395,656;15,43266
 743,55; 9174,368;   69,509;60240,496;15,13164
 744,12; 9014,306;   57,709;60022,535;14,93642
 744,69; 8915,243;   75,109;60194,574;14,70428
 745,26; 8796,881;   46,009;59896,914;14,62112
 745,83; 8789,118;   62,409;60193,254;14,51287
 746,40; 8749,856;   64,009;60053,293;14,47900
 746,97; 8832,794;   47,509;59961,535;14,66315
 747,55; 8965,231;   72,209;60003,477;14,83870
 748,12; 9163,568;   64,409;60031,316;15,17363
 748,69; 9477,206;   64,109;60045,355;15,69340
 749,26; 9766,244;   68,610;60145,594;16,14201
 749,83; 9924,581;   62,210;60013,035;16,45077
 750,40;10315,819;  103,510;59932,074;17,06929
 750,97;10601,957;  103,510;60095,516;17,49974
 751,54;10633,094;   43,310;59869,254;17,70099
 752,11;10905,031;   67,510;59894,594;18,11474
 752,68;11037,669;  102,510;59665,434;18,35900
 753,25;11109,307;   71,610;59511,777;18,56942
 753,82;11211,345;   72,910;59701,414;18,67971
 754,39;11289,182;   76,010;59739,355;18,79407
 754,96;11319,520;   72,910;59250,297;19,00491
 755,53;11119,157;   52,210;59510,137;18,61307
 756,10;11018,994;   70,911;59313,574;18,48007
 756,67;10922,232;   81,611;59430,316;18,26598
 757,24;10743,869;   82,211;59289,656;18,00729
 757,81;10557,507;   43,711;59342,195;17,73029
 758,38;10513,845;   60,311;59341,734;17,63374
 758,95;10287,882;   84,911;59414,574;17,19708
 759,52; 9999,220;   59,511;58757,516;16,93364
 760,09; 9800,857;   70,811;58642,957;16,61207
 760,66; 9516,495;   68,611;58366,598;16,20619
 761,23; 9362,633;   85,611;58358,438;15,91998
 761,80; 9110,070;   74,811;58348,176;15,50496
 762,37; 8912,907;   87,411;58400,617;15,13464
 762,94; 8782,345;   84,011;58434,258;14,90711
 763,51; 8629,482;   59,112;58202,297;14,74011
 764,08; 8637,521;   68,712;58167,637;14,74865
 764,65; 8691,258;   87,212;57945,176;14,87098
 765,22; 8886,596;   59,812;57632,418;15,33157
 765,79; 9060,533;   79,712;57326,059;15,68803
 766,36; 9365,670;   80,612;57346,598;16,21391
 766,93; 9679,308;   65,712;57506,738;16,73646
 767,50; 9991,245;   77,912;57339,375;17,31240
 768,07;10345,683;   77,312;57431,219;17,90352
 768,64;10629,921;   91,312;57245,355;18,43896
 769,21;10692,258;   64,112;56750,797;18,74893
 769,78;10830,496;   78,412;56606,938;19,02063
 770,34;10885,533;   44,213;56182,477;19,31182
 770,91;11004,070;   63,513;56215,117;19,48396
 771,48;11047,708;   69,513;55998,656;19,62876
 772,05;10976,646;   79,213;55701,898;19,59171
 772,62;10847,983;   51,913;55274,836;19,54998
 773,19;10737,221;   66,313;55428,477;19,27473
 773,76;10610,858;   78,913;55294,016;19,07439
 774,33;10486,896;   75,413;55158,156;18,90153
 774,90;10251,733;   60,413;54598,199;18,68671
 775,47;10148,271;   70,013;54692,637;18,45070
 776,03;10015,009;   77,913;54517,977;18,25328
 776,60; 9798,446;   63,713;54224,719;17,97369
 777,17; 9576,584;   66,414;54057,457;17,61435
 777,74; 9302,021;   41,514;53490,098;17,32601
 778,31; 9199,959;   71,414;53612,637;17,04956
 778,88; 8956,396;   44,614;53275,879;16,74163
 779,45; 8739,334;   91,914;53168,418;16,29237
 780,01; 8570,972;   80,414;53129,656;16,00505
 780,58; 8360,709;   75,314;52949,398;15,67005
 781,15; 8274,547;   60,014;52661,438;15,61656
 781,72; 8225,185;   74,014;52554,078;15,53194
 782,29; 8319,422;   69,114;52079,219;15,86289
 782,86; 8393,859;   75,114;51771,258;16,09162
 783,42; 8519,097;   70,814;51617,297;16,38964
 783,99; 8705,334;   66,514;51666,738;16,74183
 784,56; 8867,672;   75,815;51183,078;17,20275
 785,13; 9100,909;   65,615;51106,617;17,70203
 785,70; 9243,547;   63,815;50902,359;18,05664
 786,26; 9558,885;   80,715;50828,699;18,67694
 786,83; 9677,622;   81,915;50547,141;19,01449
 787,40; 9909,260;   71,915;50338,180;19,57047
 787,97; 9867,197;   50,915;50082,520;19,62016
 788,54; 9913,734;   76,715;50067,559;19,67764
 789,10; 9967,173;   70,915;49707,098;19,93759
 789,67; 9924,610;   88,815;49374,039;19,95688
 790,24; 9894,147;   67,215;49515,980;19,87296
 790,81; 9639,885;   85,715;48790,621;19,61644
 791,37; 9583,822;   89,816;48703,758;19,52939
 791,94; 9531,760;   77,416;48731,301;19,43184
 792,51; 9350,697;   55,216;48281,039;19,27490
 793,08; 9126,636;   78,116;48263,180;18,77868
 793,64; 8951,772;   70,516;47992,719;18,53266
 794,21; 8862,610;   91,216;47794,559;18,38738
 794,78; 8767,748;   67,216;47492,598;18,34573
 795,35; 8588,785;   74,916;47095,641;18,10663
 795,91; 8390,823;   58,816;46888,879;17,79200
 796,48; 8200,261;   76,616;46538,621;17,48449
 797,05; 8014,198;   66,716;46539,961;17,10120
 797,62; 7935,636;   57,616;46365,500;17,01226
 798,18; 7800,473;   65,717;46022,840;16,83038
 798,75; 7663,511;   60,917;45731,480;16,64660
 799,32; 7643,249;   71,517;45653,219;16,61134
 799,88; 7554,486;   71,317;45503,160;16,47120
 800,45; 7528,523;   43,617;45090,801;16,61570
 801,02; 7632,361;   70,617;45058,039;16,80857
 801,58; 7662,398;  103,217;44902,180;16,87356
 802,15; 7785,736;   78,917;44603,820;17,30901
 802,72; 7872,174;   86,717;44283,559;17,61541
 803,28; 8055,311;   62,217;44124,699;18,14036
 803,85; 8155,049;   51,017;43840,340;18,50687
 804,42; 8295,286;   86,817;43684,180;18,82790
 804,98; 8461,924;  110,518;43623,922;19,19272
 805,55; 8449,961;   63,118;43303,762;19,39574
 806,12; 8564,999;  101,318;43094,000;19,68633
 806,68; 8611,137;   75,418;42643,539;20,05190
 807,25; 8576,974;  100,118;42538,480;19,97451
 807,82; 8530,712;   94,218;42414,621;19,93481
 808,38; 8535,549;   78,818;42374,461;19,99433
 808,95; 8463,887;   71,618;42215,199;19,91352
 809,52; 8378,624;   67,418;42170,340;19,74021
 810,08; 8266,262;   78,418;42035,480;19,51482
 810,65; 8197,300;   70,318;42062,520;19,35355
 811,21; 8030,237;   81,418;42152,461;18,89380
 811,78; 8056,574;  103,518;42171,902;18,90507
 812,35; 7923,012;   77,619;41843,543;18,78420
 812,91; 7835,850;   96,919;42028,383;18,45614
 813,48; 7770,387;   73,519;41847,520;18,42502
 814,04; 7617,825;   84,319;41782,961;18,06655
 814,61; 7540,162;   86,119;41608,602;17,95182
 815,18; 7395,600;   80,719;41371,543;17,71551
 815,74; 7227,537;   85,619;41303,980;17,32703
 816,31; 7134,775;   87,719;40917,621;17,25955
 816,87; 7039,012;   48,519;40470,363;17,29385
 817,44; 6931,950;   89,319;40395,402;16,97667
 818,00; 6895,087;   56,519;40200,641;17,03504
 818,57; 6895,525;   93,519;39997,082;17,04611
 819,14; 6846,263;   97,720;39811,922;16,99277
 819,70; 6868,300;   88,420;39535,660;17,18721
 820,27; 6951,038;   77,320;39377,602;17,49025
 820,83; 7025,575;   77,020;39086,941;17,81228
 821,40; 7066,713;  107,520;38849,980;17,96270
 821,96; 7099,550;   81,620;38601,422;18,21902
 822,53; 7226,388;   83,020;38411,762;18,63710
 823,09; 7321,925;  109,920;38424,301;18,82323
 823,66; 7472,163;   88,420;38045,141;19,45306
 824,22; 7427,900;   85,720;37912,484;19,41001
 824,79; 7538,938;   84,920;37523,723;19,90987
 825,35; 7566,275;   93,320;37602,664;19,92292
 825,92; 7524,513;   80,021;37253,602;20,02630
 826,48; 7498,750;  107,521;37167,043;19,94421
 827,05; 7424,288;   99,421;36937,082;19,88418
 827,61; 7375,226;   84,421;36644,523;19,94197
 828,18; 7254,763;   74,121;36543,762;19,68937
 828,74; 7196,301;   88,421;36346,004;19,60384
 829,31; 7123,938;   99,621;36305,645;19,40096
 829,87; 6999,776;   85,121;36173,883;19,16013
 830,44; 6869,114;   91,621;36054,922;18,84558
 831,00; 6767,351;   97,221;35964,465;18,59672
 831,57; 6696,188;  113,021;35736,305;18,47996
 832,13; 6529,526;   81,521;35201,441;18,35996
 832,69; 6401,464;   81,021;35253,785;17,96971
 833,26; 6355,102;   92,922;35075,125;17,90105
 833,82; 6193,639;  103,122;34779,063;17,56410
 834,39; 6058,376;   82,922;34662,203;17,28045
 834,95; 6002,914;   75,222;34586,445;17,17613
 835,52; 5932,751;  114,822;34573,582;16,88375
 836,08; 5896,989;  102,222;34467,223;16,86241
 836,64; 5770,927;   88,722;34415,863;16,55310
 837,21; 5770,864;  100,422;34108,805;16,67366
 837,77; 5824,402;   87,922;33973,742;16,92885
 838,34; 5788,539;   80,322;33883,184;16,88679
 838,90; 5811,377;   74,022;33688,023;17,06835
 839,46; 5938,214;  102,722;33660,965;17,38915
 840,03; 6063,152;   89,823;33589,305;17,83111
 840,59; 6049,290;   98,623;33224,945;17,96356
 841,16; 6186,327;  115,023;33197,586;18,35198
 841,72; 6159,865;   60,623;32782,023;18,63992
 842,28; 6260,202;   88,023;33006,664;18,74980
 842,85; 6383,840;  111,223;32981,305;19,08306
 843,41; 6450,877;  115,623;32759,645;19,40709
 843,97; 6440,915;  101,523;32628,484;19,48965
 844,54; 6471,152;  103,923;32606,424;19,58997
 845,10; 6434,890;  101,623;32435,264;19,58724
 845,67; 6418,328;   84,723;32257,805;19,68604
 846,23; 6373,365;   89,623;32027,045;19,67517
 846,79; 6275,603;   95,524;31792,686;19,49726
 847,36; 6188,140;   74,924;31579,225;19,40439
 847,92; 6136,678;   98,924;31430,064;19,27078
 848,48; 6011,615;   52,124;31495,006;18,95339
 849,04; 5870,853;   76,124;31293,445;18,56254
 849,61; 5796,791;   69,624;31314,285;18,33006
 850,17; 5725,528;   75,324;31291,824;18,10006
 850,73; 5548,766;   79,824;31295,666;17,51976
 851,30; 5429,503;   67,024;31085,805;17,28785
 851,86; 5318,840;   82,024;30886,045;17,00043
 852,42; 5239,678;   68,124;30971,785;16,73444
 852,99; 5164,416;   94,224;30848,025;16,48639
 853,55; 5114,853;  105,124;30691,564;16,37892
 854,11; 5018,691;   74,425;30375,906;16,31691
 854,67; 5003,328;   95,225;30426,945;16,18142
 855,24; 4911,166;   67,225;30329,586;16,00649
 855,80; 4884,104;   89,225;30332,326;15,85445
 856,36; 4921,241;   86,525;30215,365;16,04680
 856,92; 4909,878;   62,925;30050,506;16,16320
 857,49; 4963,416;   83,025;29960,646;16,33460
 858,05; 4986,454;   79,825;29911,785;16,44756
 858,61; 5048,891;   66,325;29929,727;16,68452
 859,17; 5127,029;   89,325;29718,566;17,00247
 859,74; 5254,166;   83,025;29678,205;17,47292
 860,30; 5296,104;  113,925;29483,246;17,64487
 860,86; 5410,841;   68,026;29312,586;18,26943
 861,42; 5457,179;   86,626;29074,326;18,52701
 861,99; 5494,816;   63,326;29042,166;18,74295
 862,55; 5529,654;   75,226;28893,006;18,92730
 863,11; 5619,292;   91,926;29061,646;19,07980
 863,67; 5584,729;   76,826;28852,586;19,14077
 864,23; 5559,967;   90,526;28750,727;19,08375
 864,80; 5498,204;   70,326;28544,666;19,06235
 865,36; 5443,842;   65,426;28649,607;18,81606
 865,92; 5370,179;  100,126;28461,146;18,58203
 866,48; 5272,017;   89,526;28425,188;18,28964
 867,04; 5207,154;   67,426;28159,627;18,29592
 867,60; 5119,392;   91,327;28118,768;17,93980
 868,17; 4974,729;  104,427;27939,207;17,49718
 868,73; 4817,067;   82,127;27621,646;17,19326
 869,29; 4648,705;   65,927;27596,787;16,64597
 869,85; 4586,342;  113,027;27568,627;16,29291
 870,41; 4467,680;   81,527;27384,168;16,06494
 870,97; 4387,717;  107,827;27213,406;15,78970
 871,54; 4269,355;   85,727;26980,947;15,55528
 872,10; 4156,892;   88,627;26828,088;15,21446
 872,66; 4037,230;   62,827;26528,428;15,01724
 873,22; 4018,067;   93,127;26519,367;14,85243
 873,78; 3932,905;   78,627;26172,908;14,77058
 874,34; 3911,843;  104,228;26033,547;14,68459
 874,90; 3949,143;  120,827;25783,248;14,91798
 875,46; 3944,242;   99,728;25709,348;15,01200
 876,03; 4011,442;   98,927;25420,648;15,45122
 876,59; 3988,442;   77,327;25181,547;15,57951
 877,15; 4098,042;  109,827;25149,047;15,92787
 877,71; 4167,042;  106,228;25212,648;16,17441
 878,27; 4187,942;   96,427;24989,248;16,43653
 878,83; 4291,143;  116,827;25022,148;16,76074
 879,39; 4322,243;  100,027;24973,648;16,97467
 879,95; 4324,942;   98,827;24843,648;17,07879
 880,51; 4381,243;   83,728;24936,047;17,29221
 881,07; 4493,243;   90,527;25061,848;17,63109
 881,63; 4529,643;  101,027;25156,047;17,67556
 882,19; 4599,942;   87,628;24975,447;18,13062
 882,75; 4637,342;  101,427;25261,947;18,02791
 883,31; 4678,743;  105,327;25428,648;18,06009
 883,88; 4643,743;   98,927;25336,748;18,00795
 884,44; 4582,743;   91,927;25417,947;17,73202
 885,00; 4576,643;  107,427;25761,848;17,42084
 885,56; 4483,842;  107,827;25751,648;17,06460
 886,12; 4461,143;  111,228;25842,648;16,90507
 886,68; 4339,342;   99,228;25852,348;16,46447
 887,24; 4333,643;  117,927;26350,547;16,07051
 887,80; 4177,542;   90,728;26280,748;15,60447
 888,36; 4130,442;  116,327;26529,848;15,19720
 888,92; 4034,542;  125,728;26572,047;14,78019
 889,48; 4039,042;  103,128;26954,447;14,65818
 890,04; 3970,442;  109,128;26947,547;14,38727
 890,60; 3940,143;  112,128;27251,248;14,10516
 891,16; 3898,742;   96,628;27188,848;14,03397
 891,72; 3837,843;  118,228;27260,547;13,70412
 892,28; 3824,643;  134,827;27331,547;13,56713
 892,84; 3761,343;  104,728;27348,848;13,42167
 893,39; 3833,442;  123,927;27411,947;13,59393
 893,95; 3805,942;  114,228;27186,348;13,63659
 894,51; 3835,143;   76,327;26955,748;13,98399
 895,07; 3885,742;  129,727;27084,848;13,93433
 895,63; 3877,143;   77,128;26839,947;14,19886
 896,19; 3942,442;   97,128;26677,248;14,46688
 896,75; 4050,843;  124,927;26555,748;14,85355
 897,31; 4072,542;   90,728;26203,148;15,24874
 897,87; 4083,942;  101,728;25897,248;15,43762
 898,43; 4133,042;  106,527;25790,848;15,67694
 898,99; 4124,942;  117,427;25589,047;15,73326
 899,55; 4207,442;  119,927;25597,447;16,04361
 900,11; 4194,042;  108,327;25305,447;16,21501
 900,67; 4127,942;   98,527;25075,248;16,13268
 901,22; 4215,942;  119,628;24861,047;16,55651
 901,78; 4153,743;   91,628;24661,248;16,53308
 902,34; 4128,842;  111,228;24532,248;16,45146
 902,90; 4041,042;   80,827;24335,148;16,32787
 903,46; 3934,143;  105,728;24231,348;15,86867
 904,02; 3869,042;  100,527;24123,947;15,68684
 904,58; 3802,942;   90,728;23850,848;15,62372
 905,14; 3714,643;   68,527;23822,947;15,34921
 905,70; 3599,843;   83,927;23630,748;14,93159
 906,25; 3527,742;   90,628;23553,348;14,64926
 906,81; 3445,242;   94,628;23392,047;14,38191
 907,37; 3329,942;   98,827;23257,447;13,95210
 907,93; 3219,442;   89,527;23089,748;13,60820
 908,49; 3135,343;   99,628;22999,447;13,25650
 909,05; 3074,942;   97,827;22927,848;13,04035
 909,60; 2997,442;  108,228;22788,748;12,73875
 910,16; 2895,542;   74,228;22700,748;12,46906
 910,72; 2881,843;  110,427;22663,447;12,28844
 911,28; 2814,242;  102,128;22408,248;12,15861
 911,84; 2802,742;   90,628;22454,148;12,12741
 912,39; 2810,442;   78,427;22258,547;12,31740
 912,95; 2801,042;  102,728;22258,148;12,17903
 913,51; 2862,143;   98,327;22083,547;12,57124
 914,07; 2874,742;   98,728;21907,547;12,72886
 914,63; 2838,143;   76,128;21874,547;12,67071
 915,18; 2912,742;   87,628;21589,648;13,13883
 915,74; 2934,643;   80,927;21587,248;13,26919
 916,30; 2921,843;   59,528;21357,648;13,43928
 916,86; 3010,343;   93,728;21262,648;13,77782
 917,42; 3042,143;  100,228;21321,348;13,86315
 917,97; 3022,643;   77,427;21064,748;14,03331
 918,53; 3032,843;   74,927;20915,447;14,19310
 919,09; 3059,442;   98,728;20860,447;14,26045
 919,65; 3081,143;   85,527;20650,848;14,56634
 920,20; 3059,742;   73,527;20532,748;14,59594
 920,76; 3011,143;   72,027;20320,547;14,51521
 921,32; 3004,042;   82,027;20178,947;14,53962
 921,87; 3016,442;  102,728;19954,348;14,67747
 922,43; 2928,242;   77,027;19849,648;14,42002
 922,99; 2860,343;   67,427;19482,748;14,38511
 923,55; 2766,242;   70,527;19338,047;13,99098
 924,10; 2718,442;   73,027;19189,547;13,83837
 924,66; 2647,242;   87,827;18955,648;13,56497
 925,22; 2547,242;   55,228;18851,248;13,25820
 925,77; 2473,843;   82,128;18536,348;12,96026
 926,33; 2440,742;   95,927;18507,947;12,73524
 926,89; 2346,942;   71,427;18124,148;12,60483
 927,44; 2244,042;   62,327;17937,248;12,20545
 928,00; 2177,742;   71,228;17715,447;11,93884
 928,56; 2148,343;   88,827;17529,648;11,80859
 929,12; 2107,242;   87,728;17383,348;11,67645
 929,67; 1985,343;   69,527;17014,248;11,30627
 930,23; 1916,642;   56,127;16842,248;11,08365
 930,78; 1948,343;  115,628;16704,547;11,04783
 931,34; 1842,542;   72,327;16173,647;10,99422
 931,90; 1817,142;   73,128;15997,647;10,95176
 932,45; 1783,542;   83,427;15594,647;10,96055
 933,01; 1722,743;   64,728;15138,247;10,99952
 933,57; 1706,743;   74,527;14649,048;11,19910
 934,12; 1629,542;   82,628;14015,147;11,10291
 934,68; 1570,943;   64,427;13299,647;11,38262
 935,24; 1515,743;   77,027;12511,147;11,57070
 935,79; 1438,042;   75,228;11770,247;11,65295
 936,35; 1381,642;  101,827;10989,848;11,75434
 936,90; 1332,943;   84,427;10143,848;12,41140
 937,46; 1214,642;   83,728; 9403,947;12,13399
 938,02; 1144,042;   73,527; 8615,747;12,53205
 938,57; 1103,943;   81,728; 8016,047;12,88346
 939,13; 1008,742;   80,228; 7513,447;12,49142
 939,68;  938,242;   68,628; 6973,248;12,59468
 940,24;  917,443;   71,527; 6581,047;12,99504
 940,79;  920,242;  110,628; 6292,447;13,09671
 941,35;  868,643;  101,228; 6079,047;12,83771
 941,91;  791,843;   75,527; 5851,348;12,40196
 942,46;  801,542;   77,128; 5791,947;12,67608
 943,02;  789,943;   79,927; 5671,348;12,69829
 943,57;  754,643;   64,427; 5573,547;12,52859
 944,13;  775,943;   79,027; 5648,147;12,51392
 944,68;  762,242;   78,027; 5685,248;12,20239
 945,24;  772,042;   90,427; 5783,147;11,97345
 945,79;  753,042;   73,027; 5876,147;11,71809
 946,35;  750,843;   60,627; 5994,447;11,63188
 946,90;  780,843;  114,927; 6160,147;11,01556
 947,46;  756,843;   64,927; 6271,248;11,14856
 948,01;  735,542;   57,827; 6434,447;10,62812
 948,57;  793,943;  104,827; 6687,547;10,46855
 949,12;  773,643;   79,827; 6797,248;10,32859
 949,68;  793,242;  103,327; 7106,647; 9,85126
 950,23;  807,042;   83,527; 7300,047;10,02582
 950,79;  812,643;   83,327; 7497,748; 9,83644
 951,34;  823,742;  100,927; 7735,248; 9,46797
 951,90;  795,242;   70,527; 7954,848; 9,19185
 952,45;  850,943;   97,628; 8185,147; 9,31454
 953,01;  837,343;   82,628; 8326,348; 9,15503
 953,56;  882,042;   88,228; 8589,947; 9,33711
 954,12;  858,643;   52,028; 8720,447; 9,30521
 954,67;  918,343;   77,327; 8976,247; 9,45075
 955,23;  921,343;   76,927; 9148,048; 9,30883
 955,78;  949,443;   73,927; 9338,348; 9,45029
 956,33;  934,443;   63,728; 9521,548; 9,20630
 956,89;  969,742;   59,928; 9696,848; 9,44093
 957,44; 1008,443;   69,628; 9882,348; 9,56733
 958,00; 1011,742;   59,428;10075,548; 9,50782
 958,55; 1045,443;   61,627;10222,348; 9,68253
 959,10; 1047,042;   69,327;10408,747; 9,45619
 959,66; 1099,843;   82,527;10609,048; 9,66430
 960,21; 1100,743;   81,427;10733,147; 9,56949
 960,77; 1107,343;   70,327;10817,147; 9,64951
 961,32; 1101,243;   64,728;10986,548; 9,49031
 961,87; 1139,343;   88,527;11049,147; 9,58719
 962,43; 1133,943;   70,728;11118,048; 9,62419
 962,98; 1149,642;   94,327;11290,247; 9,42589
 963,54; 1108,743;   47,228;11352,147; 9,38985
 964,09; 1146,843;   79,027;11395,348; 9,43606
 964,64; 1154,142;   74,527;11550,747; 9,40741
 965,20; 1133,042;   60,327;11524,247; 9,35731
 965,75; 1149,042;   81,728;11624,447; 9,24665
 966,30; 1135,743;   70,827;11653,848; 9,19376
 966,86; 1121,642;   78,527;11719,247; 8,96091
 967,41; 1111,343;   93,527;11768,048; 8,71826
 967,96; 1087,642;   76,728;11864,647; 8,57586
 968,52; 1113,542;   93,228;11930,647; 8,61940
 969,07; 1069,042;   77,628;11868,348; 8,40843
 969,62; 1052,042;   79,527;11967,147; 8,18091
 970,18; 1039,142;   75,728;12076,747; 8,02778
 970,73; 1005,343;   80,728;12023,048; 7,74234
 971,28; 1034,843;   96,327;12036,348; 7,86025
 971,84;  985,742;   77,527;12048,848; 7,58659
 972,39;  991,943;  100,228;12039,548; 7,46873
 972,94;  948,742;   66,228;12109,947; 7,32759
 973,49;  934,042;   96,628;12092,447; 6,98089
 974,05;  936,643;   76,728;12000,747; 7,21162
 974,60;  921,843;   93,228;12070,048; 6,91849
 975,15;  914,242;   88,628;12097,447; 6,87507
 975,71;  898,242;   65,128;11908,548; 7,03441
 976,26;  900,343;   98,927;11977,247; 6,74687
 976,81;  901,343;   91,827;11959,048; 6,82144
 977,36;  914,143;   98,728;11983,247; 6,86115
 977,92;  914,643;   96,527;12038,848; 6,85055
 978,47;  896,843;   81,927;11925,647; 6,88057
 979,02;  900,042;   93,228;11922,548; 6,82047
 979,57;  892,143;   88,427;11895,747; 6,80692
 980,13;  877,343;   83,527;11783,147; 6,78496
 980,68;  898,542;   82,927;11805,147; 6,95785
 981,23;  923,542;   90,527;11802,247; 7,11266
 981,78;  915,443;   92,427;11735,247; 7,06886
 982,33;  918,643;   90,728;11677,848; 7,14513
 982,89;  931,343;   89,927;11703,647; 7,24501
 983,44;  906,242;   83,027;11608,947; 7,14229
 983,99;  943,843;  118,628;11622,647; 7,17328
 984,54;  923,843;   96,128;11457,247; 7,28551
 985,09;  930,742;   93,728;11413,947; 7,39398
 985,65;  932,343;   91,327;11470,747; 7,39067
 986,20;  937,742;  106,927;11419,548; 7,34414
 986,75;  937,943;  108,628;11414,447; 7,33529
 987,30;  926,443;  102,827;11258,348; 7,38303
 987,85;  913,242;   90,228;11246,747; 7,37699
 988,40;  894,742;  108,527;11213,747; 7,07969
 988,96;  889,143;  108,027;11133,947; 7,08435
 989,51;  878,943;  115,427;11038,447; 6,98996
 990,06;  871,943;  138,227;11045,147; 6,72706
 990,61;  827,742;   92,128;10938,348; 6,78222
 991,16;  843,943;  118,927;10940,048; 6,70000
 991,71;  797,542;   92,527;10792,848; 6,58873
 992,26;  771,742;  102,427;10714,848; 6,30690
 992,81;  738,143;  104,728;10660,548; 6,00062
 993,37;  749,643;  137,727;10574,647; 5,86298
 993,92;  724,542;  121,728;10458,048; 5,83201
 994,47;  717,542;  124,628;10466,848; 5,73296
 995,02;  707,843;  137,027;10490,947; 5,51303
 995,57;  677,843;  110,427;10392,848; 5,51830
 996,12;  706,242;  145,727;10300,348; 5,51980
 996,67;  667,742;  129,628;10209,147; 5,33870
 997,22;  630,943;  113,527;10126,947; 5,16722
 997,77;  653,143;  121,527;10148,647; 5,30177
 998,32;  625,943;  111,628;10071,647; 5,16379
 998,87;  620,643;  125,128; 9984,647; 5,02575
 999,42;  614,143;  127,927; 9851,147; 5,00056
 999,97;  604,742;  108,927; 9777,548; 5,12808
1000,53;  641,643;  142,727; 9784,247; 5,17465
1001,08;  607,143;  107,228; 9686,947; 5,21847
1001,63;  631,943;  153,027; 9649,647; 5,04300
1002,18;  588,042;   83,728; 9424,147; 5,39928
1002,73;  642,042;  138,327; 9412,947; 5,43111
1003,28;  640,843;  124,327; 9381,947; 5,57935
1003,83;  637,443;  125,927; 9218,247; 5,62579
1004,38;  653,042;  149,928; 9191,647; 5,56437
1004,93;  631,643;  126,027; 9120,247; 5,62156
1005,48;  642,143;  116,827; 9054,348; 5,87764
1006,03;  635,443;  117,927; 9005,947; 5,82261
1006,58;  628,242;  111,128; 8858,647; 5,91156
1007,13;  610,843;  107,927; 8851,247; 5,75199
1007,68;  633,542;  104,728; 8818,747; 6,06855
1008,23;  642,343;  133,727; 8715,848; 5,92645
1008,78;  636,143;  112,027; 8711,147; 6,09498
1009,33;  645,742;  130,327; 8604,447; 6,08222
1009,88;  595,542;   88,228; 8605,447; 5,95634
1010,43;  626,042;  124,228; 8525,848; 5,97284
1010,98;  601,943;   99,827; 8492,447; 5,98282
1011,52;  596,443;   95,827; 8398,447; 6,02960
1012,07;  623,643;  150,327; 8388,247; 5,74556
1012,62;  588,242;  104,628; 8320,747; 5,88617
1013,17;  562,643;  113,128; 8276,947; 5,50618
1013,72;  539,843;   95,728; 8223,848; 5,46393
1014,27;  534,843;  121,228; 8163,047; 5,14330
1014,82;  509,142;   95,728; 7981,147; 5,24278
1015,37;  475,142;   94,128; 7887,848; 4,88874
1015,92;  495,642;  118,427; 7731,447; 4,95487
1016,47;  459,842;  102,628; 7596,447; 4,76679
1017,02;  432,443;   93,128; 7494,047; 4,58477
1017,57;  441,543;  112,527; 7367,248; 4,53519
1018,11;  410,242;   99,827; 7284,647; 4,32043
1018,66;  430,443;  130,928; 7236,947; 4,21495
1019,21;  401,943;  112,327; 7082,447; 4,15509
1019,76;  373,543;   93,628; 6976,348; 4,06692
1020,31;  357,142;   98,827; 6900,348; 3,79790
1020,86;  374,342;   93,927; 6846,248; 4,15287
1021,41;  361,443;   94,827; 6743,047; 4,01032
1021,96;  359,242;  104,128; 6702,147; 3,86654
1022,50;  403,742;  133,027; 6633,047; 4,16483
1023,05;  375,043;  100,128; 6498,748; 4,29647
1023,60;  375,943;  102,628; 6447,947; 4,30735
1024,15;  353,242;   86,927; 6297,348; 4,28820
1024,70;  381,943;  117,427; 6274,447; 4,29615
1025,25;  366,443;   97,728; 6228,447; 4,38309
1025,79;  392,642;  122,228; 6171,147; 4,47047
1026,34;  376,443;  101,427; 6090,447; 4,59199
1026,89;  375,142;  114,827; 6060,147; 4,37849
1027,44;  381,142;  104,827; 5966,348; 4,71405
1027,99;  386,443;  103,027; 5876,547; 4,90888
1028,53;  380,342;   96,728; 5813,647; 4,96098
1029,08;  386,342;  116,628; 5784,147; 4,75896
1029,63;  393,342;  115,327; 5690,348; 4,98680
1030,18;  368,642;  103,027; 5656,147; 4,78317
1030,73;  364,842;   96,027; 5543,647; 4,93454
1031,27;  357,043;   96,027; 5490,147; 4,83888
1031,82;  365,142;   88,827; 5398,447; 5,20404
1032,37;  366,742;  108,527; 5371,147; 4,90659
1032,92;  377,043;  115,827; 5293,348; 5,04518
1033,46;  357,543;  100,228; 5164,647; 5,08084
1034,01;  338,742;   93,927; 5108,748; 4,88183
1034,56;  354,842;  117,728; 5101,348; 4,75789
1035,11;  352,242;  107,128; 5004,248; 5,00529
1035,65;  344,142;  101,527; 4981,547; 4,97160
1036,20;  347,142;   92,927; 4950,047; 5,23386
1036,75;  348,943;  122,728; 4905,848; 4,72944
1037,29;  334,342;  103,927; 4828,647; 4,87680
1037,84;  291,642;   94,527; 4709,147; 4,27153
1038,39;  306,342;  103,827; 4639,547; 4,46489
1038,94;  265,742;   75,728; 4562,848; 4,23468
1039,48;  278,342;   96,628; 4571,947; 4,06038
1040,03;  297,242;  112,427; 4492,248; 4,21969
1040,58;  268,642;   98,128; 4393,447; 3,96979
1041,12;  261,443;  107,827; 4359,547; 3,61301
1041,67;  265,742;  109,128; 4320,947; 3,71846
1042,22;  275,742;  120,527; 4276,447; 3,73479
1042,76;  259,543;   99,827; 4151,447; 3,94200
1043,31;  251,342;  110,728; 4086,548; 3,53675
1043,86;  254,742;  114,628; 4037,647; 3,57161
1044,40;  247,542;  110,327; 4005,847; 3,52238
1044,95;  251,242;  115,228; 3962,147; 3,53569
1045,50;  225,242;   84,628; 3881,548; 3,70340
1046,04;  267,043;  120,628; 3843,548; 3,93280
1046,59;  235,242;   97,927; 3796,548; 3,71260
1047,13;  268,342;  126,128; 3766,347; 3,90677
1047,68;  262,443;  119,427; 3689,948; 4,00544
1048,23;  251,143;  123,228; 3670,847; 3,60566
1048,77;  221,742;  105,628; 3606,948; 3,31632
1049,32;  248,443;  108,228; 3568,048; 4,05267
1049,86;  257,543;   99,027; 3502,847; 4,65697
1050,41;  232,842;   91,527; 3451,248; 4,20615
1050,96;  247,443;  113,628; 3423,347; 4,04309
1051,50;  239,143;  104,927; 3366,948; 4,11448
1052,05;  245,742;  119,427; 3347,448; 3,91308
1052,59;  221,742;   99,827; 3256,748; 3,86183
1053,14;  231,143;   95,427; 3219,948; 4,34355
1053,69;  234,742;  104,128; 3185,448; 4,23893
1054,23;  242,943;  118,427; 3134,748; 4,12804
1054,78;  244,143;  114,628; 3053,847; 4,40644
1055,32;  249,842;  130,027; 3055,548; 4,09551
1055,87;  214,643;   86,128; 2966,347; 4,46199
1056,41;  213,643;   96,128; 2919,548; 4,16215
1056,96;  214,742;  107,728; 2911,948; 3,81621
1057,50;  247,742;  124,427; 2892,048; 4,45563
1058,05;  213,143;   76,527; 2784,248; 5,04539
1058,59;  226,042;  112,128; 2788,548; 4,25624
1059,14;  224,742;  117,527; 2774,748; 4,03486
1059,68;  191,242;   85,827; 2677,147; 4,06800
1060,23;  230,342;  130,928; 2707,448; 3,85850
1060,77;  217,443;  112,728; 2641,347; 4,14119
1061,32;  208,643;  122,628; 2596,847; 3,47645
1061,86;  202,042;  115,827; 2570,748; 3,51193
1062,41;  204,542;  106,128; 2522,048; 4,07360
1062,95;  203,643;  101,628; 2446,048; 4,35140
1063,50;  205,443;  119,927; 2427,847; 3,70528
1064,04;  182,943;  101,128; 2392,548; 3,57049
1064,59;  203,742;  124,427; 2369,948; 3,53214
1065,13;  196,643;  122,327; 2316,948; 3,38624
1065,68;  195,842;  125,128; 2272,948; 3,29241
1066,22;  194,643;  117,427; 2267,748; 3,59086
1066,76;  203,842;  137,027; 2243,448; 3,17197
1067,31;  183,742;  105,927; 2185,248; 3,74233
1067,85;  194,342;  102,728; 2165,948; 4,44039
1068,40;  186,943;  117,927; 2147,847; 3,39989
1068,94;  185,342;  102,327; 2097,548; 4,16069
1069,49;  175,342;  100,128; 2098,048; 3,76466
1070,03;  165,342;  102,628; 2031,848; 3,25080
1070,57;  156,742;  100,427; 2008,147; 2,95195
1071,12;  157,242;   90,327; 1958,448; 3,58194
1071,66;  210,742;  145,327; 2002,448; 3,52239
1072,21;  190,542;  124,427; 1952,047; 3,61755
1072,75;  176,943;  112,427; 1928,547; 3,55235
1073,29;  161,042;   92,427; 1865,047; 3,87082
1073,84;  173,742;  107,728; 1884,848; 3,71472
1074,38;  165,143;  104,427; 1862,448; 3,45360
1074,92;  173,242;  121,027; 1845,547; 3,02780
1075,47;  186,042;  134,327; 1822,448; 3,06347
1076,01;  198,443;  137,628; 1818,647; 3,61774
1076,56;  169,943;  102,027; 1735,848; 4,15682
1077,10;  165,242;   87,628; 1681,248; 4,87036
1077,64;  173,342;   99,628; 1726,147; 4,53207
1078,19;  191,143;  129,628; 1703,948; 3,90740
1078,73;  176,643;  123,527; 1661,248; 3,45414
1079,27;  186,143;  128,227; 1683,848; 3,72295
1079,81;  199,542;  136,727; 1662,547; 4,11680
1080,36;  181,943;  113,327; 1624,547; 4,54037
1080,90;  175,842;  107,228; 1608,848; 4,56940
1081,44;  158,042;  103,027; 1572,647; 3,74348
1081,99;  141,842;   81,728; 1551,748; 4,08940
1082,53;  177,643;  125,527; 1540,147; 3,68403
1083,07;  165,542;  122,827; 1522,147; 3,05255
1083,62;  173,242;  121,128; 1502,948; 3,77147
1084,16;  162,242;  112,228; 1487,248; 3,63740
1084,70;  158,143;  121,327; 1481,848; 2,70595
1085,24;  181,542;  117,527; 1450,948; 4,80081
1085,79;  154,443;  109,728; 1423,147; 3,40447
1086,33;  153,242;  100,628; 1400,047; 4,04911
1086,87;  156,842;  122,228; 1391,448; 2,72727
1087,41;  155,742;  106,827; 1360,547; 3,90159
1087,96;  174,342;  131,827; 1364,748; 3,44832
1088,50;  155,943;  102,628; 1345,848; 4,28846
1089,04;  180,842;  138,727; 1334,147; 3,52303
1089,58;  132,742;   93,427; 1286,848; 3,29431
1090,13;  142,443;  113,628; 1273,848; 2,48358
1090,67;  154,643;  114,728; 1274,948; 3,44030
1091,21;  150,443;  111,228; 1250,848; 3,44106
1091,75;  147,842;  112,327; 1235,948; 3,16077
1092,29;  161,342;  121,427; 1240,647; 3,56632
1092,84;  146,342;  104,628; 1213,147; 3,76313
1093,38;  179,742;  134,128; 1226,448; 4,17597
1093,92;  163,143;  128,027; 1210,748; 3,24322
1094,46;  161,842;  128,527; 1207,248; 3,08838
1095,00;  157,542;  110,228; 1150,448; 4,54856
1095,54;  130,042;   92,027; 1139,547; 3,62905
1096,09;  153,443;  113,128; 1144,047; 3,91059
1096,63;  156,042;  130,527; 1128,647; 2,55631
1097,17;  139,943;  109,427; 1108,147; 3,05541
1097,71;  166,042;  126,128; 1099,248; 4,10175
1098,25;  138,143;   97,927; 1059,547; 4,18201
1098,79;  162,342;  124,728; 1078,647; 3,94320
1099,33;  155,542;  117,728; 1040,147; 4,09954
1099,88;  144,342;  118,628; 1035,848; 2,80358
1100,42;  118,143;  103,628; 1000,747; 1,61796

