PE UV       SUBTECH     SPECTRUM    ASCII       PEDS        4.00        
   -1
CICIMAUCR0251-3.Sample.ASC
24/05/27
17:05:10.00
24/05/27
17:05:10.00
Vinicio Soto Monge
C. resplendens, F
250,000000
1
Lambda 1050
1050L1511233
PerkinElmer UV WinLab 6.3.2.0749 / 2.02.05 Lambda 900 UV/VIS/NIR, Aug  7 2015 09:38:08

0
0
3350/servo 860,8/2
0
0
UV/VIS
1
1
1
DoubleDePol,CommonBeamDepol,RBeamAtt,SBeamAtt,60mm sphere, WB InGaAs Detector
0
0
0
0
Program
Program
3350/servo 860,8/2
3350/0,2 860,8/0,2
3350/0,2 860,8/0,2
0
15.00
 
 
 
0
 
860,8
319,2
860,8
Front
100
on
S:100 R:100
0
0
0
0
 
0
 
 
 
0
 
 
0
0
0
0
0
 
 
 
 
0
0


0
0
#HDR
-1
-1
#GR
nm
%R
1.0
0.0
2500,000000
-1,000000
2251
8
89,601500
5,208800
#DATA
250.000000	0.139523
251.000000	0.093565
252.000000	0.098222
253.000000	0.105227
254.000000	0.099865
255.000000	0.095840
256.000000	0.102502
257.000000	0.092286
258.000000	0.085921
259.000000	0.104248
260.000000	0.065177
261.000000	0.101732
262.000000	0.062056
263.000000	0.063110
264.000000	0.057577
265.000000	0.081541
266.000000	0.095319
267.000000	0.089278
268.000000	0.080539
269.000000	0.071960
270.000000	0.098067
271.000000	0.083652
272.000000	0.101729
273.000000	0.078395
274.000000	0.070777
275.000000	0.069707
276.000000	0.061185
277.000000	0.066766
278.000000	0.070688
279.000000	0.091969
280.000000	0.085231
281.000000	0.101994
282.000000	0.096403
283.000000	0.044614
284.000000	0.029202
285.000000	0.037954
286.000000	0.048212
287.000000	0.054466
288.000000	0.066657
289.000000	0.058859
290.000000	0.063175
291.000000	0.073777
292.000000	0.079628
293.000000	0.078281
294.000000	0.057022
295.000000	0.059750
296.000000	0.077424
297.000000	0.058226
298.000000	0.066910
299.000000	0.091630
300.000000	0.119642
301.000000	0.088329
302.000000	0.082629
303.000000	0.077351
304.000000	0.074952
305.000000	0.085312
306.000000	0.097424
307.000000	0.090845
308.000000	0.066029
309.000000	0.051232
310.000000	0.053819
311.000000	0.097980
312.000000	0.107528
313.000000	0.060219
314.000000	0.040739
315.000000	0.081957
316.000000	0.308515
317.000000	0.542455
318.000000	0.316414
319.000000	0.227549
320.000000	0.440873
321.000000	0.430756
322.000000	0.337660
323.000000	0.333045
324.000000	0.404311
325.000000	0.136985
326.000000	0.193016
327.000000	0.222763
328.000000	0.051506
329.000000	0.274298
330.000000	0.230710
331.000000	0.120176
332.000000	0.129132
333.000000	0.098430
334.000000	0.047174
335.000000	0.056804
336.000000	0.024507
337.000000	0.092266
338.000000	0.159540
339.000000	0.212872
340.000000	0.105870
341.000000	0.098958
342.000000	0.085524
343.000000	0.106798
344.000000	0.069889
345.000000	0.170874
346.000000	0.146917
347.000000	0.076704
348.000000	0.016944
349.000000	0.038180
350.000000	0.077744
351.000000	0.085555
352.000000	0.025234
353.000000	0.046665
354.000000	0.053367
355.000000	0.014913
356.000000	0.038328
357.000000	0.070680
358.000000	0.058833
359.000000	0.054325
360.000000	0.070754
361.000000	0.123404
362.000000	0.133284
363.000000	0.137334
364.000000	0.016784
365.000000	0.033810
366.000000	0.111973
367.000000	0.154959
368.000000	0.126440
369.000000	0.085795
370.000000	0.087180
371.000000	0.123157
372.000000	0.180812
373.000000	0.132675
374.000000	0.186451
375.000000	0.050380
376.000000	0.089659
377.000000	0.037674
378.000000	0.062424
379.000000	0.056450
380.000000	0.060787
381.000000	0.072669
382.000000	0.096639
383.000000	0.120381
384.000000	0.126511
385.000000	0.152829
386.000000	0.175581
387.000000	0.192044
388.000000	0.223511
389.000000	0.241516
390.000000	0.273556
391.000000	0.300425
392.000000	0.322781
393.000000	0.357111
394.000000	0.397988
395.000000	0.430209
396.000000	0.474048
397.000000	0.489207
398.000000	0.493936
399.000000	0.527374
400.000000	0.573368
401.000000	0.605023
402.000000	0.631818
403.000000	0.654260
404.000000	0.661933
405.000000	0.682996
406.000000	0.684322
407.000000	0.688047
408.000000	0.685441
409.000000	0.676171
410.000000	0.680251
411.000000	0.666307
412.000000	0.644597
413.000000	0.635130
414.000000	0.606067
415.000000	0.583283
416.000000	0.542412
417.000000	0.530458
418.000000	0.495278
419.000000	0.462545
420.000000	0.426547
421.000000	0.401287
422.000000	0.367891
423.000000	0.329320
424.000000	0.309457
425.000000	0.278175
426.000000	0.262352
427.000000	0.224019
428.000000	0.220317
429.000000	0.209841
430.000000	0.248302
431.000000	0.228072
432.000000	0.253578
433.000000	0.276157
434.000000	0.275904
435.000000	0.310361
436.000000	0.344491
437.000000	0.372332
438.000000	0.409079
439.000000	0.435845
440.000000	0.477096
441.000000	0.498828
442.000000	0.525701
443.000000	0.556836
444.000000	0.575069
445.000000	0.636603
446.000000	0.675315
447.000000	0.743959
448.000000	0.794866
449.000000	0.814922
450.000000	0.855887
451.000000	0.891179
452.000000	0.916053
453.000000	0.932364
454.000000	0.927856
455.000000	0.969035
456.000000	0.958643
457.000000	0.968776
458.000000	0.946976
459.000000	0.931332
460.000000	0.881487
461.000000	0.828190
462.000000	0.783889
463.000000	0.714618
464.000000	0.646084
465.000000	0.543641
466.000000	0.482172
467.000000	0.382393
468.000000	0.315290
469.000000	0.240882
470.000000	0.246515
471.000000	0.315157
472.000000	0.404320
473.000000	0.479245
474.000000	0.611373
475.000000	0.678958
476.000000	0.762649
477.000000	0.829958
478.000000	0.880441
479.000000	0.897430
480.000000	0.859433
481.000000	0.847859
482.000000	0.820050
483.000000	0.768069
484.000000	0.688690
485.000000	0.604633
486.000000	0.527097
487.000000	0.426657
488.000000	0.380415
489.000000	0.321300
490.000000	0.329647
491.000000	0.331830
492.000000	0.379787
493.000000	0.413456
494.000000	0.464949
495.000000	0.488272
496.000000	0.490531
497.000000	0.496839
498.000000	0.470320
499.000000	0.450466
500.000000	0.374701
501.000000	0.339253
502.000000	0.267424
503.000000	0.226400
504.000000	0.249953
505.000000	0.367541
506.000000	0.512316
507.000000	0.675266
508.000000	0.834317
509.000000	1.013338
510.000000	1.205791
511.000000	1.361773
512.000000	1.549705
513.000000	1.693851
514.000000	1.815735
515.000000	1.949232
516.000000	2.059426
517.000000	2.110790
518.000000	2.158509
519.000000	2.168666
520.000000	2.156861
521.000000	2.128773
522.000000	2.063637
523.000000	1.997300
524.000000	1.900755
525.000000	1.808033
526.000000	1.724124
527.000000	1.594893
528.000000	1.495809
529.000000	1.400498
530.000000	1.324133
531.000000	1.244927
532.000000	1.169806
533.000000	1.119440
534.000000	1.074628
535.000000	1.056211
536.000000	1.024853
537.000000	1.009565
538.000000	0.993247
539.000000	0.988153
540.000000	0.993239
541.000000	0.982960
542.000000	1.000662
543.000000	1.016882
544.000000	1.015816
545.000000	1.017880
546.000000	1.002773
547.000000	1.049789
548.000000	1.068160
549.000000	1.070067
550.000000	1.068538
551.000000	1.077121
552.000000	1.083110
553.000000	1.099019
554.000000	1.103082
555.000000	1.109721
556.000000	1.096681
557.000000	1.110339
558.000000	1.121457
559.000000	1.118041
560.000000	1.125137
561.000000	1.111702
562.000000	1.144973
563.000000	1.146813
564.000000	1.120476
565.000000	1.142924
566.000000	1.122604
567.000000	1.137786
568.000000	1.170891
569.000000	1.169705
570.000000	1.195790
571.000000	1.185863
572.000000	1.197231
573.000000	1.213229
574.000000	1.220539
575.000000	1.223966
576.000000	1.239112
577.000000	1.253991
578.000000	1.253331
579.000000	1.288312
580.000000	1.285325
581.000000	1.274523
582.000000	1.271606
583.000000	1.280557
584.000000	1.272619
585.000000	1.267789
586.000000	1.275477
587.000000	1.275712
588.000000	1.273228
589.000000	1.270793
590.000000	1.302519
591.000000	1.311739
592.000000	1.346812
593.000000	1.380913
594.000000	1.425090
595.000000	1.424036
596.000000	1.470550
597.000000	1.514199
598.000000	1.558977
599.000000	1.601074
600.000000	1.660770
601.000000	1.718962
602.000000	1.768996
603.000000	1.824593
604.000000	1.877893
605.000000	1.933536
606.000000	1.992447
607.000000	2.043783
608.000000	2.085816
609.000000	2.144897
610.000000	2.160986
611.000000	2.186961
612.000000	2.244529
613.000000	2.243801
614.000000	2.262091
615.000000	2.299764
616.000000	2.346956
617.000000	2.352877
618.000000	2.368766
619.000000	2.385127
620.000000	2.398903
621.000000	2.407808
622.000000	2.394700
623.000000	2.358084
624.000000	2.316375
625.000000	2.235610
626.000000	2.156286
627.000000	2.075370
628.000000	1.916088
629.000000	1.777754
630.000000	1.651771
631.000000	1.516758
632.000000	1.400561
633.000000	1.301852
634.000000	1.165913
635.000000	1.045477
636.000000	0.943985
637.000000	0.801307
638.000000	0.665212
639.000000	0.570199
640.000000	0.554329
641.000000	0.657359
642.000000	0.835555
643.000000	1.075895
644.000000	1.354610
645.000000	1.626931
646.000000	1.869324
647.000000	2.100862
648.000000	2.316218
649.000000	2.474083
650.000000	2.570510
651.000000	2.627229
652.000000	2.662682
653.000000	2.661027
654.000000	2.622940
655.000000	2.564140
656.000000	2.488035
657.000000	2.414476
658.000000	2.359251
659.000000	2.326198
660.000000	2.270457
661.000000	2.195902
662.000000	2.134294
663.000000	2.085107
664.000000	2.061848
665.000000	2.012694
666.000000	1.954173
667.000000	1.912644
668.000000	1.869737
669.000000	1.804853
670.000000	1.706019
671.000000	1.614690
672.000000	1.531442
673.000000	1.432981
674.000000	1.337729
675.000000	1.248402
676.000000	1.187520
677.000000	1.162318
678.000000	1.131272
679.000000	1.103034
680.000000	1.104909
681.000000	1.092116
682.000000	1.092592
683.000000	1.092691
684.000000	1.083537
685.000000	1.109148
686.000000	1.120797
687.000000	1.058671
688.000000	1.015855
689.000000	0.985387
690.000000	0.948624
691.000000	0.919352
692.000000	0.852703
693.000000	0.800428
694.000000	0.809034
695.000000	0.769085
696.000000	0.692102
697.000000	0.620818
698.000000	0.611985
699.000000	0.654610
700.000000	0.717016
701.000000	0.787388
702.000000	0.802322
703.000000	0.806033
704.000000	0.867853
705.000000	0.923366
706.000000	0.955033
707.000000	0.962424
708.000000	1.032363
709.000000	1.089540
710.000000	1.111610
711.000000	1.156408
712.000000	1.188931
713.000000	1.200149
714.000000	1.220541
715.000000	1.270016
716.000000	1.199573
717.000000	1.220186
718.000000	1.214404
719.000000	1.265184
720.000000	1.345241
721.000000	1.333893
722.000000	1.350472
723.000000	1.342578
724.000000	1.366669
725.000000	1.348143
726.000000	1.317450
727.000000	1.294356
728.000000	1.265743
729.000000	1.179538
730.000000	1.118704
731.000000	1.054811
732.000000	0.972683
733.000000	0.902364
734.000000	0.803191
735.000000	0.770577
736.000000	0.739119
737.000000	0.667470
738.000000	0.665363
739.000000	0.623719
740.000000	0.657149
741.000000	0.645723
742.000000	0.598884
743.000000	0.698371
744.000000	0.636377
745.000000	0.661782
746.000000	0.691202
747.000000	0.649182
748.000000	0.625359
749.000000	0.589975
750.000000	0.537121
751.000000	0.506873
752.000000	0.486591
753.000000	0.458672
754.000000	0.423722
755.000000	0.461138
756.000000	0.334358
757.000000	0.382578
758.000000	0.357976
759.000000	0.380337
760.000000	0.446291
761.000000	0.446229
762.000000	0.596580
763.000000	0.522860
764.000000	0.505434
765.000000	0.584448
766.000000	0.586697
767.000000	0.705200
768.000000	0.750966
769.000000	0.757873
770.000000	0.827320
771.000000	0.835622
772.000000	0.953510
773.000000	0.927597
774.000000	1.153254
775.000000	1.143532
776.000000	1.337245
777.000000	1.244611
778.000000	1.379700
779.000000	1.486511
780.000000	1.479673
781.000000	1.610400
782.000000	1.577949
783.000000	1.605296
784.000000	1.564731
785.000000	1.668835
786.000000	1.627127
787.000000	1.604653
788.000000	1.629559
789.000000	1.618353
790.000000	1.692986
791.000000	1.739212
792.000000	1.599716
793.000000	1.654253
794.000000	1.698200
795.000000	1.654620
796.000000	1.507634
797.000000	1.642072
798.000000	1.552681
799.000000	1.519910
800.000000	1.588173
801.000000	1.477091
802.000000	1.482416
803.000000	1.454040
804.000000	1.455090
805.000000	1.445310
806.000000	1.421543
807.000000	1.394612
808.000000	1.471736
809.000000	1.505151
810.000000	1.581033
811.000000	1.500094
812.000000	1.466102
813.000000	1.554640
814.000000	1.638967
815.000000	1.914569
816.000000	1.955020
817.000000	2.088403
818.000000	2.218014
819.000000	2.249564
820.000000	2.336732
821.000000	2.395506
822.000000	2.508403
823.000000	2.594759
824.000000	2.457329
825.000000	2.557868
826.000000	2.461039
827.000000	2.378536
828.000000	2.371153
829.000000	2.657945
830.000000	2.344514
831.000000	2.259576
832.000000	2.435635
833.000000	2.317618
834.000000	2.434349
835.000000	2.449785
836.000000	2.329220
837.000000	2.092998
838.000000	2.189406
839.000000	2.463962
840.000000	2.043624
841.000000	2.060475
842.000000	2.220477
843.000000	2.032219
844.000000	1.744571
845.000000	2.201945
846.000000	2.036634
847.000000	1.707657
848.000000	1.770569
849.000000	1.708094
850.000000	1.391729
851.000000	1.275537
852.000000	1.319580
853.000000	0.868121
854.000000	1.183665
855.000000	0.892142
856.000000	0.982306
857.000000	0.886698
858.000000	0.903460
859.000000	0.879375
860.000000	0.866948
861.000000	0.875360
862.000000	0.871310
863.000000	0.869781
864.000000	0.880078
865.000000	0.883643
866.000000	0.904937
867.000000	0.925942
868.000000	0.915602
869.000000	0.894759
870.000000	0.857173
871.000000	0.821527
872.000000	0.823668
873.000000	0.831502
874.000000	0.843413
875.000000	0.835767
876.000000	0.828764
877.000000	0.817832
878.000000	0.813750
879.000000	0.804571
880.000000	0.786833
881.000000	0.791449
882.000000	0.794576
883.000000	0.785313
884.000000	0.783831
885.000000	0.776944
886.000000	0.778543
887.000000	0.787291
888.000000	0.783104
889.000000	0.774606
890.000000	0.773126
891.000000	0.762427
892.000000	0.775058
893.000000	0.786783
894.000000	0.792051
895.000000	0.796835
896.000000	0.799789
897.000000	0.812211
898.000000	0.829673
899.000000	0.851065
900.000000	0.856497
901.000000	0.867183
902.000000	0.875757
903.000000	0.886332
904.000000	0.908801
905.000000	0.916198
906.000000	0.929599
907.000000	0.945159
908.000000	0.962725
909.000000	0.964003
910.000000	0.974500
911.000000	0.997798
912.000000	1.011020
913.000000	1.039480
914.000000	1.068413
915.000000	1.090456
916.000000	1.127341
917.000000	1.160373
918.000000	1.199601
919.000000	1.240828
920.000000	1.286670
921.000000	1.342249
922.000000	1.387177
923.000000	1.432169
924.000000	1.485209
925.000000	1.533669
926.000000	1.583668
927.000000	1.629548
928.000000	1.666755
929.000000	1.702493
930.000000	1.755951
931.000000	1.801351
932.000000	1.820869
933.000000	1.856535
934.000000	1.904111
935.000000	1.955582
936.000000	2.003352
937.000000	2.036465
938.000000	2.072152
939.000000	2.118655
940.000000	2.151956
941.000000	2.181663
942.000000	2.224124
943.000000	2.265759
944.000000	2.301290
945.000000	2.330040
946.000000	2.360168
947.000000	2.395186
948.000000	2.429500
949.000000	2.450989
950.000000	2.466250
951.000000	2.491721
952.000000	2.519931
953.000000	2.541733
954.000000	2.567975
955.000000	2.592899
956.000000	2.590970
957.000000	2.601181
958.000000	2.634299
959.000000	2.657199
960.000000	2.665224
961.000000	2.669588
962.000000	2.677878
963.000000	2.693791
964.000000	2.717468
965.000000	2.735720
966.000000	2.750972
967.000000	2.761871
968.000000	2.776900
969.000000	2.797377
970.000000	2.812225
971.000000	2.822211
972.000000	2.837983
973.000000	2.856406
974.000000	2.873870
975.000000	2.874402
976.000000	2.879379
977.000000	2.887552
978.000000	2.890792
979.000000	2.903129
980.000000	2.905294
981.000000	2.907142
982.000000	2.909828
983.000000	2.918739
984.000000	2.927272
985.000000	2.929031
986.000000	2.934782
987.000000	2.941657
988.000000	2.946143
989.000000	2.953569
990.000000	2.951144
991.000000	2.943061
992.000000	2.947361
993.000000	2.941265
994.000000	2.931789
995.000000	2.916511
996.000000	2.897724
997.000000	2.887143
998.000000	2.872150
999.000000	2.851462
1000.000000	2.821804
1001.000000	2.801622
1002.000000	2.766503
1003.000000	2.727631
1004.000000	2.706382
1005.000000	2.680702
1006.000000	2.655077
1007.000000	2.636263
1008.000000	2.608706
1009.000000	2.577464
1010.000000	2.540049
1011.000000	2.516984
1012.000000	2.492692
1013.000000	2.463802
1014.000000	2.433385
1015.000000	2.401727
1016.000000	2.371413
1017.000000	2.331644
1018.000000	2.309397
1019.000000	2.278029
1020.000000	2.243719
1021.000000	2.202085
1022.000000	2.156254
1023.000000	2.117241
1024.000000	2.103648
1025.000000	2.067472
1026.000000	2.038414
1027.000000	2.012910
1028.000000	1.973640
1029.000000	1.944110
1030.000000	1.917513
1031.000000	1.896535
1032.000000	1.867159
1033.000000	1.848186
1034.000000	1.818948
1035.000000	1.802311
1036.000000	1.777408
1037.000000	1.740357
1038.000000	1.719593
1039.000000	1.690907
1040.000000	1.661129
1041.000000	1.640526
1042.000000	1.617992
1043.000000	1.586088
1044.000000	1.566526
1045.000000	1.532048
1046.000000	1.503304
1047.000000	1.475509
1048.000000	1.453461
1049.000000	1.441069
1050.000000	1.412088
1051.000000	1.395419
1052.000000	1.370995
1053.000000	1.343436
1054.000000	1.326471
1055.000000	1.318620
1056.000000	1.299215
1057.000000	1.279246
1058.000000	1.252139
1059.000000	1.229949
1060.000000	1.203338
1061.000000	1.188541
1062.000000	1.166831
1063.000000	1.154314
1064.000000	1.126272
1065.000000	1.106430
1066.000000	1.094498
1067.000000	1.074012
1068.000000	1.052501
1069.000000	1.030910
1070.000000	1.019873
1071.000000	1.002049
1072.000000	0.979350
1073.000000	0.964457
1074.000000	0.951745
1075.000000	0.922447
1076.000000	0.904842
1077.000000	0.907232
1078.000000	0.884063
1079.000000	0.880852
1080.000000	0.864207
1081.000000	0.845012
1082.000000	0.835537
1083.000000	0.812586
1084.000000	0.814131
1085.000000	0.793565
1086.000000	0.786359
1087.000000	0.773600
1088.000000	0.758469
1089.000000	0.745009
1090.000000	0.736729
1091.000000	0.725744
1092.000000	0.705167
1093.000000	0.702878
1094.000000	0.680655
1095.000000	0.671472
1096.000000	0.686582
1097.000000	0.674843
1098.000000	0.664681
1099.000000	0.648609
1100.000000	0.649609
1101.000000	0.647005
1102.000000	0.659025
1103.000000	0.629204
1104.000000	0.625814
1105.000000	0.647745
1106.000000	0.623135
1107.000000	0.621676
1108.000000	0.614672
1109.000000	0.620625
1110.000000	0.618138
1111.000000	0.623131
1112.000000	0.618976
1113.000000	0.626914
1114.000000	0.620997
1115.000000	0.624734
1116.000000	0.626609
1117.000000	0.620979
1118.000000	0.625345
1119.000000	0.630157
1120.000000	0.624656
1121.000000	0.633706
1122.000000	0.632415
1123.000000	0.632824
1124.000000	0.638684
1125.000000	0.624758
1126.000000	0.640759
1127.000000	0.655927
1128.000000	0.640223
1129.000000	0.649371
1130.000000	0.654663
1131.000000	0.642571
1132.000000	0.667654
1133.000000	0.656013
1134.000000	0.689081
1135.000000	0.692071
1136.000000	0.700291
1137.000000	0.706176
1138.000000	0.713911
1139.000000	0.730482
1140.000000	0.753228
1141.000000	0.760429
1142.000000	0.760219
1143.000000	0.779234
1144.000000	0.793146
1145.000000	0.800009
1146.000000	0.804097
1147.000000	0.806462
1148.000000	0.814004
1149.000000	0.819412
1150.000000	0.803987
1151.000000	0.809869
1152.000000	0.807841
1153.000000	0.820933
1154.000000	0.821910
1155.000000	0.826044
1156.000000	0.832761
1157.000000	0.844036
1158.000000	0.847176
1159.000000	0.858875
1160.000000	0.878378
1161.000000	0.893024
1162.000000	0.901040
1163.000000	0.908615
1164.000000	0.929354
1165.000000	0.938351
1166.000000	0.946301
1167.000000	0.960344
1168.000000	0.970428
1169.000000	0.977021
1170.000000	1.001694
1171.000000	1.021775
1172.000000	1.024785
1173.000000	1.038451
1174.000000	1.059846
1175.000000	1.066579
1176.000000	1.077141
1177.000000	1.091550
1178.000000	1.114190
1179.000000	1.121093
1180.000000	1.145770
1181.000000	1.162812
1182.000000	1.189285
1183.000000	1.210974
1184.000000	1.226942
1185.000000	1.232497
1186.000000	1.244420
1187.000000	1.246397
1188.000000	1.252567
1189.000000	1.249257
1190.000000	1.255935
1191.000000	1.262994
1192.000000	1.247248
1193.000000	1.236106
1194.000000	1.237769
1195.000000	1.232207
1196.000000	1.227857
1197.000000	1.225569
1198.000000	1.218426
1199.000000	1.211127
1200.000000	1.217763
1201.000000	1.220641
1202.000000	1.208699
1203.000000	1.207524
1204.000000	1.218039
1205.000000	1.210905
1206.000000	1.205728
1207.000000	1.199302
1208.000000	1.195032
1209.000000	1.188833
1210.000000	1.177889
1211.000000	1.170047
1212.000000	1.164180
1213.000000	1.156309
1214.000000	1.142895
1215.000000	1.133631
1216.000000	1.129896
1217.000000	1.119692
1218.000000	1.105570
1219.000000	1.094587
1220.000000	1.090804
1221.000000	1.083081
1222.000000	1.066645
1223.000000	1.053387
1224.000000	1.044296
1225.000000	1.043118
1226.000000	1.040820
1227.000000	1.025245
1228.000000	1.022647
1229.000000	1.020133
1230.000000	1.017845
1231.000000	1.011118
1232.000000	1.006438
1233.000000	1.001467
1234.000000	0.997584
1235.000000	0.999677
1236.000000	1.003106
1237.000000	1.005341
1238.000000	1.009502
1239.000000	1.023071
1240.000000	1.019377
1241.000000	1.011260
1242.000000	1.015335
1243.000000	1.014958
1244.000000	1.026872
1245.000000	1.033264
1246.000000	1.032398
1247.000000	1.035963
1248.000000	1.031607
1249.000000	1.029645
1250.000000	1.042104
1251.000000	1.052033
1252.000000	1.055382
1253.000000	1.050330
1254.000000	1.045764
1255.000000	1.056801
1256.000000	1.063457
1257.000000	1.056108
1258.000000	1.051550
1259.000000	1.060286
1260.000000	1.064735
1261.000000	1.057256
1262.000000	1.056462
1263.000000	1.062970
1264.000000	1.064553
1265.000000	1.060395
1266.000000	1.065121
1267.000000	1.060917
1268.000000	1.048865
1269.000000	1.048983
1270.000000	1.045144
1271.000000	1.029393
1272.000000	1.031358
1273.000000	1.032876
1274.000000	1.030319
1275.000000	1.025023
1276.000000	1.017324
1277.000000	1.010810
1278.000000	1.007580
1279.000000	1.000849
1280.000000	0.991013
1281.000000	0.988250
1282.000000	0.977319
1283.000000	0.973787
1284.000000	0.969404
1285.000000	0.968531
1286.000000	0.963850
1287.000000	0.960704
1288.000000	0.943879
1289.000000	0.930391
1290.000000	0.935189
1291.000000	0.925580
1292.000000	0.934816
1293.000000	0.922613
1294.000000	0.924320
1295.000000	0.923352
1296.000000	0.920646
1297.000000	0.926623
1298.000000	0.913216
1299.000000	0.917050
1300.000000	0.907522
1301.000000	0.913418
1302.000000	0.916502
1303.000000	0.905841
1304.000000	0.903115
1305.000000	0.912405
1306.000000	0.914802
1307.000000	0.926296
1308.000000	0.928677
1309.000000	0.933625
1310.000000	0.933436
1311.000000	0.936456
1312.000000	0.942719
1313.000000	0.939574
1314.000000	0.940228
1315.000000	0.956050
1316.000000	0.956965
1317.000000	0.965965
1318.000000	0.972503
1319.000000	0.983427
1320.000000	0.983069
1321.000000	1.004299
1322.000000	1.019074
1323.000000	1.024467
1324.000000	1.024587
1325.000000	1.032860
1326.000000	1.043359
1327.000000	1.047525
1328.000000	1.058765
1329.000000	1.070012
1330.000000	1.082036
1331.000000	1.072239
1332.000000	1.099068
1333.000000	1.098274
1334.000000	1.111410
1335.000000	1.118727
1336.000000	1.140438
1337.000000	1.148864
1338.000000	1.155537
1339.000000	1.143446
1340.000000	1.156197
1341.000000	1.154518
1342.000000	1.168900
1343.000000	1.167258
1344.000000	1.181892
1345.000000	1.177608
1346.000000	1.212703
1347.000000	1.188074
1348.000000	1.197105
1349.000000	1.184955
1350.000000	1.196111
1351.000000	1.184431
1352.000000	1.189681
1353.000000	1.194505
1354.000000	1.201005
1355.000000	1.200212
1356.000000	1.202513
1357.000000	1.193013
1358.000000	1.185324
1359.000000	1.210177
1360.000000	1.181157
1361.000000	1.180957
1362.000000	1.187187
1363.000000	1.170272
1364.000000	1.172675
1365.000000	1.150369
1366.000000	1.146529
1367.000000	1.155041
1368.000000	1.142158
1369.000000	1.147831
1370.000000	1.133536
1371.000000	1.132417
1372.000000	1.132756
1373.000000	1.138528
1374.000000	1.129283
1375.000000	1.109309
1376.000000	1.120531
1377.000000	1.108832
1378.000000	1.102500
1379.000000	1.087018
1380.000000	1.074579
1381.000000	1.062373
1382.000000	1.052737
1383.000000	1.040788
1384.000000	1.042558
1385.000000	1.029414
1386.000000	1.018391
1387.000000	1.009724
1388.000000	0.985961
1389.000000	0.979422
1390.000000	0.976035
1391.000000	0.959089
1392.000000	0.957850
1393.000000	0.962635
1394.000000	0.945446
1395.000000	0.930872
1396.000000	0.908758
1397.000000	0.905072
1398.000000	0.902824
1399.000000	0.886163
1400.000000	0.868465
1401.000000	0.863535
1402.000000	0.861480
1403.000000	0.845278
1404.000000	0.822787
1405.000000	0.798329
1406.000000	0.808433
1407.000000	0.785188
1408.000000	0.777698
1409.000000	0.767754
1410.000000	0.765562
1411.000000	0.756293
1412.000000	0.745801
1413.000000	0.748589
1414.000000	0.729965
1415.000000	0.716805
1416.000000	0.711771
1417.000000	0.729342
1418.000000	0.716751
1419.000000	0.705820
1420.000000	0.694627
1421.000000	0.700696
1422.000000	0.686727
1423.000000	0.678171
1424.000000	0.678083
1425.000000	0.671948
1426.000000	0.682737
1427.000000	0.671648
1428.000000	0.667158
1429.000000	0.647139
1430.000000	0.651294
1431.000000	0.642762
1432.000000	0.636634
1433.000000	0.634881
1434.000000	0.621458
1435.000000	0.619446
1436.000000	0.604037
1437.000000	0.601804
1438.000000	0.592894
1439.000000	0.593731
1440.000000	0.585167
1441.000000	0.577907
1442.000000	0.571991
1443.000000	0.559979
1444.000000	0.555121
1445.000000	0.553674
1446.000000	0.543301
1447.000000	0.536388
1448.000000	0.525934
1449.000000	0.515116
1450.000000	0.501439
1451.000000	0.496662
1452.000000	0.497359
1453.000000	0.494059
1454.000000	0.473726
1455.000000	0.462895
1456.000000	0.461610
1457.000000	0.458096
1458.000000	0.451086
1459.000000	0.442590
1460.000000	0.434251
1461.000000	0.434993
1462.000000	0.432472
1463.000000	0.425863
1464.000000	0.420279
1465.000000	0.413088
1466.000000	0.417033
1467.000000	0.411557
1468.000000	0.404658
1469.000000	0.386738
1470.000000	0.388699
1471.000000	0.403337
1472.000000	0.395965
1473.000000	0.388090
1474.000000	0.395106
1475.000000	0.406393
1476.000000	0.402186
1477.000000	0.395968
1478.000000	0.407468
1479.000000	0.404231
1480.000000	0.405652
1481.000000	0.411839
1482.000000	0.411970
1483.000000	0.404470
1484.000000	0.415602
1485.000000	0.428033
1486.000000	0.427238
1487.000000	0.425982
1488.000000	0.443015
1489.000000	0.449794
1490.000000	0.456398
1491.000000	0.463904
1492.000000	0.471735
1493.000000	0.476998
1494.000000	0.477386
1495.000000	0.490113
1496.000000	0.503733
1497.000000	0.510724
1498.000000	0.522127
1499.000000	0.534711
1500.000000	0.540790
1501.000000	0.542831
1502.000000	0.552626
1503.000000	0.561360
1504.000000	0.577133
1505.000000	0.591951
1506.000000	0.594077
1507.000000	0.606209
1508.000000	0.614585
1509.000000	0.620962
1510.000000	0.629056
1511.000000	0.643654
1512.000000	0.657298
1513.000000	0.663059
1514.000000	0.670385
1515.000000	0.671176
1516.000000	0.672578
1517.000000	0.684250
1518.000000	0.692085
1519.000000	0.699569
1520.000000	0.705925
1521.000000	0.701847
1522.000000	0.696932
1523.000000	0.703877
1524.000000	0.712989
1525.000000	0.716545
1526.000000	0.721697
1527.000000	0.726878
1528.000000	0.729502
1529.000000	0.732392
1530.000000	0.732777
1531.000000	0.737413
1532.000000	0.735955
1533.000000	0.727618
1534.000000	0.729015
1535.000000	0.738075
1536.000000	0.744470
1537.000000	0.741026
1538.000000	0.733593
1539.000000	0.729141
1540.000000	0.729001
1541.000000	0.730622
1542.000000	0.733919
1543.000000	0.733579
1544.000000	0.731956
1545.000000	0.727235
1546.000000	0.715258
1547.000000	0.711993
1548.000000	0.716973
1549.000000	0.717159
1550.000000	0.709032
1551.000000	0.715682
1552.000000	0.717450
1553.000000	0.709478
1554.000000	0.709885
1555.000000	0.706934
1556.000000	0.689964
1557.000000	0.688870
1558.000000	0.688320
1559.000000	0.693721
1560.000000	0.693034
1561.000000	0.679900
1562.000000	0.680362
1563.000000	0.684305
1564.000000	0.672314
1565.000000	0.672933
1566.000000	0.679243
1567.000000	0.663778
1568.000000	0.664000
1569.000000	0.669037
1570.000000	0.674725
1571.000000	0.677531
1572.000000	0.671869
1573.000000	0.673665
1574.000000	0.664272
1575.000000	0.660203
1576.000000	0.667599
1577.000000	0.672250
1578.000000	0.674585
1579.000000	0.673525
1580.000000	0.667644
1581.000000	0.677493
1582.000000	0.681289
1583.000000	0.682252
1584.000000	0.685035
1585.000000	0.688923
1586.000000	0.695613
1587.000000	0.691571
1588.000000	0.696523
1589.000000	0.708874
1590.000000	0.718636
1591.000000	0.727860
1592.000000	0.735203
1593.000000	0.739947
1594.000000	0.749257
1595.000000	0.753514
1596.000000	0.762899
1597.000000	0.770054
1598.000000	0.768702
1599.000000	0.784132
1600.000000	0.797373
1601.000000	0.793300
1602.000000	0.799052
1603.000000	0.807982
1604.000000	0.818421
1605.000000	0.827153
1606.000000	0.832281
1607.000000	0.843356
1608.000000	0.850535
1609.000000	0.858970
1610.000000	0.862450
1611.000000	0.881018
1612.000000	0.883134
1613.000000	0.884526
1614.000000	0.890597
1615.000000	0.900253
1616.000000	0.910008
1617.000000	0.916338
1618.000000	0.927171
1619.000000	0.935121
1620.000000	0.923208
1621.000000	0.931430
1622.000000	0.948329
1623.000000	0.955059
1624.000000	0.948465
1625.000000	0.962479
1626.000000	0.964708
1627.000000	0.968961
1628.000000	0.966187
1629.000000	0.976664
1630.000000	0.994349
1631.000000	0.982418
1632.000000	0.981775
1633.000000	0.998670
1634.000000	1.005481
1635.000000	0.991789
1636.000000	0.998606
1637.000000	1.006751
1638.000000	0.986482
1639.000000	0.997154
1640.000000	1.013598
1641.000000	1.007058
1642.000000	1.006186
1643.000000	0.982462
1644.000000	1.009866
1645.000000	0.998678
1646.000000	0.995617
1647.000000	0.998881
1648.000000	0.995545
1649.000000	1.002036
1650.000000	0.998232
1651.000000	1.002098
1652.000000	0.989060
1653.000000	0.998949
1654.000000	0.977511
1655.000000	0.987634
1656.000000	0.981588
1657.000000	0.959014
1658.000000	0.969803
1659.000000	0.952255
1660.000000	0.946236
1661.000000	0.944749
1662.000000	0.929839
1663.000000	0.921379
1664.000000	0.918552
1665.000000	0.901479
1666.000000	0.893431
1667.000000	0.890727
1668.000000	0.871464
1669.000000	0.858472
1670.000000	0.831998
1671.000000	0.831232
1672.000000	0.818766
1673.000000	0.791460
1674.000000	0.759379
1675.000000	0.761033
1676.000000	0.737043
1677.000000	0.718942
1678.000000	0.679894
1679.000000	0.653733
1680.000000	0.641971
1681.000000	0.616887
1682.000000	0.607419
1683.000000	0.603896
1684.000000	0.587935
1685.000000	0.585612
1686.000000	0.583969
1687.000000	0.568816
1688.000000	0.571674
1689.000000	0.565506
1690.000000	0.560428
1691.000000	0.548276
1692.000000	0.553824
1693.000000	0.551810
1694.000000	0.548897
1695.000000	0.573739
1696.000000	0.574724
1697.000000	0.579742
1698.000000	0.585453
1699.000000	0.602777
1700.000000	0.610892
1701.000000	0.614132
1702.000000	0.612167
1703.000000	0.634851
1704.000000	0.621286
1705.000000	0.624358
1706.000000	0.623803
1707.000000	0.633151
1708.000000	0.637641
1709.000000	0.636325
1710.000000	0.621732
1711.000000	0.619795
1712.000000	0.620673
1713.000000	0.622434
1714.000000	0.609580
1715.000000	0.600556
1716.000000	0.607411
1717.000000	0.594849
1718.000000	0.592891
1719.000000	0.600521
1720.000000	0.586845
1721.000000	0.592646
1722.000000	0.595805
1723.000000	0.580479
1724.000000	0.580957
1725.000000	0.584556
1726.000000	0.584639
1727.000000	0.576695
1728.000000	0.585636
1729.000000	0.590323
1730.000000	0.583859
1731.000000	0.588117
1732.000000	0.594950
1733.000000	0.594753
1734.000000	0.608491
1735.000000	0.624661
1736.000000	0.630476
1737.000000	0.636894
1738.000000	0.658307
1739.000000	0.673684
1740.000000	0.683798
1741.000000	0.695016
1742.000000	0.707588
1743.000000	0.716201
1744.000000	0.727592
1745.000000	0.729728
1746.000000	0.734249
1747.000000	0.742805
1748.000000	0.755108
1749.000000	0.753566
1750.000000	0.748811
1751.000000	0.745374
1752.000000	0.739774
1753.000000	0.748881
1754.000000	0.742311
1755.000000	0.735069
1756.000000	0.744408
1757.000000	0.735739
1758.000000	0.736574
1759.000000	0.734611
1760.000000	0.722608
1761.000000	0.719928
1762.000000	0.730252
1763.000000	0.727431
1764.000000	0.726131
1765.000000	0.729624
1766.000000	0.734662
1767.000000	0.738491
1768.000000	0.747848
1769.000000	0.752239
1770.000000	0.763487
1771.000000	0.763543
1772.000000	0.762516
1773.000000	0.764505
1774.000000	0.767927
1775.000000	0.777991
1776.000000	0.776173
1777.000000	0.774446
1778.000000	0.776119
1779.000000	0.774591
1780.000000	0.778937
1781.000000	0.779438
1782.000000	0.784180
1783.000000	0.788724
1784.000000	0.781932
1785.000000	0.779668
1786.000000	0.784704
1787.000000	0.790248
1788.000000	0.784614
1789.000000	0.773097
1790.000000	0.772597
1791.000000	0.783169
1792.000000	0.786418
1793.000000	0.786967
1794.000000	0.784450
1795.000000	0.788313
1796.000000	0.781936
1797.000000	0.782121
1798.000000	0.789381
1799.000000	0.786011
1800.000000	0.789970
1801.000000	0.781793
1802.000000	0.777649
1803.000000	0.784222
1804.000000	0.782717
1805.000000	0.779898
1806.000000	0.780656
1807.000000	0.782385
1808.000000	0.780246
1809.000000	0.785315
1810.000000	0.791339
1811.000000	0.782277
1812.000000	0.779908
1813.000000	0.785926
1814.000000	0.794215
1815.000000	0.791525
1816.000000	0.776134
1817.000000	0.779899
1818.000000	0.785538
1819.000000	0.781059
1820.000000	0.779103
1821.000000	0.780344
1822.000000	0.775818
1823.000000	0.772839
1824.000000	0.771653
1825.000000	0.771043
1826.000000	0.777457
1827.000000	0.785048
1828.000000	0.785942
1829.000000	0.772833
1830.000000	0.776846
1831.000000	0.782577
1832.000000	0.783623
1833.000000	0.785770
1834.000000	0.788491
1835.000000	0.783751
1836.000000	0.791761
1837.000000	0.799122
1838.000000	0.805647
1839.000000	0.800391
1840.000000	0.808218
1841.000000	0.809704
1842.000000	0.803394
1843.000000	0.800517
1844.000000	0.801398
1845.000000	0.810473
1846.000000	0.811517
1847.000000	0.807844
1848.000000	0.822276
1849.000000	0.815587
1850.000000	0.814299
1851.000000	0.816868
1852.000000	0.805821
1853.000000	0.812442
1854.000000	0.813941
1855.000000	0.819887
1856.000000	0.814635
1857.000000	0.797804
1858.000000	0.812233
1859.000000	0.801988
1860.000000	0.789638
1861.000000	0.786681
1862.000000	0.779594
1863.000000	0.770754
1864.000000	0.771411
1865.000000	0.759646
1866.000000	0.763353
1867.000000	0.744348
1868.000000	0.727550
1869.000000	0.722131
1870.000000	0.706603
1871.000000	0.697999
1872.000000	0.676010
1873.000000	0.655559
1874.000000	0.633131
1875.000000	0.621850
1876.000000	0.600244
1877.000000	0.573278
1878.000000	0.559108
1879.000000	0.533031
1880.000000	0.508636
1881.000000	0.490202
1882.000000	0.450366
1883.000000	0.431931
1884.000000	0.420730
1885.000000	0.394385
1886.000000	0.362304
1887.000000	0.352825
1888.000000	0.336412
1889.000000	0.337293
1890.000000	0.322472
1891.000000	0.298913
1892.000000	0.294481
1893.000000	0.288996
1894.000000	0.283511
1895.000000	0.273748
1896.000000	0.261306
1897.000000	0.269325
1898.000000	0.258496
1899.000000	0.254182
1900.000000	0.253334
1901.000000	0.243996
1902.000000	0.241363
1903.000000	0.236040
1904.000000	0.244000
1905.000000	0.223568
1906.000000	0.223768
1907.000000	0.218686
1908.000000	0.221492
1909.000000	0.232726
1910.000000	0.233773
1911.000000	0.214921
1912.000000	0.216083
1913.000000	0.213436
1914.000000	0.212739
1915.000000	0.205982
1916.000000	0.207792
1917.000000	0.207910
1918.000000	0.208922
1919.000000	0.203913
1920.000000	0.198984
1921.000000	0.184938
1922.000000	0.193275
1923.000000	0.191511
1924.000000	0.194029
1925.000000	0.207306
1926.000000	0.194974
1927.000000	0.196193
1928.000000	0.194287
1929.000000	0.168706
1930.000000	0.179919
1931.000000	0.178781
1932.000000	0.169250
1933.000000	0.184314
1934.000000	0.182025
1935.000000	0.163920
1936.000000	0.172040
1937.000000	0.157840
1938.000000	0.168713
1939.000000	0.165032
1940.000000	0.156899
1941.000000	0.153123
1942.000000	0.156653
1943.000000	0.172072
1944.000000	0.144842
1945.000000	0.141663
1946.000000	0.151403
1947.000000	0.141384
1948.000000	0.148169
1949.000000	0.157718
1950.000000	0.144996
1951.000000	0.152284
1952.000000	0.142657
1953.000000	0.141490
1954.000000	0.129680
1955.000000	0.123148
1956.000000	0.123432
1957.000000	0.119588
1958.000000	0.115486
1959.000000	0.127205
1960.000000	0.123166
1961.000000	0.117083
1962.000000	0.106574
1963.000000	0.110291
1964.000000	0.105947
1965.000000	0.116447
1966.000000	0.110521
1967.000000	0.103504
1968.000000	0.110552
1969.000000	0.110918
1970.000000	0.115286
1971.000000	0.094258
1972.000000	0.097931
1973.000000	0.105923
1974.000000	0.100952
1975.000000	0.097581
1976.000000	0.099205
1977.000000	0.112157
1978.000000	0.108585
1979.000000	0.104074
1980.000000	0.097562
1981.000000	0.103521
1982.000000	0.097212
1983.000000	0.101193
1984.000000	0.114799
1985.000000	0.107717
1986.000000	0.104867
1987.000000	0.106922
1988.000000	0.113972
1989.000000	0.106080
1990.000000	0.111701
1991.000000	0.130634
1992.000000	0.122077
1993.000000	0.125095
1994.000000	0.139958
1995.000000	0.143338
1996.000000	0.129543
1997.000000	0.127533
1998.000000	0.129024
1999.000000	0.145230
2000.000000	0.155911
2001.000000	0.155322
2002.000000	0.155338
2003.000000	0.154151
2004.000000	0.154730
2005.000000	0.156154
2006.000000	0.156070
2007.000000	0.153564
2008.000000	0.163958
2009.000000	0.159813
2010.000000	0.165715
2011.000000	0.169373
2012.000000	0.168217
2013.000000	0.178474
2014.000000	0.177991
2015.000000	0.180783
2016.000000	0.192128
2017.000000	0.189373
2018.000000	0.186221
2019.000000	0.181097
2020.000000	0.186786
2021.000000	0.195659
2022.000000	0.190478
2023.000000	0.184115
2024.000000	0.196685
2025.000000	0.198673
2026.000000	0.190423
2027.000000	0.195304
2028.000000	0.203869
2029.000000	0.198754
2030.000000	0.201636
2031.000000	0.207594
2032.000000	0.199110
2033.000000	0.199965
2034.000000	0.202055
2035.000000	0.196343
2036.000000	0.213230
2037.000000	0.211193
2038.000000	0.209453
2039.000000	0.205369
2040.000000	0.211363
2041.000000	0.210981
2042.000000	0.215109
2043.000000	0.206113
2044.000000	0.202750
2045.000000	0.198294
2046.000000	0.207459
2047.000000	0.210115
2048.000000	0.204493
2049.000000	0.213648
2050.000000	0.216043
2051.000000	0.217346
2052.000000	0.223477
2053.000000	0.218729
2054.000000	0.213759
2055.000000	0.228622
2056.000000	0.228817
2057.000000	0.221941
2058.000000	0.225938
2059.000000	0.232058
2060.000000	0.227672
2061.000000	0.231496
2062.000000	0.234690
2063.000000	0.236361
2064.000000	0.236341
2065.000000	0.238985
2066.000000	0.235022
2067.000000	0.231321
2068.000000	0.237409
2069.000000	0.251372
2070.000000	0.256782
2071.000000	0.251343
2072.000000	0.246394
2073.000000	0.251921
2074.000000	0.260683
2075.000000	0.251181
2076.000000	0.250892
2077.000000	0.258328
2078.000000	0.254954
2079.000000	0.255438
2080.000000	0.253876
2081.000000	0.253142
2082.000000	0.256729
2083.000000	0.257457
2084.000000	0.261487
2085.000000	0.266380
2086.000000	0.265348
2087.000000	0.257301
2088.000000	0.256796
2089.000000	0.264286
2090.000000	0.265258
2091.000000	0.261406
2092.000000	0.263591
2093.000000	0.265627
2094.000000	0.266043
2095.000000	0.272981
2096.000000	0.269026
2097.000000	0.261525
2098.000000	0.267537
2099.000000	0.260595
2100.000000	0.261841
2101.000000	0.256777
2102.000000	0.258721
2103.000000	0.269397
2104.000000	0.262518
2105.000000	0.257477
2106.000000	0.249837
2107.000000	0.249877
2108.000000	0.255522
2109.000000	0.267941
2110.000000	0.262675
2111.000000	0.262882
2112.000000	0.254849
2113.000000	0.249174
2114.000000	0.259975
2115.000000	0.263129
2116.000000	0.264545
2117.000000	0.264074
2118.000000	0.266071
2119.000000	0.264508
2120.000000	0.263529
2121.000000	0.258837
2122.000000	0.261418
2123.000000	0.267670
2124.000000	0.256007
2125.000000	0.252032
2126.000000	0.252286
2127.000000	0.259350
2128.000000	0.252939
2129.000000	0.255202
2130.000000	0.257002
2131.000000	0.254498
2132.000000	0.250416
2133.000000	0.249215
2134.000000	0.239161
2135.000000	0.238800
2136.000000	0.236918
2137.000000	0.234501
2138.000000	0.229695
2139.000000	0.242629
2140.000000	0.240031
2141.000000	0.237957
2142.000000	0.237215
2143.000000	0.231288
2144.000000	0.228837
2145.000000	0.238943
2146.000000	0.234955
2147.000000	0.231207
2148.000000	0.232722
2149.000000	0.224571
2150.000000	0.233639
2151.000000	0.227069
2152.000000	0.218672
2153.000000	0.217266
2154.000000	0.218725
2155.000000	0.221227
2156.000000	0.211015
2157.000000	0.207671
2158.000000	0.215430
2159.000000	0.215209
2160.000000	0.204711
2161.000000	0.197191
2162.000000	0.196435
2163.000000	0.207486
2164.000000	0.196689
2165.000000	0.204941
2166.000000	0.202981
2167.000000	0.211261
2168.000000	0.205926
2169.000000	0.196892
2170.000000	0.197813
2171.000000	0.191080
2172.000000	0.195310
2173.000000	0.197250
2174.000000	0.200206
2175.000000	0.189838
2176.000000	0.201543
2177.000000	0.210468
2178.000000	0.190104
2179.000000	0.199409
2180.000000	0.207214
2181.000000	0.189437
2182.000000	0.198759
2183.000000	0.202265
2184.000000	0.207963
2185.000000	0.204892
2186.000000	0.203987
2187.000000	0.214218
2188.000000	0.215091
2189.000000	0.215651
2190.000000	0.210075
2191.000000	0.200124
2192.000000	0.222025
2193.000000	0.212973
2194.000000	0.215286
2195.000000	0.220221
2196.000000	0.208192
2197.000000	0.211320
2198.000000	0.221525
2199.000000	0.208467
2200.000000	0.215483
2201.000000	0.226854
2202.000000	0.228549
2203.000000	0.222942
2204.000000	0.218051
2205.000000	0.226596
2206.000000	0.233555
2207.000000	0.231859
2208.000000	0.221764
2209.000000	0.227060
2210.000000	0.241685
2211.000000	0.221850
2212.000000	0.242863
2213.000000	0.235540
2214.000000	0.245964
2215.000000	0.239871
2216.000000	0.231550
2217.000000	0.264533
2218.000000	0.256577
2219.000000	0.258071
2220.000000	0.259227
2221.000000	0.264153
2222.000000	0.252899
2223.000000	0.260274
2224.000000	0.248570
2225.000000	0.255211
2226.000000	0.255502
2227.000000	0.259019
2228.000000	0.259896
2229.000000	0.271657
2230.000000	0.266178
2231.000000	0.263403
2232.000000	0.244181
2233.000000	0.252819
2234.000000	0.258499
2235.000000	0.248696
2236.000000	0.249452
2237.000000	0.253314
2238.000000	0.259327
2239.000000	0.232074
2240.000000	0.250759
2241.000000	0.251987
2242.000000	0.240256
2243.000000	0.244113
2244.000000	0.242317
2245.000000	0.233367
2246.000000	0.235681
2247.000000	0.239655
2248.000000	0.215339
2249.000000	0.221075
2250.000000	0.209369
2251.000000	0.199551
2252.000000	0.203467
2253.000000	0.199202
2254.000000	0.195602
2255.000000	0.188131
2256.000000	0.194992
2257.000000	0.184215
2258.000000	0.173961
2259.000000	0.167207
2260.000000	0.179187
2261.000000	0.168058
2262.000000	0.164965
2263.000000	0.165186
2264.000000	0.177201
2265.000000	0.185025
2266.000000	0.176556
2267.000000	0.173465
2268.000000	0.166098
2269.000000	0.176985
2270.000000	0.179146
2271.000000	0.168584
2272.000000	0.176938
2273.000000	0.177921
2274.000000	0.175755
2275.000000	0.185581
2276.000000	0.177754
2277.000000	0.190519
2278.000000	0.182071
2279.000000	0.183607
2280.000000	0.186048
2281.000000	0.187713
2282.000000	0.181132
2283.000000	0.190596
2284.000000	0.198323
2285.000000	0.188293
2286.000000	0.189175
2287.000000	0.190324
2288.000000	0.193378
2289.000000	0.186066
2290.000000	0.186377
2291.000000	0.184808
2292.000000	0.188666
2293.000000	0.192891
2294.000000	0.192063
2295.000000	0.177732
2296.000000	0.182813
2297.000000	0.177838
2298.000000	0.182905
2299.000000	0.185062
2300.000000	0.176355
2301.000000	0.180454
2302.000000	0.170636
2303.000000	0.172446
2304.000000	0.175428
2305.000000	0.175607
2306.000000	0.181158
2307.000000	0.172331
2308.000000	0.173704
2309.000000	0.174548
2310.000000	0.185974
2311.000000	0.183812
2312.000000	0.177534
2313.000000	0.181963
2314.000000	0.184148
2315.000000	0.173866
2316.000000	0.183076
2317.000000	0.184417
2318.000000	0.175074
2319.000000	0.179810
2320.000000	0.194864
2321.000000	0.188911
2322.000000	0.185585
2323.000000	0.194646
2324.000000	0.182763
2325.000000	0.181573
2326.000000	0.203264
2327.000000	0.189010
2328.000000	0.183086
2329.000000	0.196210
2330.000000	0.197247
2331.000000	0.193408
2332.000000	0.193780
2333.000000	0.191445
2334.000000	0.184649
2335.000000	0.187768
2336.000000	0.181447
2337.000000	0.184254
2338.000000	0.187491
2339.000000	0.177661
2340.000000	0.170530
2341.000000	0.178877
2342.000000	0.175638
2343.000000	0.168921
2344.000000	0.158736
2345.000000	0.158353
2346.000000	0.152742
2347.000000	0.150834
2348.000000	0.164108
2349.000000	0.162883
2350.000000	0.162267
2351.000000	0.170664
2352.000000	0.172459
2353.000000	0.165405
2354.000000	0.156580
2355.000000	0.158125
2356.000000	0.155841
2357.000000	0.147970
2358.000000	0.153991
2359.000000	0.162683
2360.000000	0.166001
2361.000000	0.160626
2362.000000	0.158687
2363.000000	0.165854
2364.000000	0.162975
2365.000000	0.155652
2366.000000	0.162356
2367.000000	0.168949
2368.000000	0.164034
2369.000000	0.159555
2370.000000	0.168906
2371.000000	0.164983
2372.000000	0.152331
2373.000000	0.154495
2374.000000	0.155268
2375.000000	0.145595
2376.000000	0.151232
2377.000000	0.160604
2378.000000	0.146246
2379.000000	0.143823
2380.000000	0.146769
2381.000000	0.148482
2382.000000	0.151292
2383.000000	0.147605
2384.000000	0.135975
2385.000000	0.129482
2386.000000	0.139957
2387.000000	0.143584
2388.000000	0.137791
2389.000000	0.128043
2390.000000	0.132461
2391.000000	0.135621
2392.000000	0.123048
2393.000000	0.115526
2394.000000	0.122326
2395.000000	0.127426
2396.000000	0.131069
2397.000000	0.121764
2398.000000	0.127474
2399.000000	0.125181
2400.000000	0.117392
2401.000000	0.112973
2402.000000	0.108921
2403.000000	0.112005
2404.000000	0.113866
2405.000000	0.107071
2406.000000	0.102545
2407.000000	0.112007
2408.000000	0.116047
2409.000000	0.109197
2410.000000	0.108401
2411.000000	0.105949
2412.000000	0.102883
2413.000000	0.101175
2414.000000	0.086883
2415.000000	0.095810
2416.000000	0.099731
2417.000000	0.084129
2418.000000	0.089979
2419.000000	0.098388
2420.000000	0.096556
2421.000000	0.092041
2422.000000	0.097054
2423.000000	0.084390
2424.000000	0.085504
2425.000000	0.094081
2426.000000	0.095217
2427.000000	0.088790
2428.000000	0.080267
2429.000000	0.089109
2430.000000	0.085510
2431.000000	0.088026
2432.000000	0.088890
2433.000000	0.082365
2434.000000	0.074800
2435.000000	0.072652
2436.000000	0.081176
2437.000000	0.080002
2438.000000	0.061549
2439.000000	0.084891
2440.000000	0.086563
2441.000000	0.075964
2442.000000	0.069341
2443.000000	0.076526
2444.000000	0.058413
2445.000000	0.053789
2446.000000	0.072971
2447.000000	0.074706
2448.000000	0.058444
2449.000000	0.060626
2450.000000	0.066806
2451.000000	0.077694
2452.000000	0.054907
2453.000000	0.061580
2454.000000	0.055485
2455.000000	0.051187
2456.000000	0.038834
2457.000000	0.062448
2458.000000	0.066829
2459.000000	0.072307
2460.000000	0.101480
2461.000000	0.084277
2462.000000	0.078211
2463.000000	0.056964
2464.000000	0.082416
2465.000000	0.045315
2466.000000	0.062144
2467.000000	0.067136
2468.000000	0.031253
2469.000000	0.063423
2470.000000	0.089837
2471.000000	0.063865
2472.000000	0.105355
2473.000000	0.100229
2474.000000	0.091221
2475.000000	0.058631
2476.000000	0.093050
2477.000000	0.090769
2478.000000	0.038903
2479.000000	0.103493
2480.000000	0.097050
2481.000000	0.075225
2482.000000	0.169268
2483.000000	0.093908
2484.000000	0.054877
2485.000000	0.091480
2486.000000	0.027973
2487.000000	0.101893
2488.000000	0.068858
2489.000000	0.102637
2490.000000	0.083753
2491.000000	0.101795
2492.000000	0.118081
2493.000000	0.078212
2494.000000	0.103228
2495.000000	0.144585
2496.000000	0.068210
2497.000000	0.119353
2498.000000	0.115341
2499.000000	0.069486
2500.000000	0.102619
