PE UV       SUBTECH     SPECTRUM    ASCII       PEDS        4.00        
   -1
111-2.Sample.ASC
24/01/23
16:22:43.00
24/01/23
16:22:43.00
Vinicio Soto Monge

250,000000
1
Lambda 1050
1050L1511233
PerkinElmer UV WinLab 6.3.2.0749 / 2.02.05 Lambda 900 UV/VIS/NIR, Aug  7 2015 09:38:08

0
0
3350/servo 860,8/2
0
0
UV/VIS
1
1
1
DoubleDePol,CommonBeamDepol,RBeamAtt,SBeamAtt,60mm sphere, WB InGaAs Detector
0
0
0
0
Program
Program
3350/servo 860,8/2
3350/0,2 860,8/0,2
3350/0,2 860,8/0,2
0
1.00
 
 
 
0
 
860,8
319,2
860,8
Front
100
on
S:100 R:100
0
0
0
0
 
0
 
 
 
0
 
 
0
0
0
0
0
 
 
 
 
0
0


0
0
#HDR
-1
-1
#GR
nm
%R
1.0
0.0
3000,000000
-1,000000
2751
8
114,814200
9,878100
#DATA
3000,000000	98,244600
2999,000000	101,927900
2998,000000	108,013000
2997,000000	98,393900
2996,000000	96,414600
2995,000000	107,300900
2994,000000	103,098800
2993,000000	94,129500
2992,000000	101,823800
2991,000000	95,683900
2990,000000	105,099700
2989,000000	89,435000
2988,000000	103,462500
2987,000000	93,835400
2986,000000	94,458200
2985,000000	106,651400
2984,000000	101,419200
2983,000000	95,051700
2982,000000	94,959400
2981,000000	86,578100
2980,000000	96,892200
2979,000000	99,518800
2978,000000	95,101200
2977,000000	101,241500
2976,000000	97,006800
2975,000000	98,005400
2974,000000	97,193200
2973,000000	105,346100
2972,000000	100,692600
2971,000000	105,200900
2970,000000	96,900400
2969,000000	87,194700
2968,000000	89,508400
2967,000000	109,046800
2966,000000	100,203100
2965,000000	101,041400
2964,000000	98,497100
2963,000000	98,989200
2962,000000	94,141200
2961,000000	100,798100
2960,000000	104,638800
2959,000000	101,498000
2958,000000	100,602200
2957,000000	102,041900
2956,000000	95,205500
2955,000000	100,285600
2954,000000	102,224700
2953,000000	103,476800
2952,000000	95,718300
2951,000000	91,966900
2950,000000	96,203800
2949,000000	100,738100
2948,000000	92,237200
2947,000000	100,995500
2946,000000	99,413400
2945,000000	101,640300
2944,000000	97,476600
2943,000000	108,015800
2942,000000	107,375200
2941,000000	104,659500
2940,000000	100,510600
2939,000000	91,451400
2938,000000	94,607400
2937,000000	97,093100
2936,000000	99,161000
2935,000000	97,856300
2934,000000	101,164500
2933,000000	99,561900
2932,000000	101,968500
2931,000000	108,560700
2930,000000	100,129100
2929,000000	105,315700
2928,000000	106,500300
2927,000000	104,146700
2926,000000	98,982100
2925,000000	96,935800
2924,000000	101,967000
2923,000000	108,304900
2922,000000	100,639300
2921,000000	98,820900
2920,000000	99,054000
2919,000000	96,050000
2918,000000	94,560700
2917,000000	95,869800
2916,000000	98,745300
2915,000000	101,620700
2914,000000	100,572900
2913,000000	104,756000
2912,000000	107,695100
2911,000000	111,427600
2910,000000	104,603000
2909,000000	101,443100
2908,000000	97,707600
2907,000000	102,730600
2906,000000	99,906700
2905,000000	96,608100
2904,000000	98,247900
2903,000000	100,466000
2902,000000	98,959200
2901,000000	101,284900
2900,000000	105,391900
2899,000000	105,291800
2898,000000	98,762500
2897,000000	102,149800
2896,000000	104,886300
2895,000000	97,334000
2894,000000	99,056300
2893,000000	102,079300
2892,000000	103,797300
2891,000000	104,173000
2890,000000	101,219500
2889,000000	97,149100
2888,000000	103,778300
2887,000000	103,509700
2886,000000	104,678400
2885,000000	107,416700
2884,000000	102,560700
2883,000000	96,816100
2882,000000	98,128400
2881,000000	97,240500
2880,000000	96,315500
2879,000000	104,193100
2878,000000	103,823200
2877,000000	97,576600
2876,000000	97,271600
2875,000000	99,165500
2874,000000	98,288400
2873,000000	100,807900
2872,000000	99,586200
2871,000000	98,615000
2870,000000	104,332300
2869,000000	103,459000
2868,000000	96,136400
2867,000000	96,201100
2866,000000	100,911200
2865,000000	99,984000
2864,000000	99,168500
2863,000000	105,109700
2862,000000	112,946900
2861,000000	107,445300
2860,000000	101,936600
2859,000000	99,323100
2858,000000	102,623800
2857,000000	106,609400
2856,000000	102,227400
2855,000000	99,112000
2854,000000	99,282600
2853,000000	100,000800
2852,000000	100,000700
2851,000000	101,690200
2850,000000	104,134000
2849,000000	105,100000
2848,000000	104,980800
2847,000000	101,186400
2846,000000	99,398700
2845,000000	101,811400
2844,000000	99,404800
2843,000000	99,614300
2842,000000	96,591300
2841,000000	97,356900
2840,000000	102,382200
2839,000000	95,047000
2838,000000	92,130800
2837,000000	97,652400
2836,000000	101,020800
2835,000000	99,553200
2834,000000	97,547800
2833,000000	104,005600
2832,000000	108,593100
2831,000000	105,343900
2830,000000	102,336700
2829,000000	93,712600
2828,000000	92,764500
2827,000000	98,140300
2826,000000	101,000100
2825,000000	105,775600
2824,000000	104,866900
2823,000000	98,934000
2822,000000	101,277100
2821,000000	100,050200
2820,000000	95,661100
2819,000000	105,088800
2818,000000	108,757800
2817,000000	105,816400
2816,000000	105,605000
2815,000000	104,047900
2814,000000	100,954200
2813,000000	98,858400
2812,000000	101,991600
2811,000000	103,449300
2810,000000	100,968200
2809,000000	101,206300
2808,000000	99,370700
2807,000000	104,470500
2806,000000	96,032800
2805,000000	92,001700
2804,000000	93,555000
2803,000000	105,163300
2802,000000	103,530300
2801,000000	97,151400
2800,000000	94,356100
2799,000000	97,397500
2798,000000	94,407700
2797,000000	95,619300
2796,000000	99,171200
2795,000000	100,000700
2794,000000	94,154900
2793,000000	102,646200
2792,000000	99,894100
2791,000000	99,663200
2790,000000	101,347300
2789,000000	103,193600
2788,000000	95,450100
2787,000000	96,487900
2786,000000	102,124800
2785,000000	98,032200
2784,000000	110,008600
2783,000000	106,173400
2782,000000	105,088300
2781,000000	99,384600
2780,000000	99,694900
2779,000000	104,249600
2778,000000	99,442000
2777,000000	109,746200
2776,000000	100,515800
2775,000000	99,770700
2774,000000	101,448800
2773,000000	103,101700
2772,000000	106,207000
2771,000000	102,293500
2770,000000	97,691900
2769,000000	93,812300
2768,000000	97,667300
2767,000000	94,204000
2766,000000	102,481300
2765,000000	94,679000
2764,000000	94,987100
2763,000000	107,214800
2762,000000	102,504900
2761,000000	100,177200
2760,000000	105,133500
2759,000000	100,507800
2758,000000	101,252900
2757,000000	100,113300
2756,000000	114,814200
2755,000000	108,458500
2754,000000	100,556500
2753,000000	100,000900
2752,000000	98,559600
2751,000000	97,332400
2750,000000	94,878200
2749,000000	98,352500
2748,000000	93,586100
2747,000000	91,741300
2746,000000	104,227200
2745,000000	95,664100
2744,000000	103,562300
2743,000000	100,114800
2742,000000	111,757600
2741,000000	98,582500
2740,000000	101,856900
2739,000000	111,719800
2738,000000	100,130700
2737,000000	98,424800
2736,000000	98,438000
2735,000000	103,278200
2734,000000	98,289500
2733,000000	101,585300
2732,000000	113,162600
2731,000000	98,341900
2730,000000	95,443600
2729,000000	98,637200
2728,000000	106,154800
2727,000000	106,020000
2726,000000	101,585900
2725,000000	98,652600
2724,000000	103,364300
2723,000000	100,419400
2722,000000	108,890400
2721,000000	101,779300
2720,000000	103,299800
2719,000000	102,826500
2718,000000	91,009700
2717,000000	103,551900
2716,000000	105,588900
2715,000000	102,729400
2714,000000	97,007600
2713,000000	101,504700
2712,000000	100,516500
2711,000000	105,167700
2710,000000	97,477700
2709,000000	101,067500
2708,000000	97,235500
2707,000000	100,345400
2706,000000	103,613900
2705,000000	106,228000
2704,000000	104,458000
2703,000000	98,097500
2702,000000	96,999400
2701,000000	100,675400
2700,000000	95,728300
2699,000000	99,585000
2698,000000	98,232100
2697,000000	106,994800
2696,000000	109,517300
2695,000000	101,626000
2694,000000	100,766400
2693,000000	97,125300
2692,000000	102,090900
2691,000000	91,288800
2690,000000	112,562500
2689,000000	109,065700
2688,000000	106,801000
2687,000000	103,194200
2686,000000	102,394500
2685,000000	97,647700
2684,000000	95,243000
2683,000000	100,959600
2682,000000	103,330200
2681,000000	98,992800
2680,000000	106,251700
2679,000000	101,626300
2678,000000	98,788000
2677,000000	104,839700
2676,000000	105,470900
2675,000000	106,985500
2674,000000	104,256700
2673,000000	103,699400
2672,000000	105,065800
2671,000000	102,347500
2670,000000	97,700700
2669,000000	106,698200
2668,000000	98,915300
2667,000000	103,077000
2666,000000	109,648000
2665,000000	103,375200
2664,000000	104,670000
2663,000000	104,043000
2662,000000	106,317100
2661,000000	104,115800
2660,000000	101,141900
2659,000000	100,000700
2658,000000	102,187000
2657,000000	105,362200
2656,000000	99,538100
2655,000000	100,249000
2654,000000	103,939600
2653,000000	102,368500
2652,000000	101,112000
2651,000000	100,000800
2650,000000	102,023200
2649,000000	106,606100
2648,000000	107,650600
2647,000000	102,785700
2646,000000	93,848000
2645,000000	101,038400
2644,000000	103,046400
2643,000000	101,956800
2642,000000	102,050800
2641,000000	107,166300
2640,000000	105,595300
2639,000000	101,115800
2638,000000	100,436000
2637,000000	96,781600
2636,000000	106,994500
2635,000000	103,137300
2634,000000	100,002100
2633,000000	107,324500
2632,000000	104,874700
2631,000000	102,598600
2630,000000	105,731000
2629,000000	99,080000
2628,000000	96,096600
2627,000000	102,728300
2626,000000	98,110800
2625,000000	92,784800
2624,000000	98,324400
2623,000000	102,369600
2622,000000	97,448500
2621,000000	102,156400
2620,000000	107,598200
2619,000000	104,635500
2618,000000	97,495800
2617,000000	97,503100
2616,000000	101,503500
2615,000000	99,464700
2614,000000	98,392700
2613,000000	101,853600
2612,000000	100,059800
2611,000000	95,566200
2610,000000	97,084800
2609,000000	95,723600
2608,000000	93,160400
2607,000000	96,797500
2606,000000	100,000700
2605,000000	97,437400
2604,000000	95,303300
2603,000000	96,353200
2602,000000	100,041400
2601,000000	102,406000
2600,000000	99,824700
2599,000000	99,852700
2598,000000	106,616800
2597,000000	107,134900
2596,000000	100,698300
2595,000000	102,971400
2594,000000	100,061400
2593,000000	96,275700
2592,000000	99,263600
2591,000000	99,195500
2590,000000	99,318700
2589,000000	98,415300
2588,000000	96,977300
2587,000000	98,608100
2586,000000	102,887800
2585,000000	101,415600
2584,000000	93,155700
2583,000000	90,191300
2582,000000	97,914400
2581,000000	102,277700
2580,000000	98,964400
2579,000000	95,252300
2578,000000	93,399700
2577,000000	93,744000
2576,000000	94,380600
2575,000000	95,985400
2574,000000	98,815700
2573,000000	96,888600
2572,000000	96,417400
2571,000000	98,121100
2570,000000	96,202000
2569,000000	97,134100
2568,000000	97,782500
2567,000000	93,446000
2566,000000	90,245800
2565,000000	90,317900
2564,000000	95,689200
2563,000000	93,184100
2562,000000	93,707300
2561,000000	95,785600
2560,000000	97,634700
2559,000000	102,253500
2558,000000	92,630000
2557,000000	88,725700
2556,000000	96,608000
2555,000000	88,917400
2554,000000	87,662400
2553,000000	88,430100
2552,000000	83,724500
2551,000000	86,187300
2550,000000	86,063400
2549,000000	83,084500
2548,000000	86,017800
2547,000000	87,666300
2546,000000	85,072400
2545,000000	90,303300
2544,000000	87,368900
2543,000000	82,591800
2542,000000	87,285900
2541,000000	87,375100
2540,000000	87,041200
2539,000000	79,163900
2538,000000	82,422300
2537,000000	84,267600
2536,000000	78,425200
2535,000000	81,030600
2534,000000	77,079600
2533,000000	73,266700
2532,000000	73,102900
2531,000000	75,985900
2530,000000	79,263700
2529,000000	81,076600
2528,000000	73,668100
2527,000000	74,643400
2526,000000	70,672800
2525,000000	69,854100
2524,000000	68,845300
2523,000000	67,052100
2522,000000	67,699200
2521,000000	69,670100
2520,000000	68,079600
2519,000000	66,584100
2518,000000	63,841900
2517,000000	66,042400
2516,000000	65,644500
2515,000000	66,946600
2514,000000	61,111500
2513,000000	61,044100
2512,000000	62,477600
2511,000000	60,166200
2510,000000	58,879200
2509,000000	56,501800
2508,000000	56,515500
2507,000000	56,589200
2506,000000	56,785700
2505,000000	49,619800
2504,000000	53,554100
2503,000000	52,406000
2502,000000	51,197600
2501,000000	49,225100
2500,000000	48,978100
2499,000000	50,163400
2498,000000	47,760200
2497,000000	48,029400
2496,000000	48,221800
2495,000000	48,254300
2494,000000	45,728000
2493,000000	43,686200
2492,000000	44,916000
2491,000000	42,080300
2490,000000	40,828700
2489,000000	41,260600
2488,000000	39,173500
2487,000000	40,668900
2486,000000	37,782300
2485,000000	36,357500
2484,000000	40,122500
2483,000000	39,513800
2482,000000	38,325000
2481,000000	38,881500
2480,000000	36,294700
2479,000000	38,106900
2478,000000	34,411500
2477,000000	34,634000
2476,000000	33,374000
2475,000000	34,048000
2474,000000	34,631200
2473,000000	32,783500
2472,000000	31,360600
2471,000000	31,939000
2470,000000	32,214200
2469,000000	30,927500
2468,000000	30,574900
2467,000000	29,206200
2466,000000	28,756000
2465,000000	29,856700
2464,000000	30,225900
2463,000000	29,651600
2462,000000	28,548000
2461,000000	27,488500
2460,000000	28,984300
2459,000000	27,886700
2458,000000	27,257300
2457,000000	27,417500
2456,000000	27,566100
2455,000000	28,471400
2454,000000	27,129000
2453,000000	26,802300
2452,000000	26,142400
2451,000000	26,455800
2450,000000	25,735600
2449,000000	24,777200
2448,000000	25,321600
2447,000000	23,957800
2446,000000	25,707800
2445,000000	24,736400
2444,000000	24,840000
2443,000000	25,808000
2442,000000	25,714800
2441,000000	25,006900
2440,000000	25,871400
2439,000000	25,366000
2438,000000	25,118800
2437,000000	24,602700
2436,000000	25,241300
2435,000000	25,093200
2434,000000	23,894100
2433,000000	24,855400
2432,000000	25,091200
2431,000000	25,042000
2430,000000	24,683800
2429,000000	24,464000
2428,000000	24,950300
2427,000000	24,000000
2426,000000	24,544700
2425,000000	25,273500
2424,000000	24,963800
2423,000000	23,964100
2422,000000	24,269900
2421,000000	24,711600
2420,000000	24,399200
2419,000000	24,018800
2418,000000	24,551900
2417,000000	24,394500
2416,000000	23,820200
2415,000000	23,739100
2414,000000	24,020800
2413,000000	24,908100
2412,000000	24,402700
2411,000000	23,453700
2410,000000	24,030100
2409,000000	24,138000
2408,000000	24,252200
2407,000000	24,309900
2406,000000	23,212200
2405,000000	22,409300
2404,000000	23,170700
2403,000000	23,905500
2402,000000	24,370100
2401,000000	24,994300
2400,000000	24,098500
2399,000000	24,598300
2398,000000	24,238600
2397,000000	24,042300
2396,000000	23,604200
2395,000000	23,754200
2394,000000	24,156500
2393,000000	23,407500
2392,000000	23,497800
2391,000000	22,887400
2390,000000	22,756300
2389,000000	23,799700
2388,000000	23,500600
2387,000000	23,790400
2386,000000	23,691700
2385,000000	23,026400
2384,000000	22,712600
2383,000000	23,267600
2382,000000	23,566200
2381,000000	23,002800
2380,000000	22,409000
2379,000000	22,885800
2378,000000	22,995700
2377,000000	22,902100
2376,000000	22,803700
2375,000000	23,199900
2374,000000	23,279300
2373,000000	23,108100
2372,000000	22,754200
2371,000000	23,001500
2370,000000	23,346100
2369,000000	22,895200
2368,000000	22,749200
2367,000000	22,875700
2366,000000	22,937300
2365,000000	22,981300
2364,000000	22,444400
2363,000000	22,174300
2362,000000	22,995200
2361,000000	22,426500
2360,000000	21,853100
2359,000000	21,660900
2358,000000	22,299300
2357,000000	22,348600
2356,000000	21,805700
2355,000000	21,815500
2354,000000	21,633300
2353,000000	22,246000
2352,000000	22,486300
2351,000000	22,402300
2350,000000	22,469300
2349,000000	21,667600
2348,000000	21,507200
2347,000000	21,799200
2346,000000	21,929800
2345,000000	21,822000
2344,000000	21,899800
2343,000000	21,611600
2342,000000	21,357300
2341,000000	21,590700
2340,000000	21,394100
2339,000000	21,182000
2338,000000	21,301800
2337,000000	21,175200
2336,000000	21,290700
2335,000000	21,640200
2334,000000	21,188800
2333,000000	20,530200
2332,000000	20,441800
2331,000000	20,389900
2330,000000	20,986300
2329,000000	21,302900
2328,000000	21,004200
2327,000000	20,759300
2326,000000	20,522300
2325,000000	20,591200
2324,000000	20,922600
2323,000000	20,683500
2322,000000	20,559800
2321,000000	20,550600
2320,000000	20,529000
2319,000000	20,693500
2318,000000	20,602300
2317,000000	20,206400
2316,000000	20,067300
2315,000000	20,036500
2314,000000	19,822300
2313,000000	19,975200
2312,000000	19,904800
2311,000000	19,711700
2310,000000	19,644200
2309,000000	19,696900
2308,000000	19,864800
2307,000000	19,883100
2306,000000	19,695600
2305,000000	19,525200
2304,000000	19,218800
2303,000000	19,619600
2302,000000	19,383700
2301,000000	19,162100
2300,000000	19,090000
2299,000000	18,925000
2298,000000	18,650500
2297,000000	18,819800
2296,000000	19,272800
2295,000000	19,213600
2294,000000	18,843600
2293,000000	19,158500
2292,000000	18,946500
2291,000000	18,662700
2290,000000	18,576800
2289,000000	18,453700
2288,000000	18,285700
2287,000000	18,142000
2286,000000	18,497500
2285,000000	18,593100
2284,000000	18,530900
2283,000000	18,502500
2282,000000	18,511200
2281,000000	18,191600
2280,000000	18,163900
2279,000000	18,239100
2278,000000	18,448900
2277,000000	18,180600
2276,000000	17,874600
2275,000000	17,531700
2274,000000	17,561200
2273,000000	17,866700
2272,000000	17,355500
2271,000000	17,230100
2270,000000	17,423000
2269,000000	17,633400
2268,000000	17,062400
2267,000000	17,151000
2266,000000	17,392300
2265,000000	17,282100
2264,000000	17,289300
2263,000000	17,320600
2262,000000	16,990500
2261,000000	17,182600
2260,000000	17,346200
2259,000000	17,510800
2258,000000	17,106200
2257,000000	16,761800
2256,000000	16,856900
2255,000000	17,211100
2254,000000	17,220100
2253,000000	17,004500
2252,000000	17,245900
2251,000000	17,252200
2250,000000	17,090900
2249,000000	17,209000
2248,000000	17,104200
2247,000000	17,343600
2246,000000	17,671000
2245,000000	17,246100
2244,000000	17,149700
2243,000000	17,128900
2242,000000	17,370700
2241,000000	17,241900
2240,000000	17,414200
2239,000000	17,113200
2238,000000	17,309800
2237,000000	16,984300
2236,000000	16,959300
2235,000000	17,058100
2234,000000	17,318600
2233,000000	17,059500
2232,000000	16,960000
2231,000000	17,000900
2230,000000	16,508000
2229,000000	16,551600
2228,000000	16,174300
2227,000000	16,720000
2226,000000	16,413400
2225,000000	16,444000
2224,000000	16,295500
2223,000000	16,680800
2222,000000	16,299500
2221,000000	16,760400
2220,000000	16,338700
2219,000000	16,226400
2218,000000	15,911600
2217,000000	16,032200
2216,000000	16,062200
2215,000000	16,072000
2214,000000	16,322400
2213,000000	15,962800
2212,000000	15,964400
2211,000000	16,270100
2210,000000	16,362800
2209,000000	15,971100
2208,000000	16,113600
2207,000000	15,666300
2206,000000	15,809900
2205,000000	16,069500
2204,000000	16,110400
2203,000000	16,100200
2202,000000	16,086300
2201,000000	16,478000
2200,000000	16,434600
2199,000000	16,626900
2198,000000	16,967100
2197,000000	16,894500
2196,000000	16,846900
2195,000000	17,159100
2194,000000	17,344900
2193,000000	17,692100
2192,000000	17,637000
2191,000000	18,345900
2190,000000	17,980200
2189,000000	18,320000
2188,000000	18,187600
2187,000000	18,341900
2186,000000	18,444700
2185,000000	18,792300
2184,000000	19,144300
2183,000000	19,054400
2182,000000	18,684700
2181,000000	18,821300
2180,000000	18,918000
2179,000000	19,050800
2178,000000	19,116200
2177,000000	19,182700
2176,000000	19,319200
2175,000000	19,581400
2174,000000	19,501700
2173,000000	19,435200
2172,000000	19,585300
2171,000000	19,582400
2170,000000	19,516300
2169,000000	19,706300
2168,000000	19,602900
2167,000000	19,924500
2166,000000	19,705200
2165,000000	19,743000
2164,000000	19,803100
2163,000000	19,864200
2162,000000	20,283400
2161,000000	20,482800
2160,000000	20,088100
2159,000000	19,607900
2158,000000	19,908600
2157,000000	20,371600
2156,000000	20,400800
2155,000000	20,495400
2154,000000	21,046500
2153,000000	21,192600
2152,000000	20,732300
2151,000000	21,026900
2150,000000	21,213100
2149,000000	21,189900
2148,000000	21,105700
2147,000000	21,301700
2146,000000	21,334500
2145,000000	21,279500
2144,000000	21,697500
2143,000000	21,547600
2142,000000	21,346500
2141,000000	21,445100
2140,000000	21,483500
2139,000000	21,548700
2138,000000	21,241500
2137,000000	21,571500
2136,000000	21,988600
2135,000000	21,924400
2134,000000	21,896700
2133,000000	22,056400
2132,000000	22,299300
2131,000000	22,386700
2130,000000	22,171500
2129,000000	22,091300
2128,000000	22,012400
2127,000000	22,039200
2126,000000	22,292100
2125,000000	22,411100
2124,000000	22,283600
2123,000000	22,224800
2122,000000	22,206600
2121,000000	22,124000
2120,000000	22,313400
2119,000000	22,068700
2118,000000	22,111200
2117,000000	21,814800
2116,000000	21,863500
2115,000000	22,042300
2114,000000	22,007500
2113,000000	22,071400
2112,000000	22,327600
2111,000000	22,264300
2110,000000	22,144900
2109,000000	22,131700
2108,000000	22,190900
2107,000000	22,128100
2106,000000	21,958200
2105,000000	22,106400
2104,000000	22,268200
2103,000000	22,111600
2102,000000	22,007600
2101,000000	21,878000
2100,000000	22,152400
2099,000000	22,277800
2098,000000	22,230100
2097,000000	21,932300
2096,000000	21,802200
2095,000000	21,750000
2094,000000	21,749300
2093,000000	21,935800
2092,000000	21,881000
2091,000000	21,925600
2090,000000	21,926400
2089,000000	22,040500
2088,000000	21,830500
2087,000000	21,620500
2086,000000	21,587800
2085,000000	21,756200
2084,000000	21,946700
2083,000000	21,843400
2082,000000	21,763100
2081,000000	21,571400
2080,000000	21,486700
2079,000000	21,572600
2078,000000	21,502300
2077,000000	21,486100
2076,000000	21,360800
2075,000000	21,231500
2074,000000	21,339700
2073,000000	21,338100
2072,000000	21,341500
2071,000000	21,316200
2070,000000	21,258900
2069,000000	21,050400
2068,000000	20,931600
2067,000000	20,855400
2066,000000	20,716300
2065,000000	20,807300
2064,000000	20,754600
2063,000000	20,729000
2062,000000	20,715100
2061,000000	20,613900
2060,000000	20,519700
2059,000000	20,514700
2058,000000	20,476300
2057,000000	20,272200
2056,000000	20,256300
2055,000000	20,327700
2054,000000	20,336300
2053,000000	20,391400
2052,000000	20,420500
2051,000000	20,411600
2050,000000	20,393600
2049,000000	20,430100
2048,000000	20,394200
2047,000000	20,431600
2046,000000	20,625300
2045,000000	20,671300
2044,000000	20,836200
2043,000000	20,861200
2042,000000	20,920600
2041,000000	20,977300
2040,000000	20,950700
2039,000000	20,903900
2038,000000	20,980400
2037,000000	21,126800
2036,000000	21,240100
2035,000000	21,347800
2034,000000	21,500400
2033,000000	21,535500
2032,000000	21,620500
2031,000000	21,515300
2030,000000	21,593500
2029,000000	21,778100
2028,000000	21,816000
2027,000000	21,860100
2026,000000	21,710400
2025,000000	21,793200
2024,000000	21,933500
2023,000000	22,033300
2022,000000	21,977700
2021,000000	22,013400
2020,000000	22,159300
2019,000000	22,112400
2018,000000	22,140700
2017,000000	22,166400
2016,000000	22,190700
2015,000000	22,191300
2014,000000	22,155700
2013,000000	22,231300
2012,000000	22,293600
2011,000000	22,179400
2010,000000	22,111100
2009,000000	22,178000
2008,000000	22,121100
2007,000000	22,062900
2006,000000	22,154400
2005,000000	22,068400
2004,000000	21,974700
2003,000000	22,054700
2002,000000	22,102500
2001,000000	22,203600
2000,000000	22,153600
1999,000000	21,972500
1998,000000	22,011500
1997,000000	21,922600
1996,000000	21,863900
1995,000000	21,816400
1994,000000	21,954200
1993,000000	21,784600
1992,000000	21,767500
1991,000000	21,713000
1990,000000	21,607600
1989,000000	21,473000
1988,000000	21,499800
1987,000000	21,448200
1986,000000	21,436600
1985,000000	21,402500
1984,000000	21,355500
1983,000000	21,235500
1982,000000	21,268700
1981,000000	21,156600
1980,000000	21,084500
1979,000000	21,142200
1978,000000	20,973600
1977,000000	20,988800
1976,000000	20,825900
1975,000000	20,829900
1974,000000	20,809600
1973,000000	20,757000
1972,000000	20,698700
1971,000000	20,617800
1970,000000	20,585100
1969,000000	20,572000
1968,000000	20,496300
1967,000000	20,414000
1966,000000	20,420500
1965,000000	20,406400
1964,000000	20,325600
1963,000000	20,206300
1962,000000	20,265000
1961,000000	20,215900
1960,000000	20,250800
1959,000000	20,129300
1958,000000	20,084500
1957,000000	19,949300
1956,000000	20,008300
1955,000000	19,903000
1954,000000	19,850400
1953,000000	19,731000
1952,000000	19,705200
1951,000000	19,798900
1950,000000	19,796700
1949,000000	19,679300
1948,000000	19,646000
1947,000000	19,626500
1946,000000	19,444400
1945,000000	19,490500
1944,000000	19,415000
1943,000000	19,493400
1942,000000	19,409900
1941,000000	19,381600
1940,000000	19,449900
1939,000000	19,419000
1938,000000	19,414300
1937,000000	19,406600
1936,000000	19,331000
1935,000000	19,412100
1934,000000	19,472800
1933,000000	19,376800
1932,000000	19,292700
1931,000000	19,358600
1930,000000	19,355000
1929,000000	19,439600
1928,000000	19,434000
1927,000000	19,523600
1926,000000	19,628600
1925,000000	19,629700
1924,000000	19,671300
1923,000000	19,774600
1922,000000	19,939100
1921,000000	20,008400
1920,000000	20,113200
1919,000000	20,170300
1918,000000	20,270700
1917,000000	20,395900
1916,000000	20,439100
1915,000000	20,599600
1914,000000	20,690400
1913,000000	20,850600
1912,000000	20,997100
1911,000000	21,287500
1910,000000	21,400800
1909,000000	21,522100
1908,000000	21,672800
1907,000000	21,988600
1906,000000	22,134100
1905,000000	22,335100
1904,000000	22,570700
1903,000000	22,873500
1902,000000	23,105500
1901,000000	23,188200
1900,000000	23,606200
1899,000000	23,877600
1898,000000	24,134300
1897,000000	24,398300
1896,000000	24,565000
1895,000000	24,897500
1894,000000	25,058600
1893,000000	25,297400
1892,000000	25,633400
1891,000000	25,784900
1890,000000	26,038900
1889,000000	26,240200
1888,000000	26,435100
1887,000000	26,735800
1886,000000	26,778400
1885,000000	26,996300
1884,000000	27,281300
1883,000000	27,418600
1882,000000	27,580200
1881,000000	27,688500
1880,000000	27,840200
1879,000000	28,067000
1878,000000	28,233700
1877,000000	28,450000
1876,000000	28,581600
1875,000000	28,717000
1874,000000	28,912800
1873,000000	29,045300
1872,000000	29,208100
1871,000000	29,363900
1870,000000	29,554000
1869,000000	29,580700
1868,000000	29,684100
1867,000000	29,797000
1866,000000	29,858900
1865,000000	29,870000
1864,000000	29,941600
1863,000000	29,978400
1862,000000	30,012300
1861,000000	30,027900
1860,000000	30,101700
1859,000000	30,079600
1858,000000	30,078400
1857,000000	30,132000
1856,000000	30,074300
1855,000000	30,086800
1854,000000	30,115600
1853,000000	30,140500
1852,000000	30,149000
1851,000000	30,078000
1850,000000	30,054200
1849,000000	30,058400
1848,000000	30,060200
1847,000000	30,139300
1846,000000	30,186500
1845,000000	30,131700
1844,000000	30,091800
1843,000000	30,079100
1842,000000	30,078600
1841,000000	30,111000
1840,000000	30,063200
1839,000000	30,019600
1838,000000	30,027800
1837,000000	30,039300
1836,000000	30,028400
1835,000000	29,999700
1834,000000	29,976900
1833,000000	29,964500
1832,000000	29,957400
1831,000000	29,931200
1830,000000	29,867400
1829,000000	29,851900
1828,000000	29,842700
1827,000000	29,836900
1826,000000	29,816900
1825,000000	29,769100
1824,000000	29,725900
1823,000000	29,694400
1822,000000	29,695100
1821,000000	29,646600
1820,000000	29,676200
1819,000000	29,659800
1818,000000	29,607100
1817,000000	29,565500
1816,000000	29,564700
1815,000000	29,566500
1814,000000	29,557500
1813,000000	29,534100
1812,000000	29,509700
1811,000000	29,540300
1810,000000	29,531100
1809,000000	29,447800
1808,000000	29,415200
1807,000000	29,433500
1806,000000	29,406800
1805,000000	29,371000
1804,000000	29,353800
1803,000000	29,346500
1802,000000	29,346500
1801,000000	29,321900
1800,000000	29,273100
1799,000000	29,259500
1798,000000	29,249000
1797,000000	29,214700
1796,000000	29,167500
1795,000000	29,151000
1794,000000	29,132800
1793,000000	29,103500
1792,000000	29,082500
1791,000000	29,090500
1790,000000	29,089800
1789,000000	29,074200
1788,000000	29,062900
1787,000000	29,060300
1786,000000	29,067800
1785,000000	29,004300
1784,000000	28,960000
1783,000000	28,965500
1782,000000	28,954000
1781,000000	28,921100
1780,000000	28,886200
1779,000000	28,862200
1778,000000	28,843100
1777,000000	28,825400
1776,000000	28,808200
1775,000000	28,795300
1774,000000	28,771100
1773,000000	28,776700
1772,000000	28,768100
1771,000000	28,722300
1770,000000	28,691600
1769,000000	28,657400
1768,000000	28,661100
1767,000000	28,673800
1766,000000	28,621700
1765,000000	28,575800
1764,000000	28,556700
1763,000000	28,537600
1762,000000	28,514400
1761,000000	28,492400
1760,000000	28,456000
1759,000000	28,444000
1758,000000	28,450300
1757,000000	28,420300
1756,000000	28,381200
1755,000000	28,358700
1754,000000	28,352700
1753,000000	28,323900
1752,000000	28,262100
1751,000000	28,311000
1750,000000	28,275600
1749,000000	28,203100
1748,000000	28,205700
1747,000000	28,185500
1746,000000	28,118300
1745,000000	28,092000
1744,000000	28,068600
1743,000000	28,030400
1742,000000	27,989000
1741,000000	27,960100
1740,000000	27,890200
1739,000000	27,827500
1738,000000	27,817000
1737,000000	27,754200
1736,000000	27,742400
1735,000000	27,686300
1734,000000	27,676800
1733,000000	27,601200
1732,000000	27,544300
1731,000000	27,559800
1730,000000	27,539000
1729,000000	27,557000
1728,000000	27,524700
1727,000000	27,520900
1726,000000	27,496400
1725,000000	27,490300
1724,000000	27,557500
1723,000000	27,560900
1722,000000	27,560700
1721,000000	27,588600
1720,000000	27,669200
1719,000000	27,744700
1718,000000	27,816600
1717,000000	27,825800
1716,000000	27,877900
1715,000000	27,980800
1714,000000	27,993400
1713,000000	28,079900
1712,000000	28,226600
1711,000000	28,247800
1710,000000	28,341900
1709,000000	28,396100
1708,000000	28,474700
1707,000000	28,511600
1706,000000	28,553600
1705,000000	28,599800
1704,000000	28,635500
1703,000000	28,660500
1702,000000	28,737900
1701,000000	28,782700
1700,000000	28,791600
1699,000000	28,786400
1698,000000	28,766500
1697,000000	28,728600
1696,000000	28,739900
1695,000000	28,795100
1694,000000	28,801100
1693,000000	28,850800
1692,000000	28,852100
1691,000000	28,888800
1690,000000	28,863100
1689,000000	28,937300
1688,000000	28,931800
1687,000000	28,951500
1686,000000	29,020400
1685,000000	29,082100
1684,000000	29,114100
1683,000000	29,182200
1682,000000	29,256600
1681,000000	29,333200
1680,000000	29,455900
1679,000000	29,500200
1678,000000	29,565300
1677,000000	29,661300
1676,000000	29,826400
1675,000000	29,869500
1674,000000	29,993000
1673,000000	30,045000
1672,000000	30,196000
1671,000000	30,275400
1670,000000	30,295600
1669,000000	30,452200
1668,000000	30,537200
1667,000000	30,669200
1666,000000	30,708500
1665,000000	30,762800
1664,000000	30,839200
1663,000000	30,935400
1662,000000	30,993200
1661,000000	31,069600
1660,000000	31,083700
1659,000000	31,151500
1658,000000	31,223000
1657,000000	31,303800
1656,000000	31,335600
1655,000000	31,360800
1654,000000	31,399800
1653,000000	31,421700
1652,000000	31,461800
1651,000000	31,456000
1650,000000	31,483400
1649,000000	31,474200
1648,000000	31,478900
1647,000000	31,508700
1646,000000	31,526200
1645,000000	31,543700
1644,000000	31,551400
1643,000000	31,548100
1642,000000	31,559900
1641,000000	31,540000
1640,000000	31,544800
1639,000000	31,512400
1638,000000	31,504800
1637,000000	31,528400
1636,000000	31,508000
1635,000000	31,480300
1634,000000	31,510400
1633,000000	31,491600
1632,000000	31,497700
1631,000000	31,430400
1630,000000	31,425300
1629,000000	31,415400
1628,000000	31,380600
1627,000000	31,320700
1626,000000	31,287600
1625,000000	31,284700
1624,000000	31,276400
1623,000000	31,271500
1622,000000	31,238800
1621,000000	31,225700
1620,000000	31,201100
1619,000000	31,180500
1618,000000	31,146200
1617,000000	31,114100
1616,000000	31,084500
1615,000000	31,053700
1614,000000	31,068100
1613,000000	31,030200
1612,000000	30,994200
1611,000000	30,960200
1610,000000	30,939700
1609,000000	30,901400
1608,000000	30,866900
1607,000000	30,862600
1606,000000	30,838400
1605,000000	30,789100
1604,000000	30,743200
1603,000000	30,714200
1602,000000	30,682100
1601,000000	30,622600
1600,000000	30,599000
1599,000000	30,554300
1598,000000	30,522200
1597,000000	30,502800
1596,000000	30,456400
1595,000000	30,395300
1594,000000	30,352400
1593,000000	30,355900
1592,000000	30,336400
1591,000000	30,298300
1590,000000	30,239200
1589,000000	30,192800
1588,000000	30,173600
1587,000000	30,146700
1586,000000	30,151800
1585,000000	30,145900
1584,000000	30,102300
1583,000000	30,055000
1582,000000	30,041000
1581,000000	30,032700
1580,000000	30,030900
1579,000000	30,038900
1578,000000	30,009600
1577,000000	29,977900
1576,000000	29,967000
1575,000000	29,985200
1574,000000	29,978500
1573,000000	29,980200
1572,000000	29,967400
1571,000000	29,981800
1570,000000	29,995100
1569,000000	29,983300
1568,000000	29,995100
1567,000000	30,004700
1566,000000	29,996800
1565,000000	29,986100
1564,000000	29,974200
1563,000000	29,963000
1562,000000	29,978600
1561,000000	29,981200
1560,000000	29,974300
1559,000000	29,973300
1558,000000	29,952600
1557,000000	29,928700
1556,000000	29,925400
1555,000000	29,912300
1554,000000	29,871200
1553,000000	29,822100
1552,000000	29,807600
1551,000000	29,788100
1550,000000	29,770100
1549,000000	29,724900
1548,000000	29,699700
1547,000000	29,689300
1546,000000	29,661300
1545,000000	29,626300
1544,000000	29,597500
1543,000000	29,566300
1542,000000	29,541300
1541,000000	29,504700
1540,000000	29,473100
1539,000000	29,437100
1538,000000	29,418900
1537,000000	29,419600
1536,000000	29,384300
1535,000000	29,339900
1534,000000	29,324100
1533,000000	29,314400
1532,000000	29,298900
1531,000000	29,263900
1530,000000	29,224700
1529,000000	29,189500
1528,000000	29,153700
1527,000000	29,112400
1526,000000	29,088300
1525,000000	29,066200
1524,000000	29,028200
1523,000000	29,002200
1522,000000	28,987200
1521,000000	28,959600
1520,000000	28,918900
1519,000000	28,878500
1518,000000	28,834800
1517,000000	28,799800
1516,000000	28,762400
1515,000000	28,719100
1514,000000	28,673800
1513,000000	28,655200
1512,000000	28,627500
1511,000000	28,572300
1510,000000	28,545700
1509,000000	28,511000
1508,000000	28,462600
1507,000000	28,438500
1506,000000	28,426200
1505,000000	28,407100
1504,000000	28,371000
1503,000000	28,342300
1502,000000	28,315500
1501,000000	28,294400
1500,000000	28,271100
1499,000000	28,256400
1498,000000	28,231000
1497,000000	28,218200
1496,000000	28,229700
1495,000000	28,218000
1494,000000	28,213200
1493,000000	28,198900
1492,000000	28,197000
1491,000000	28,189500
1490,000000	28,209600
1489,000000	28,229300
1488,000000	28,212500
1487,000000	28,209300
1486,000000	28,242700
1485,000000	28,266400
1484,000000	28,288400
1483,000000	28,295400
1482,000000	28,321400
1481,000000	28,348000
1480,000000	28,364700
1479,000000	28,384900
1478,000000	28,408200
1477,000000	28,444500
1476,000000	28,497000
1475,000000	28,527400
1474,000000	28,533100
1473,000000	28,572600
1472,000000	28,611300
1471,000000	28,662900
1470,000000	28,694700
1469,000000	28,740800
1468,000000	28,756900
1467,000000	28,818000
1466,000000	28,839400
1465,000000	28,879500
1464,000000	28,936500
1463,000000	29,000500
1462,000000	29,052900
1461,000000	29,079900
1460,000000	29,107200
1459,000000	29,148700
1458,000000	29,161100
1457,000000	29,224800
1456,000000	29,281900
1455,000000	29,307400
1454,000000	29,358400
1453,000000	29,390500
1452,000000	29,443700
1451,000000	29,486900
1450,000000	29,540800
1449,000000	29,580800
1448,000000	29,624600
1447,000000	29,666000
1446,000000	29,689500
1445,000000	29,773100
1444,000000	29,843000
1443,000000	29,878400
1442,000000	29,923300
1441,000000	29,983500
1440,000000	30,027400
1439,000000	30,086900
1438,000000	30,141700
1437,000000	30,207900
1436,000000	30,248600
1435,000000	30,283800
1434,000000	30,352900
1433,000000	30,401300
1432,000000	30,473600
1431,000000	30,555300
1430,000000	30,603400
1429,000000	30,701100
1428,000000	30,759400
1427,000000	30,833000
1426,000000	30,888600
1425,000000	30,983900
1424,000000	31,041300
1423,000000	31,137300
1422,000000	31,209900
1421,000000	31,288600
1420,000000	31,367700
1419,000000	31,453300
1418,000000	31,539200
1417,000000	31,657600
1416,000000	31,751800
1415,000000	31,841300
1414,000000	31,902600
1413,000000	32,024800
1412,000000	32,129300
1411,000000	32,206200
1410,000000	32,326300
1409,000000	32,410400
1408,000000	32,529900
1407,000000	32,577000
1406,000000	32,674300
1405,000000	32,760200
1404,000000	32,828600
1403,000000	32,915100
1402,000000	32,977700
1401,000000	33,035800
1400,000000	33,069000
1399,000000	33,135300
1398,000000	33,161500
1397,000000	33,192500
1396,000000	33,224300
1395,000000	33,298200
1394,000000	33,278100
1393,000000	33,328100
1392,000000	33,362100
1391,000000	33,401600
1390,000000	33,420200
1389,000000	33,432900
1388,000000	33,520100
1387,000000	33,596200
1386,000000	33,678700
1385,000000	33,766400
1384,000000	33,889100
1383,000000	34,026700
1382,000000	34,184700
1381,000000	34,320800
1380,000000	34,500000
1379,000000	34,660700
1378,000000	34,840600
1377,000000	35,059000
1376,000000	35,225700
1375,000000	35,400100
1374,000000	35,615500
1373,000000	35,801300
1372,000000	36,019200
1371,000000	36,184300
1370,000000	36,341800
1369,000000	36,517200
1368,000000	36,669400
1367,000000	36,846300
1366,000000	37,005100
1365,000000	37,142200
1364,000000	37,318400
1363,000000	37,466500
1362,000000	37,581200
1361,000000	37,712900
1360,000000	37,855600
1359,000000	37,972700
1358,000000	38,111300
1357,000000	38,199400
1356,000000	38,292100
1355,000000	38,391000
1354,000000	38,472000
1353,000000	38,516300
1352,000000	38,595200
1351,000000	38,633400
1350,000000	38,708600
1349,000000	38,735200
1348,000000	38,796300
1347,000000	38,852900
1346,000000	38,901900
1345,000000	38,919800
1344,000000	38,967400
1343,000000	38,995700
1342,000000	39,039300
1341,000000	39,091900
1340,000000	39,113700
1339,000000	39,139600
1338,000000	39,207100
1337,000000	39,237900
1336,000000	39,280400
1335,000000	39,325600
1334,000000	39,360600
1333,000000	39,385300
1332,000000	39,440800
1331,000000	39,454100
1330,000000	39,521600
1329,000000	39,543900
1328,000000	39,571500
1327,000000	39,598000
1326,000000	39,640900
1325,000000	39,667900
1324,000000	39,697500
1323,000000	39,721300
1322,000000	39,757700
1321,000000	39,780300
1320,000000	39,802200
1319,000000	39,817100
1318,000000	39,819900
1317,000000	39,831000
1316,000000	39,861100
1315,000000	39,871100
1314,000000	39,872900
1313,000000	39,865100
1312,000000	39,878700
1311,000000	39,871800
1310,000000	39,869200
1309,000000	39,862200
1308,000000	39,871700
1307,000000	39,878300
1306,000000	39,861700
1305,000000	39,831500
1304,000000	39,812700
1303,000000	39,818300
1302,000000	39,824300
1301,000000	39,810200
1300,000000	39,800500
1299,000000	39,799100
1298,000000	39,794800
1297,000000	39,782200
1296,000000	39,765400
1295,000000	39,761100
1294,000000	39,748300
1293,000000	39,743300
1292,000000	39,725400
1291,000000	39,708500
1290,000000	39,697800
1289,000000	39,683200
1288,000000	39,669000
1287,000000	39,659300
1286,000000	39,635000
1285,000000	39,628100
1284,000000	39,616400
1283,000000	39,600100
1282,000000	39,604500
1281,000000	39,597000
1280,000000	39,580600
1279,000000	39,571200
1278,000000	39,572700
1277,000000	39,559100
1276,000000	39,530400
1275,000000	39,528000
1274,000000	39,510800
1273,000000	39,491800
1272,000000	39,484800
1271,000000	39,466800
1270,000000	39,443100
1269,000000	39,432400
1268,000000	39,414800
1267,000000	39,389900
1266,000000	39,375800
1265,000000	39,354800
1264,000000	39,334700
1263,000000	39,316400
1262,000000	39,295600
1261,000000	39,280900
1260,000000	39,261100
1259,000000	39,247700
1258,000000	39,205400
1257,000000	39,168300
1256,000000	39,159000
1255,000000	39,123800
1254,000000	39,099700
1253,000000	39,074700
1252,000000	39,045700
1251,000000	39,033900
1250,000000	39,025600
1249,000000	39,016300
1248,000000	38,983000
1247,000000	38,953300
1246,000000	38,944100
1245,000000	38,940800
1244,000000	38,915800
1243,000000	38,902300
1242,000000	38,912200
1241,000000	38,893100
1240,000000	38,882200
1239,000000	38,859300
1238,000000	38,856800
1237,000000	38,871700
1236,000000	38,854600
1235,000000	38,842600
1234,000000	38,823100
1233,000000	38,814000
1232,000000	38,763600
1231,000000	38,766100
1230,000000	38,770700
1229,000000	38,758600
1228,000000	38,737200
1227,000000	38,706300
1226,000000	38,672000
1225,000000	38,640500
1224,000000	38,606700
1223,000000	38,590400
1222,000000	38,566900
1221,000000	38,537500
1220,000000	38,505700
1219,000000	38,478400
1218,000000	38,445300
1217,000000	38,410000
1216,000000	38,376500
1215,000000	38,330200
1214,000000	38,292400
1213,000000	38,285800
1212,000000	38,239400
1211,000000	38,217800
1210,000000	38,191700
1209,000000	38,155700
1208,000000	38,120300
1207,000000	38,102900
1206,000000	38,068200
1205,000000	38,037300
1204,000000	38,003800
1203,000000	37,980400
1202,000000	37,962400
1201,000000	37,949100
1200,000000	37,931900
1199,000000	37,885600
1198,000000	37,883500
1197,000000	37,872000
1196,000000	37,838900
1195,000000	37,789800
1194,000000	37,771900
1193,000000	37,758300
1192,000000	37,727500
1191,000000	37,708400
1190,000000	37,692600
1189,000000	37,669900
1188,000000	37,644900
1187,000000	37,605500
1186,000000	37,588700
1185,000000	37,595700
1184,000000	37,591100
1183,000000	37,571100
1182,000000	37,571200
1181,000000	37,566800
1180,000000	37,582500
1179,000000	37,584900
1178,000000	37,574200
1177,000000	37,601200
1176,000000	37,625700
1175,000000	37,614800
1174,000000	37,632600
1173,000000	37,664700
1172,000000	37,684200
1171,000000	37,690000
1170,000000	37,750000
1169,000000	37,775900
1168,000000	37,791700
1167,000000	37,796600
1166,000000	37,842400
1165,000000	37,883700
1164,000000	37,901000
1163,000000	37,954700
1162,000000	37,993800
1161,000000	38,032200
1160,000000	38,032100
1159,000000	38,071800
1158,000000	38,103800
1157,000000	38,121900
1156,000000	38,189000
1155,000000	38,201300
1154,000000	38,245600
1153,000000	38,270200
1152,000000	38,277100
1151,000000	38,315500
1150,000000	38,320000
1149,000000	38,371000
1148,000000	38,393400
1147,000000	38,393500
1146,000000	38,404700
1145,000000	38,461300
1144,000000	38,465600
1143,000000	38,458400
1142,000000	38,520200
1141,000000	38,535100
1140,000000	38,554000
1139,000000	38,579100
1138,000000	38,620200
1137,000000	38,587400
1136,000000	38,580900
1135,000000	38,604700
1134,000000	38,650900
1133,000000	38,662500
1132,000000	38,658100
1131,000000	38,681400
1130,000000	38,735100
1129,000000	38,684100
1128,000000	38,719300
1127,000000	38,704600
1126,000000	38,686200
1125,000000	38,713800
1124,000000	38,751300
1123,000000	38,768400
1122,000000	38,770500
1121,000000	38,813100
1120,000000	38,790800
1119,000000	38,773000
1118,000000	38,781500
1117,000000	38,808300
1116,000000	38,815100
1115,000000	38,778000
1114,000000	38,754900
1113,000000	38,741100
1112,000000	38,748400
1111,000000	38,710500
1110,000000	38,728000
1109,000000	38,672200
1108,000000	38,647100
1107,000000	38,647100
1106,000000	38,599000
1105,000000	38,593200
1104,000000	38,619200
1103,000000	38,565500
1102,000000	38,528600
1101,000000	38,546700
1100,000000	38,521500
1099,000000	38,523500
1098,000000	38,485800
1097,000000	38,495800
1096,000000	38,494300
1095,000000	38,454700
1094,000000	38,439600
1093,000000	38,390500
1092,000000	38,399200
1091,000000	38,401400
1090,000000	38,341200
1089,000000	38,354900
1088,000000	38,339000
1087,000000	38,290000
1086,000000	38,274000
1085,000000	38,273300
1084,000000	38,270800
1083,000000	38,254600
1082,000000	38,248600
1081,000000	38,231200
1080,000000	38,262100
1079,000000	38,221600
1078,000000	38,164800
1077,000000	38,164800
1076,000000	38,158200
1075,000000	38,153500
1074,000000	38,132700
1073,000000	38,118700
1072,000000	38,134200
1071,000000	38,095400
1070,000000	38,049000
1069,000000	38,004600
1068,000000	37,987100
1067,000000	38,012900
1066,000000	37,987000
1065,000000	37,975200
1064,000000	37,965500
1063,000000	37,946400
1062,000000	37,912000
1061,000000	37,894500
1060,000000	37,859400
1059,000000	37,831900
1058,000000	37,830400
1057,000000	37,801500
1056,000000	37,775300
1055,000000	37,743200
1054,000000	37,718700
1053,000000	37,722600
1052,000000	37,681900
1051,000000	37,636400
1050,000000	37,625000
1049,000000	37,644200
1048,000000	37,628600
1047,000000	37,585400
1046,000000	37,554600
1045,000000	37,540600
1044,000000	37,515900
1043,000000	37,508100
1042,000000	37,521200
1041,000000	37,476900
1040,000000	37,455200
1039,000000	37,443800
1038,000000	37,440000
1037,000000	37,399200
1036,000000	37,396200
1035,000000	37,406600
1034,000000	37,290100
1033,000000	37,271300
1032,000000	37,292400
1031,000000	37,258500
1030,000000	37,216900
1029,000000	37,223000
1028,000000	37,227500
1027,000000	37,203500
1026,000000	37,218600
1025,000000	37,207800
1024,000000	37,137200
1023,000000	37,077400
1022,000000	37,088400
1021,000000	37,086900
1020,000000	37,089400
1019,000000	37,084700
1018,000000	37,035300
1017,000000	36,996400
1016,000000	37,022900
1015,000000	37,014900
1014,000000	36,955000
1013,000000	36,935000
1012,000000	36,891000
1011,000000	36,903900
1010,000000	36,901400
1009,000000	36,909700
1008,000000	36,890800
1007,000000	36,825100
1006,000000	36,837200
1005,000000	36,821500
1004,000000	36,794100
1003,000000	36,804800
1002,000000	36,771000
1001,000000	36,739300
1000,000000	36,771300
999,000000	36,805500
998,000000	36,779800
997,000000	36,707400
996,000000	36,690900
995,000000	36,691000
994,000000	36,697700
993,000000	36,648600
992,000000	36,565100
991,000000	36,574800
990,000000	36,588900
989,000000	36,604200
988,000000	36,596300
987,000000	36,552100
986,000000	36,498400
985,000000	36,507700
984,000000	36,504600
983,000000	36,476300
982,000000	36,466000
981,000000	36,360600
980,000000	36,306200
979,000000	36,375100
978,000000	36,371400
977,000000	36,323600
976,000000	36,331500
975,000000	36,359700
974,000000	36,442700
973,000000	36,329700
972,000000	36,292700
971,000000	36,292500
970,000000	36,216000
969,000000	36,178800
968,000000	36,165600
967,000000	36,141000
966,000000	36,215000
965,000000	36,218800
964,000000	36,212300
963,000000	36,234000
962,000000	36,233200
961,000000	36,126000
960,000000	36,105600
959,000000	36,091300
958,000000	36,079900
957,000000	36,131300
956,000000	36,025800
955,000000	35,981600
954,000000	35,981500
953,000000	35,932600
952,000000	36,002300
951,000000	35,935800
950,000000	35,969100
949,000000	35,921700
948,000000	35,848200
947,000000	35,884800
946,000000	35,897900
945,000000	35,957100
944,000000	35,951400
943,000000	35,993200
942,000000	35,923900
941,000000	35,809800
940,000000	35,721200
939,000000	35,731700
938,000000	35,843500
937,000000	35,846200
936,000000	35,799700
935,000000	35,832900
934,000000	35,852500
933,000000	35,820900
932,000000	35,623300
931,000000	35,762300
930,000000	35,704900
929,000000	35,704900
928,000000	35,738500
927,000000	35,703700
926,000000	35,861600
925,000000	35,881100
924,000000	35,717000
923,000000	35,749200
922,000000	35,627600
921,000000	35,685900
920,000000	35,553800
919,000000	35,640100
918,000000	35,643900
917,000000	35,691500
916,000000	35,579600
915,000000	35,835300
914,000000	35,815900
913,000000	35,821300
912,000000	35,759200
911,000000	35,807800
910,000000	35,758600
909,000000	36,074500
908,000000	35,963500
907,000000	35,809400
906,000000	35,446700
905,000000	35,847400
904,000000	35,954000
903,000000	35,842600
902,000000	35,645000
901,000000	36,163900
900,000000	36,072400
899,000000	36,522700
898,000000	35,811100
897,000000	35,909300
896,000000	36,169700
895,000000	36,207400
894,000000	36,224100
893,000000	36,589900
892,000000	36,304300
891,000000	35,677400
890,000000	36,491200
889,000000	36,638800
888,000000	36,762600
887,000000	36,717500
886,000000	36,782500
885,000000	36,474300
884,000000	37,179000
883,000000	36,700400
882,000000	37,165000
881,000000	36,950300
880,000000	37,471500
879,000000	37,279600
878,000000	37,069300
877,000000	37,323800
876,000000	37,249800
875,000000	37,311700
874,000000	37,996300
873,000000	37,665600
872,000000	37,643800
871,000000	37,927300
870,000000	37,990900
869,000000	38,376900
868,000000	37,933100
867,000000	38,116500
866,000000	38,330400
865,000000	38,127500
864,000000	39,461200
863,000000	38,893300
862,000000	38,194800
861,000000	38,142700
860,000000	38,521500
859,000000	38,867200
858,000000	39,195000
857,000000	31,234100
856,000000	31,090100
855,000000	31,122800
854,000000	31,059000
853,000000	31,127100
852,000000	31,140500
851,000000	30,755800
850,000000	30,885000
849,000000	30,807900
848,000000	30,644700
847,000000	30,694400
846,000000	30,608700
845,000000	30,403300
844,000000	30,415200
843,000000	30,315300
842,000000	30,348000
841,000000	30,240400
840,000000	30,149500
839,000000	30,115400
838,000000	30,084100
837,000000	29,995000
836,000000	29,921000
835,000000	29,811200
834,000000	29,784500
833,000000	29,669400
832,000000	29,518000
831,000000	29,464400
830,000000	29,418800
829,000000	29,267100
828,000000	29,298000
827,000000	29,212000
826,000000	29,057900
825,000000	28,941300
824,000000	28,822100
823,000000	28,801800
822,000000	28,720600
821,000000	28,605700
820,000000	28,515400
819,000000	28,490900
818,000000	28,351300
817,000000	28,195800
816,000000	28,166100
815,000000	28,131500
814,000000	27,981400
813,000000	27,865500
812,000000	27,724700
811,000000	27,735700
810,000000	27,610500
809,000000	27,489900
808,000000	27,450600
807,000000	27,377900
806,000000	27,268500
805,000000	27,175500
804,000000	27,115400
803,000000	27,003800
802,000000	26,846200
801,000000	26,776200
800,000000	26,701700
799,000000	26,574000
798,000000	26,483900
797,000000	26,356900
796,000000	26,249300
795,000000	26,192500
794,000000	26,107600
793,000000	26,021900
792,000000	25,893100
791,000000	25,805900
790,000000	25,742300
789,000000	25,639600
788,000000	25,542900
787,000000	25,389600
786,000000	25,352400
785,000000	25,261500
784,000000	25,160800
783,000000	25,072000
782,000000	25,012200
781,000000	24,865400
780,000000	24,720500
779,000000	24,653600
778,000000	24,570200
777,000000	24,474600
776,000000	24,377200
775,000000	24,303300
774,000000	24,207500
773,000000	24,087800
772,000000	24,001600
771,000000	23,923700
770,000000	23,825500
769,000000	23,739000
768,000000	23,624900
767,000000	23,536400
766,000000	23,475700
765,000000	23,409900
764,000000	23,336500
763,000000	23,233800
762,000000	23,154600
761,000000	23,061600
760,000000	22,946300
759,000000	22,872800
758,000000	22,797600
757,000000	22,673800
756,000000	22,560900
755,000000	22,462100
754,000000	22,367600
753,000000	22,304200
752,000000	22,195800
751,000000	22,099300
750,000000	22,045800
749,000000	21,923800
748,000000	21,850900
747,000000	21,745300
746,000000	21,618900
745,000000	21,546500
744,000000	21,484200
743,000000	21,417600
742,000000	21,328500
741,000000	21,256200
740,000000	21,139400
739,000000	21,045600
738,000000	20,954000
737,000000	20,871600
736,000000	20,809400
735,000000	20,702500
734,000000	20,586400
733,000000	20,486300
732,000000	20,385000
731,000000	20,296200
730,000000	20,167500
729,000000	20,059900
728,000000	19,969900
727,000000	19,851600
726,000000	19,748600
725,000000	19,659600
724,000000	19,600900
723,000000	19,529700
722,000000	19,422600
721,000000	19,323600
720,000000	19,246900
719,000000	19,174400
718,000000	19,105000
717,000000	19,020000
716,000000	18,949700
715,000000	18,901200
714,000000	18,826400
713,000000	18,729600
712,000000	18,640700
711,000000	18,565400
710,000000	18,469300
709,000000	18,338600
708,000000	18,234600
707,000000	18,163000
706,000000	18,075300
705,000000	17,963400
704,000000	17,851400
703,000000	17,750900
702,000000	17,663300
701,000000	17,585200
700,000000	17,500900
699,000000	17,426200
698,000000	17,373200
697,000000	17,312400
696,000000	17,258000
695,000000	17,225700
694,000000	17,199600
693,000000	17,157400
692,000000	17,087600
691,000000	17,025700
690,000000	16,977900
689,000000	16,931000
688,000000	16,856900
687,000000	16,775300
686,000000	16,698900
685,000000	16,602500
684,000000	16,521600
683,000000	16,414900
682,000000	16,306800
681,000000	16,206700
680,000000	16,116200
679,000000	16,018000
678,000000	15,942000
677,000000	15,890200
676,000000	15,834500
675,000000	15,767900
674,000000	15,727900
673,000000	15,700800
672,000000	15,683000
671,000000	15,683100
670,000000	15,666600
669,000000	15,645800
668,000000	15,629000
667,000000	15,628700
666,000000	15,614200
665,000000	15,569400
664,000000	15,535600
663,000000	15,487300
662,000000	15,411400
661,000000	15,337400
660,000000	15,266000
659,000000	15,169900
658,000000	15,077800
657,000000	14,978500
656,000000	14,880200
655,000000	14,793400
654,000000	14,712700
653,000000	14,636500
652,000000	14,583900
651,000000	14,534100
650,000000	14,498400
649,000000	14,473400
648,000000	14,475600
647,000000	14,457700
646,000000	14,485800
645,000000	14,516900
644,000000	14,540300
643,000000	14,572200
642,000000	14,599900
641,000000	14,614200
640,000000	14,642900
639,000000	14,651800
638,000000	14,635700
637,000000	14,609900
636,000000	14,577400
635,000000	14,526400
634,000000	14,459300
633,000000	14,387600
632,000000	14,299200
631,000000	14,207300
630,000000	14,107900
629,000000	14,005100
628,000000	13,908900
627,000000	13,827300
626,000000	13,749500
625,000000	13,685500
624,000000	13,645300
623,000000	13,623700
622,000000	13,617700
621,000000	13,619900
620,000000	13,649500
619,000000	13,699700
618,000000	13,741900
617,000000	13,826200
616,000000	13,914800
615,000000	14,007600
614,000000	14,091100
613,000000	14,172700
612,000000	14,266100
611,000000	14,345600
610,000000	14,417200
609,000000	14,479800
608,000000	14,507100
607,000000	14,536200
606,000000	14,532400
605,000000	14,528400
604,000000	14,498600
603,000000	14,449400
602,000000	14,374600
601,000000	14,279000
600,000000	14,171800
599,000000	14,082000
598,000000	13,942400
597,000000	13,811800
596,000000	13,693000
595,000000	13,575300
594,000000	13,463600
593,000000	13,355300
592,000000	13,282100
591,000000	13,213800
590,000000	13,179900
589,000000	13,154300
588,000000	13,164000
587,000000	13,181600
586,000000	13,237200
585,000000	13,305900
584,000000	13,401300
583,000000	13,500100
582,000000	13,635200
581,000000	13,763200
580,000000	13,921300
579,000000	14,089700
578,000000	14,246000
577,000000	14,420000
576,000000	14,586200
575,000000	14,765100
574,000000	14,930200
573,000000	15,105900
572,000000	15,269500
571,000000	15,405600
570,000000	15,560500
569,000000	15,693800
568,000000	15,803100
567,000000	15,879200
566,000000	15,965200
565,000000	16,013000
564,000000	16,055900
563,000000	16,074900
562,000000	16,068400
561,000000	16,039200
560,000000	15,999000
559,000000	15,872700
558,000000	15,797600
557,000000	15,707600
556,000000	15,589100
555,000000	15,463100
554,000000	15,308400
553,000000	15,168800
552,000000	15,007900
551,000000	14,818900
550,000000	14,652300
549,000000	14,476600
548,000000	14,296000
547,000000	14,105200
546,000000	13,931000
545,000000	13,745300
544,000000	13,560900
543,000000	13,375700
542,000000	13,208300
541,000000	13,044900
540,000000	12,876300
539,000000	12,716100
538,000000	12,573500
537,000000	12,429000
536,000000	12,300400
535,000000	12,177300
534,000000	12,056300
533,000000	11,953300
532,000000	11,851200
531,000000	11,764500
530,000000	11,686900
529,000000	11,607800
528,000000	11,549800
527,000000	11,488400
526,000000	11,452300
525,000000	11,402500
524,000000	11,371900
523,000000	11,336300
522,000000	11,312700
521,000000	11,310800
520,000000	11,290700
519,000000	11,281700
518,000000	11,278400
517,000000	11,265000
516,000000	11,269800
515,000000	11,260400
514,000000	11,258000
513,000000	11,248400
512,000000	11,258900
511,000000	11,253500
510,000000	11,248600
509,000000	11,249000
508,000000	11,237800
507,000000	11,223400
506,000000	11,200100
505,000000	11,178500
504,000000	11,172900
503,000000	11,149400
502,000000	11,141100
501,000000	11,108300
500,000000	11,091400
499,000000	11,064900
498,000000	11,053600
497,000000	11,043300
496,000000	11,022500
495,000000	11,002100
494,000000	10,982800
493,000000	10,960000
492,000000	10,943300
491,000000	10,923200
490,000000	10,913200
489,000000	10,878700
488,000000	10,863100
487,000000	10,833000
486,000000	10,805700
485,000000	10,798500
484,000000	10,776500
483,000000	10,754400
482,000000	10,744200
481,000000	10,733500
480,000000	10,733200
479,000000	10,748400
478,000000	10,763100
477,000000	10,777800
476,000000	10,787300
475,000000	10,792000
474,000000	10,807000
473,000000	10,824900
472,000000	10,829400
471,000000	10,834800
470,000000	10,842200
469,000000	10,854800
468,000000	10,859300
467,000000	10,854100
466,000000	10,848200
465,000000	10,842300
464,000000	10,841600
463,000000	10,842700
462,000000	10,838400
461,000000	10,832500
460,000000	10,820100
459,000000	10,812400
458,000000	10,795800
457,000000	10,799500
456,000000	10,800000
455,000000	10,796400
454,000000	10,796900
453,000000	10,784100
452,000000	10,791800
451,000000	10,790800
450,000000	10,782800
449,000000	10,775300
448,000000	10,769100
447,000000	10,759000
446,000000	10,751800
445,000000	10,743600
444,000000	10,746100
443,000000	10,746900
442,000000	10,731500
441,000000	10,720100
440,000000	10,713800
439,000000	10,719900
438,000000	10,706900
437,000000	10,705000
436,000000	10,715600
435,000000	10,711900
434,000000	10,706200
433,000000	10,698900
432,000000	10,704300
431,000000	10,693700
430,000000	10,675500
429,000000	10,673100
428,000000	10,672800
427,000000	10,676000
426,000000	10,672800
425,000000	10,669200
424,000000	10,664200
423,000000	10,662800
422,000000	10,660600
421,000000	10,648600
420,000000	10,646700
419,000000	10,646600
418,000000	10,647700
417,000000	10,633400
416,000000	10,616700
415,000000	10,618200
414,000000	10,621100
413,000000	10,619200
412,000000	10,608400
411,000000	10,603400
410,000000	10,605600
409,000000	10,603700
408,000000	10,596300
407,000000	10,595300
406,000000	10,591700
405,000000	10,579600
404,000000	10,566500
403,000000	10,548700
402,000000	10,554500
401,000000	10,562700
400,000000	10,552100
399,000000	10,541800
398,000000	10,539300
397,000000	10,538900
396,000000	10,540700
395,000000	10,531300
394,000000	10,516300
393,000000	10,523900
392,000000	10,526700
391,000000	10,503900
390,000000	10,493300
389,000000	10,497100
388,000000	10,507400
387,000000	10,491000
386,000000	10,464600
385,000000	10,469000
384,000000	10,472000
383,000000	10,483000
382,000000	10,475800
381,000000	10,446100
380,000000	10,456900
379,000000	10,452800
378,000000	10,440900
377,000000	10,446600
376,000000	10,409100
375,000000	10,396400
374,000000	10,360800
373,000000	10,387000
372,000000	10,388200
371,000000	10,358300
370,000000	10,419900
369,000000	10,411900
368,000000	10,424200
367,000000	10,448900
366,000000	10,384300
365,000000	10,351700
364,000000	10,383800
363,000000	10,402400
362,000000	10,434300
361,000000	10,377100
360,000000	10,377900
359,000000	10,339500
358,000000	10,342600
357,000000	10,334200
356,000000	10,236900
355,000000	10,306100
354,000000	10,317900
353,000000	10,277500
352,000000	10,371400
351,000000	10,388300
350,000000	10,368500
349,000000	10,316400
348,000000	10,268600
347,000000	10,333400
346,000000	10,291900
345,000000	10,344200
344,000000	10,300200
343,000000	10,323000
342,000000	10,255200
341,000000	10,297400
340,000000	10,359100
339,000000	10,248800
338,000000	10,257600
337,000000	10,336100
336,000000	10,343200
335,000000	10,238400
334,000000	10,312500
333,000000	10,321800
332,000000	10,298300
331,000000	10,239900
330,000000	10,120600
329,000000	10,180200
328,000000	10,181800
327,000000	10,213200
326,000000	10,172500
325,000000	10,142000
324,000000	10,281200
323,000000	10,181800
322,000000	10,169300
321,000000	10,194400
320,000000	10,149400
319,000000	10,181600
318,000000	10,132000
317,000000	10,126800
316,000000	10,090300
315,000000	10,034400
314,000000	10,130200
313,000000	10,083700
312,000000	10,047900
311,000000	10,015900
310,000000	10,054200
309,000000	10,043600
308,000000	10,031600
307,000000	10,011200
306,000000	10,057100
305,000000	10,027600
304,000000	10,053200
303,000000	10,029600
302,000000	9,983300
301,000000	9,982700
300,000000	10,020200
299,000000	9,968400
298,000000	9,997000
297,000000	9,958400
296,000000	9,934100
295,000000	9,948900
294,000000	9,964800
293,000000	9,996100
292,000000	9,942100
291,000000	10,022000
290,000000	10,026600
289,000000	9,932000
288,000000	9,973300
287,000000	9,954700
286,000000	9,922800
285,000000	9,973800
284,000000	9,969000
283,000000	9,947700
282,000000	9,909100
281,000000	9,929800
280,000000	9,952300
279,000000	9,881100
278,000000	9,879400
277,000000	9,956300
276,000000	9,878100
275,000000	9,906700
274,000000	9,899700
273,000000	9,951300
272,000000	9,902100
271,000000	9,913200
270,000000	9,881800
269,000000	9,960700
268,000000	9,917200
267,000000	9,938300
266,000000	9,948300
265,000000	9,928100
264,000000	9,945600
263,000000	10,014100
262,000000	9,999500
261,000000	10,007000
260,000000	10,101300
259,000000	9,997600
258,000000	10,076000
257,000000	10,027600
256,000000	10,062900
255,000000	10,044800
254,000000	10,007400
253,000000	10,028200
252,000000	9,968200
251,000000	9,982300
250,000000	9,967500
