PE UV       SUBTECH     SPECTRUM    ASCII       PEDS        4.00        
   -1
C117STRLAB1.Sample.ASC
24/01/19
09:30:44.00
24/01/19
09:30:44.00
Vinicio Soto Monge
Strigidia labyrinthophallica
250,000000
1
Lambda 1050
1050L1511233
PerkinElmer UV WinLab 6.3.2.0749 / 2.02.05 Lambda 900 UV/VIS/NIR, Aug  7 2015 09:38:08

0
0
3350/servo 860,8/2
0
0
UV/VIS
1
1
1
DoubleDePol,CommonBeamDepol,RBeamAtt,SBeamAtt,60mm sphere, WB InGaAs Detector
0
0
0
0
Program
Program
3350/servo 860,8/2
3350/0,2 860,8/0,2
3350/0,2 860,8/0,2
0
1.00
 
 
 
0
 
860,8
319,2
860,8
Front
100
on
S:100 R:100
0
0
0
0
 
0
 
 
 
0
 
 
0
0
0
0
0
 
 
 
 
0
0


0
0
#HDR
-1
-1
#GR
nm
%R
1.0
0.0
3000,000000
-1,000000
2751
8
110,758000
5,697300
#DATA
3000,000000	41,501000
2999,000000	57,922700
2998,000000	77,396600
2997,000000	53,299700
2996,000000	40,829100
2995,000000	75,830100
2994,000000	36,903000
2993,000000	54,378000
2992,000000	49,762000
2991,000000	44,616800
2990,000000	56,718200
2989,000000	66,211800
2988,000000	57,855500
2987,000000	63,995600
2986,000000	80,419800
2985,000000	66,199200
2984,000000	48,161000
2983,000000	73,136700
2982,000000	72,341400
2981,000000	68,330500
2980,000000	76,435200
2979,000000	76,741200
2978,000000	65,924000
2977,000000	67,662700
2976,000000	77,830500
2975,000000	82,315900
2974,000000	76,498300
2973,000000	76,224500
2972,000000	71,556000
2971,000000	69,076200
2970,000000	76,949800
2969,000000	79,497300
2968,000000	79,556600
2967,000000	81,332400
2966,000000	76,668200
2965,000000	84,915000
2964,000000	88,598500
2963,000000	86,203100
2962,000000	76,189500
2961,000000	89,479200
2960,000000	80,517700
2959,000000	76,045900
2958,000000	86,021500
2957,000000	93,485300
2956,000000	73,774700
2955,000000	83,104000
2954,000000	84,840100
2953,000000	82,292600
2952,000000	84,725100
2951,000000	88,664300
2950,000000	70,682800
2949,000000	86,631900
2948,000000	83,790900
2947,000000	83,153500
2946,000000	86,137100
2945,000000	86,012300
2944,000000	95,638700
2943,000000	88,836800
2942,000000	93,921800
2941,000000	90,294400
2940,000000	84,209700
2939,000000	93,379600
2938,000000	92,494600
2937,000000	84,036400
2936,000000	92,630600
2935,000000	92,297200
2934,000000	83,944300
2933,000000	95,636300
2932,000000	94,447000
2931,000000	87,895300
2930,000000	83,331500
2929,000000	79,773200
2928,000000	73,581000
2927,000000	86,963800
2926,000000	85,345800
2925,000000	86,813900
2924,000000	95,071200
2923,000000	89,749800
2922,000000	82,016400
2921,000000	83,007300
2920,000000	93,631800
2919,000000	91,438000
2918,000000	86,302700
2917,000000	98,919800
2916,000000	90,646500
2915,000000	82,000400
2914,000000	92,006900
2913,000000	90,325400
2912,000000	81,853300
2911,000000	91,935200
2910,000000	97,025800
2909,000000	89,065400
2908,000000	90,124200
2907,000000	95,141500
2906,000000	88,987600
2905,000000	96,577900
2904,000000	97,270200
2903,000000	88,936500
2902,000000	96,931500
2901,000000	101,711200
2900,000000	86,461900
2899,000000	90,299700
2898,000000	91,490700
2897,000000	87,517600
2896,000000	87,450300
2895,000000	95,003300
2894,000000	88,011300
2893,000000	85,403600
2892,000000	94,896700
2891,000000	100,595400
2890,000000	93,162600
2889,000000	90,908800
2888,000000	86,755300
2887,000000	88,750200
2886,000000	93,352900
2885,000000	100,202200
2884,000000	95,436900
2883,000000	93,265400
2882,000000	97,203700
2881,000000	95,038600
2880,000000	90,911100
2879,000000	96,284400
2878,000000	93,847300
2877,000000	86,075500
2876,000000	86,992300
2875,000000	85,825900
2874,000000	92,686200
2873,000000	101,143500
2872,000000	90,743000
2871,000000	84,888900
2870,000000	95,188800
2869,000000	102,604700
2868,000000	94,784600
2867,000000	91,780700
2866,000000	100,475300
2865,000000	93,712400
2864,000000	92,666400
2863,000000	100,871600
2862,000000	94,434300
2861,000000	92,312500
2860,000000	97,622400
2859,000000	94,482400
2858,000000	89,940900
2857,000000	90,970400
2856,000000	90,675500
2855,000000	92,735500
2854,000000	97,810900
2853,000000	92,384400
2852,000000	88,919400
2851,000000	92,281500
2850,000000	92,832000
2849,000000	93,914000
2848,000000	93,973200
2847,000000	93,528400
2846,000000	89,283700
2845,000000	91,526000
2844,000000	95,313000
2843,000000	93,376700
2842,000000	87,227800
2841,000000	94,628400
2840,000000	96,417700
2839,000000	92,687700
2838,000000	96,116600
2837,000000	96,496100
2836,000000	91,015800
2835,000000	92,480300
2834,000000	101,374400
2833,000000	96,138900
2832,000000	90,044800
2831,000000	96,248400
2830,000000	92,722500
2829,000000	91,977900
2828,000000	100,836000
2827,000000	98,778300
2826,000000	92,721500
2825,000000	100,521400
2824,000000	105,922500
2823,000000	96,648100
2822,000000	91,935800
2821,000000	95,182200
2820,000000	94,945900
2819,000000	101,367100
2818,000000	99,397600
2817,000000	95,065800
2816,000000	93,887600
2815,000000	95,869800
2814,000000	97,946600
2813,000000	90,827400
2812,000000	95,249100
2811,000000	103,039200
2810,000000	97,721800
2809,000000	96,182500
2808,000000	100,244600
2807,000000	100,428200
2806,000000	99,034100
2805,000000	100,774700
2804,000000	95,239000
2803,000000	101,573600
2802,000000	103,540300
2801,000000	89,027800
2800,000000	93,873400
2799,000000	101,679200
2798,000000	101,872800
2797,000000	86,471400
2796,000000	91,889300
2795,000000	97,716000
2794,000000	85,721000
2793,000000	97,466800
2792,000000	102,682600
2791,000000	92,477300
2790,000000	93,141000
2789,000000	105,446700
2788,000000	93,397200
2787,000000	96,848400
2786,000000	106,076800
2785,000000	90,251200
2784,000000	90,886400
2783,000000	101,200800
2782,000000	103,315400
2781,000000	89,230000
2780,000000	93,797300
2779,000000	96,908600
2778,000000	88,606400
2777,000000	96,499800
2776,000000	92,038100
2775,000000	86,294700
2774,000000	92,707500
2773,000000	102,048900
2772,000000	94,724000
2771,000000	83,124600
2770,000000	94,782500
2769,000000	94,740700
2768,000000	92,009300
2767,000000	99,004600
2766,000000	101,301000
2765,000000	101,510900
2764,000000	97,579900
2763,000000	99,697700
2762,000000	101,428100
2761,000000	95,785500
2760,000000	99,549100
2759,000000	97,015600
2758,000000	87,794700
2757,000000	100,387100
2756,000000	98,707000
2755,000000	89,763800
2754,000000	103,795600
2753,000000	93,470900
2752,000000	90,753300
2751,000000	103,652500
2750,000000	104,676700
2749,000000	94,828400
2748,000000	102,794100
2747,000000	101,614500
2746,000000	93,402800
2745,000000	99,742500
2744,000000	102,685600
2743,000000	92,502000
2742,000000	94,068000
2741,000000	92,885400
2740,000000	86,877000
2739,000000	82,417500
2738,000000	96,667500
2737,000000	98,473500
2736,000000	92,329400
2735,000000	100,001100
2734,000000	101,515500
2733,000000	89,811100
2732,000000	103,206700
2731,000000	101,383300
2730,000000	94,364500
2729,000000	98,559500
2728,000000	104,399800
2727,000000	88,449400
2726,000000	95,532900
2725,000000	101,490700
2724,000000	94,124200
2723,000000	98,726600
2722,000000	105,340900
2721,000000	94,809100
2720,000000	95,335300
2719,000000	102,299100
2718,000000	90,321100
2717,000000	93,564900
2716,000000	101,201400
2715,000000	91,996200
2714,000000	94,332900
2713,000000	94,725800
2712,000000	102,465600
2711,000000	92,363200
2710,000000	95,818400
2709,000000	99,099600
2708,000000	91,886300
2707,000000	102,133500
2706,000000	103,862300
2705,000000	94,193000
2704,000000	97,663100
2703,000000	102,527300
2702,000000	96,051400
2701,000000	90,604900
2700,000000	99,460900
2699,000000	96,042700
2698,000000	97,027500
2697,000000	97,515200
2696,000000	98,516400
2695,000000	89,901600
2694,000000	92,198200
2693,000000	102,348600
2692,000000	96,287000
2691,000000	95,960600
2690,000000	104,577600
2689,000000	93,034600
2688,000000	101,035700
2687,000000	110,758000
2686,000000	95,529000
2685,000000	91,333400
2684,000000	100,000600
2683,000000	98,228100
2682,000000	93,012500
2681,000000	102,437000
2680,000000	104,288100
2679,000000	96,770400
2678,000000	94,537000
2677,000000	94,639700
2676,000000	105,053000
2675,000000	94,702100
2674,000000	98,254600
2673,000000	106,312800
2672,000000	101,054900
2671,000000	97,280000
2670,000000	104,038800
2669,000000	92,169700
2668,000000	94,671500
2667,000000	107,959200
2666,000000	99,563200
2665,000000	95,193000
2664,000000	100,202200
2663,000000	102,821400
2662,000000	98,199800
2661,000000	101,147800
2660,000000	100,937700
2659,000000	100,547100
2658,000000	97,856300
2657,000000	105,527000
2656,000000	98,436200
2655,000000	101,526700
2654,000000	104,983400
2653,000000	97,901500
2652,000000	99,562700
2651,000000	99,922200
2650,000000	97,704400
2649,000000	90,563100
2648,000000	99,533200
2647,000000	100,563000
2646,000000	100,079200
2645,000000	102,615800
2644,000000	101,567600
2643,000000	98,297700
2642,000000	91,966500
2641,000000	93,834900
2640,000000	96,965700
2639,000000	100,397900
2638,000000	104,787100
2637,000000	98,120500
2636,000000	96,463200
2635,000000	97,749400
2634,000000	88,786400
2633,000000	93,732500
2632,000000	100,666200
2631,000000	97,713100
2630,000000	94,238900
2629,000000	98,572000
2628,000000	96,472000
2627,000000	99,655100
2626,000000	108,592500
2625,000000	99,399300
2624,000000	93,121300
2623,000000	101,576200
2622,000000	100,836400
2621,000000	97,075200
2620,000000	96,102100
2619,000000	95,391200
2618,000000	98,501100
2617,000000	105,100700
2616,000000	96,537200
2615,000000	98,788600
2614,000000	104,019900
2613,000000	100,953500
2612,000000	97,566800
2611,000000	101,071400
2610,000000	101,181700
2609,000000	94,378700
2608,000000	100,607400
2607,000000	105,225700
2606,000000	95,499500
2605,000000	100,281700
2604,000000	106,978300
2603,000000	96,264700
2602,000000	95,368700
2601,000000	98,502100
2600,000000	95,675900
2599,000000	96,428200
2598,000000	97,782200
2597,000000	94,781900
2596,000000	93,944000
2595,000000	99,375000
2594,000000	98,999200
2593,000000	94,809600
2592,000000	99,713700
2591,000000	97,099300
2590,000000	93,519400
2589,000000	98,058700
2588,000000	93,783400
2587,000000	91,223300
2586,000000	97,823800
2585,000000	96,839000
2584,000000	92,053500
2583,000000	93,106900
2582,000000	96,753500
2581,000000	94,629600
2580,000000	95,071900
2579,000000	91,393400
2578,000000	85,017900
2577,000000	93,277600
2576,000000	101,891500
2575,000000	90,913800
2574,000000	94,940000
2573,000000	102,153200
2572,000000	92,996700
2571,000000	87,951800
2570,000000	98,359400
2569,000000	91,975100
2568,000000	87,676200
2567,000000	97,109600
2566,000000	94,438700
2565,000000	89,151800
2564,000000	94,962700
2563,000000	88,033100
2562,000000	86,196600
2561,000000	95,950800
2560,000000	98,100600
2559,000000	90,169300
2558,000000	88,112700
2557,000000	94,609200
2556,000000	85,933100
2555,000000	88,696100
2554,000000	86,967600
2553,000000	79,242600
2552,000000	88,932900
2551,000000	89,248500
2550,000000	87,630400
2549,000000	86,802100
2548,000000	86,452400
2547,000000	82,808200
2546,000000	84,666300
2545,000000	88,077900
2544,000000	80,328600
2543,000000	81,119500
2542,000000	85,524900
2541,000000	80,004200
2540,000000	81,447600
2539,000000	85,112300
2538,000000	78,561800
2537,000000	81,851400
2536,000000	80,481200
2535,000000	75,005100
2534,000000	74,437900
2533,000000	82,334300
2532,000000	73,853500
2531,000000	74,322900
2530,000000	75,549900
2529,000000	74,355300
2528,000000	74,775300
2527,000000	73,441900
2526,000000	68,042200
2525,000000	66,666500
2524,000000	75,829100
2523,000000	70,026300
2522,000000	65,947000
2521,000000	67,129100
2520,000000	68,328700
2519,000000	62,052900
2518,000000	65,758600
2517,000000	61,559700
2516,000000	64,309500
2515,000000	61,475000
2514,000000	61,230700
2513,000000	54,442400
2512,000000	61,658800
2511,000000	62,320800
2510,000000	56,659000
2509,000000	58,121300
2508,000000	61,911700
2507,000000	59,668500
2506,000000	52,587500
2505,000000	55,399900
2504,000000	54,537500
2503,000000	53,349700
2502,000000	54,577300
2501,000000	51,439100
2500,000000	45,286500
2499,000000	51,803200
2498,000000	54,158900
2497,000000	45,687600
2496,000000	46,112900
2495,000000	46,242200
2494,000000	44,883700
2493,000000	44,787300
2492,000000	47,636400
2491,000000	43,429300
2490,000000	44,724500
2489,000000	46,088100
2488,000000	40,554300
2487,000000	41,025700
2486,000000	42,335700
2485,000000	40,238000
2484,000000	39,390100
2483,000000	39,416000
2482,000000	38,572700
2481,000000	34,881800
2480,000000	36,324400
2479,000000	36,844900
2478,000000	37,044700
2477,000000	35,965200
2476,000000	35,354800
2475,000000	33,387400
2474,000000	33,775100
2473,000000	34,415700
2472,000000	33,661100
2471,000000	34,254000
2470,000000	33,137100
2469,000000	35,121600
2468,000000	31,688000
2467,000000	33,699800
2466,000000	31,874600
2465,000000	30,905500
2464,000000	31,743600
2463,000000	32,238200
2462,000000	28,940500
2461,000000	30,607000
2460,000000	30,281700
2459,000000	28,404100
2458,000000	30,465100
2457,000000	29,526000
2456,000000	27,743000
2455,000000	29,307100
2454,000000	27,959600
2453,000000	27,464200
2452,000000	29,201000
2451,000000	27,440200
2450,000000	27,385200
2449,000000	28,372600
2448,000000	28,094200
2447,000000	28,541500
2446,000000	27,556700
2445,000000	27,987600
2444,000000	26,740600
2443,000000	27,289500
2442,000000	28,055900
2441,000000	27,729800
2440,000000	27,928900
2439,000000	28,761200
2438,000000	28,028700
2437,000000	28,300900
2436,000000	27,911500
2435,000000	27,631500
2434,000000	26,612800
2433,000000	28,131800
2432,000000	27,223400
2431,000000	27,150900
2430,000000	28,101500
2429,000000	27,767300
2428,000000	27,934300
2427,000000	28,653800
2426,000000	28,128900
2425,000000	27,031500
2424,000000	27,679400
2423,000000	28,562500
2422,000000	27,632600
2421,000000	28,526500
2420,000000	27,809000
2419,000000	28,037100
2418,000000	28,605200
2417,000000	27,773500
2416,000000	27,964200
2415,000000	27,959500
2414,000000	28,069500
2413,000000	26,981900
2412,000000	27,812300
2411,000000	28,621100
2410,000000	28,284300
2409,000000	27,765400
2408,000000	28,358400
2407,000000	27,612700
2406,000000	27,988900
2405,000000	28,471400
2404,000000	28,201200
2403,000000	27,529900
2402,000000	27,956900
2401,000000	27,737300
2400,000000	27,349700
2399,000000	27,495000
2398,000000	27,215900
2397,000000	27,537500
2396,000000	27,435800
2395,000000	27,558600
2394,000000	27,358400
2393,000000	27,400000
2392,000000	27,493300
2391,000000	26,595400
2390,000000	27,068100
2389,000000	27,501400
2388,000000	27,597200
2387,000000	27,322100
2386,000000	26,987300
2385,000000	26,358500
2384,000000	26,807700
2383,000000	27,276800
2382,000000	27,022900
2381,000000	27,118300
2380,000000	27,088700
2379,000000	27,105500
2378,000000	26,838800
2377,000000	27,170000
2376,000000	26,633000
2375,000000	26,166200
2374,000000	26,105100
2373,000000	25,776100
2372,000000	25,624700
2371,000000	26,392800
2370,000000	26,252100
2369,000000	26,229800
2368,000000	26,724500
2367,000000	27,027000
2366,000000	26,523000
2365,000000	26,018300
2364,000000	25,877500
2363,000000	25,435100
2362,000000	25,290500
2361,000000	25,453900
2360,000000	25,656500
2359,000000	25,848600
2358,000000	25,367200
2357,000000	25,326700
2356,000000	26,021400
2355,000000	26,151600
2354,000000	25,618700
2353,000000	25,907600
2352,000000	25,371000
2351,000000	24,845100
2350,000000	25,728900
2349,000000	25,955000
2348,000000	25,214400
2347,000000	25,031300
2346,000000	24,955300
2345,000000	24,934900
2344,000000	24,941300
2343,000000	25,101700
2342,000000	25,352700
2341,000000	25,115600
2340,000000	24,899200
2339,000000	24,716300
2338,000000	24,556400
2337,000000	24,672600
2336,000000	24,520800
2335,000000	24,401100
2334,000000	24,489400
2333,000000	24,022700
2332,000000	23,725300
2331,000000	24,221600
2330,000000	24,388300
2329,000000	24,603000
2328,000000	24,698800
2327,000000	24,301300
2326,000000	24,258200
2325,000000	24,590900
2324,000000	24,114500
2323,000000	23,984500
2322,000000	24,642400
2321,000000	24,287400
2320,000000	24,250300
2319,000000	24,665900
2318,000000	24,288800
2317,000000	24,020600
2316,000000	24,217100
2315,000000	24,087300
2314,000000	23,826000
2313,000000	23,705100
2312,000000	23,612800
2311,000000	23,451000
2310,000000	23,700400
2309,000000	23,698200
2308,000000	23,701900
2307,000000	23,783000
2306,000000	23,920100
2305,000000	23,377800
2304,000000	23,467700
2303,000000	23,667300
2302,000000	23,209300
2301,000000	22,995800
2300,000000	23,321300
2299,000000	23,309500
2298,000000	23,092600
2297,000000	23,099900
2296,000000	23,187900
2295,000000	23,345800
2294,000000	23,138500
2293,000000	23,361900
2292,000000	23,549400
2291,000000	23,489100
2290,000000	23,480500
2289,000000	23,237200
2288,000000	23,642600
2287,000000	23,365900
2286,000000	23,239600
2285,000000	23,659800
2284,000000	23,385300
2283,000000	23,225500
2282,000000	23,399700
2281,000000	23,126800
2280,000000	23,013900
2279,000000	23,090300
2278,000000	23,451200
2277,000000	23,651200
2276,000000	23,930100
2275,000000	23,798300
2274,000000	23,703200
2273,000000	23,636800
2272,000000	23,745900
2271,000000	23,464400
2270,000000	23,789400
2269,000000	23,846000
2268,000000	23,756100
2267,000000	24,156900
2266,000000	24,211300
2265,000000	23,694400
2264,000000	23,851800
2263,000000	24,177700
2262,000000	24,192900
2261,000000	24,333000
2260,000000	24,260400
2259,000000	24,324600
2258,000000	24,639200
2257,000000	24,598200
2256,000000	24,508000
2255,000000	24,614100
2254,000000	24,943600
2253,000000	25,206700
2252,000000	25,488900
2251,000000	25,473000
2250,000000	25,513400
2249,000000	25,523200
2248,000000	26,265400
2247,000000	26,341900
2246,000000	26,279900
2245,000000	26,719900
2244,000000	26,641700
2243,000000	26,817900
2242,000000	26,679400
2241,000000	26,751300
2240,000000	26,690600
2239,000000	27,173000
2238,000000	27,139400
2237,000000	27,189900
2236,000000	27,578700
2235,000000	27,541200
2234,000000	27,651800
2233,000000	27,521800
2232,000000	27,613400
2231,000000	27,457700
2230,000000	27,695500
2229,000000	27,653100
2228,000000	27,494700
2227,000000	27,426200
2226,000000	27,909700
2225,000000	27,722200
2224,000000	27,762900
2223,000000	27,999000
2222,000000	27,716400
2221,000000	27,819800
2220,000000	27,773500
2219,000000	27,785300
2218,000000	27,903100
2217,000000	27,766900
2216,000000	27,409700
2215,000000	27,353100
2214,000000	28,010100
2213,000000	27,735300
2212,000000	27,473700
2211,000000	27,611700
2210,000000	27,579900
2209,000000	27,388600
2208,000000	27,781200
2207,000000	27,418700
2206,000000	27,073700
2205,000000	27,354500
2204,000000	27,135400
2203,000000	27,288200
2202,000000	27,408000
2201,000000	27,394100
2200,000000	26,952800
2199,000000	27,452100
2198,000000	26,648800
2197,000000	26,889900
2196,000000	26,914000
2195,000000	26,774400
2194,000000	26,393800
2193,000000	26,938900
2192,000000	26,902300
2191,000000	26,442000
2190,000000	26,641700
2189,000000	26,463900
2188,000000	26,702200
2187,000000	26,756300
2186,000000	26,796300
2185,000000	26,467600
2184,000000	26,648200
2183,000000	26,571600
2182,000000	26,476800
2181,000000	26,561300
2180,000000	26,573200
2179,000000	26,269800
2178,000000	26,213700
2177,000000	26,629700
2176,000000	26,393600
2175,000000	26,376400
2174,000000	26,592100
2173,000000	26,645900
2172,000000	26,447300
2171,000000	26,937900
2170,000000	26,539500
2169,000000	26,279800
2168,000000	26,719700
2167,000000	26,711000
2166,000000	26,670100
2165,000000	26,809600
2164,000000	26,908500
2163,000000	26,869000
2162,000000	26,822300
2161,000000	26,879200
2160,000000	27,051200
2159,000000	27,137700
2158,000000	27,189100
2157,000000	26,953800
2156,000000	27,169300
2155,000000	27,440100
2154,000000	27,331800
2153,000000	27,795000
2152,000000	27,854800
2151,000000	27,548700
2150,000000	27,787500
2149,000000	28,101500
2148,000000	28,283200
2147,000000	28,401000
2146,000000	28,653000
2145,000000	28,461800
2144,000000	28,623200
2143,000000	28,564900
2142,000000	28,436800
2141,000000	28,712300
2140,000000	28,624100
2139,000000	28,672500
2138,000000	29,089500
2137,000000	28,825600
2136,000000	29,054100
2135,000000	29,280700
2134,000000	29,343800
2133,000000	29,556300
2132,000000	29,720000
2131,000000	29,662800
2130,000000	29,618000
2129,000000	29,742200
2128,000000	30,065900
2127,000000	30,055700
2126,000000	30,177200
2125,000000	30,327500
2124,000000	29,852600
2123,000000	30,099400
2122,000000	30,498800
2121,000000	30,419500
2120,000000	30,385300
2119,000000	30,776400
2118,000000	30,820700
2117,000000	30,883300
2116,000000	31,050200
2115,000000	30,760300
2114,000000	30,853800
2113,000000	31,006900
2112,000000	30,966100
2111,000000	30,870400
2110,000000	31,123600
2109,000000	31,185500
2108,000000	31,032900
2107,000000	31,244100
2106,000000	31,120900
2105,000000	30,924900
2104,000000	31,088700
2103,000000	30,990200
2102,000000	30,764400
2101,000000	31,006200
2100,000000	31,170300
2099,000000	31,243900
2098,000000	31,211400
2097,000000	31,109000
2096,000000	31,210700
2095,000000	31,359300
2094,000000	31,336300
2093,000000	31,241700
2092,000000	31,217000
2091,000000	31,188800
2090,000000	31,053200
2089,000000	31,252800
2088,000000	31,305400
2087,000000	31,086000
2086,000000	31,075600
2085,000000	31,119200
2084,000000	30,844200
2083,000000	30,902700
2082,000000	31,028900
2081,000000	30,884600
2080,000000	30,977500
2079,000000	30,953100
2078,000000	30,741600
2077,000000	30,746300
2076,000000	30,710700
2075,000000	30,415100
2074,000000	30,300500
2073,000000	30,433500
2072,000000	30,236900
2071,000000	30,045100
2070,000000	30,225800
2069,000000	30,177300
2068,000000	29,846500
2067,000000	29,800700
2066,000000	29,834900
2065,000000	29,557600
2064,000000	29,496500
2063,000000	29,477400
2062,000000	29,316700
2061,000000	29,291600
2060,000000	29,289100
2059,000000	29,158200
2058,000000	29,043100
2057,000000	29,102300
2056,000000	29,229900
2055,000000	29,163500
2054,000000	28,942900
2053,000000	29,018400
2052,000000	29,171200
2051,000000	29,131600
2050,000000	29,174700
2049,000000	29,291200
2048,000000	29,390200
2047,000000	29,492900
2046,000000	29,632000
2045,000000	29,654700
2044,000000	29,764800
2043,000000	30,000600
2042,000000	30,170000
2041,000000	30,188000
2040,000000	30,306300
2039,000000	30,546500
2038,000000	30,651000
2037,000000	30,863200
2036,000000	30,961100
2035,000000	31,034900
2034,000000	31,260500
2033,000000	31,477700
2032,000000	31,514500
2031,000000	31,682900
2030,000000	31,785200
2029,000000	31,767200
2028,000000	31,958600
2027,000000	32,094100
2026,000000	32,118100
2025,000000	32,218800
2024,000000	32,472400
2023,000000	32,518400
2022,000000	32,533000
2021,000000	32,594300
2020,000000	32,618500
2019,000000	32,692500
2018,000000	32,802200
2017,000000	32,788800
2016,000000	32,921700
2015,000000	32,875700
2014,000000	32,870900
2013,000000	32,856000
2012,000000	32,942100
2011,000000	32,941600
2010,000000	33,032100
2009,000000	33,008900
2008,000000	32,940600
2007,000000	32,859200
2006,000000	32,901500
2005,000000	32,800500
2004,000000	32,781100
2003,000000	32,762900
2002,000000	32,705300
2001,000000	32,694400
2000,000000	32,709300
1999,000000	32,502000
1998,000000	32,496300
1997,000000	32,463200
1996,000000	32,358300
1995,000000	32,302200
1994,000000	32,254500
1993,000000	32,206000
1992,000000	32,077500
1991,000000	32,061800
1990,000000	31,947900
1989,000000	31,826200
1988,000000	31,741800
1987,000000	31,714100
1986,000000	31,607200
1985,000000	31,503000
1984,000000	31,412000
1983,000000	31,253500
1982,000000	31,278300
1981,000000	31,100200
1980,000000	30,965100
1979,000000	30,978600
1978,000000	30,873700
1977,000000	30,693400
1976,000000	30,662500
1975,000000	30,523100
1974,000000	30,259300
1973,000000	30,181800
1972,000000	30,113200
1971,000000	29,987400
1970,000000	29,987800
1969,000000	29,874700
1968,000000	29,730800
1967,000000	29,647500
1966,000000	29,512400
1965,000000	29,342500
1964,000000	29,233200
1963,000000	29,167500
1962,000000	29,012700
1961,000000	28,950300
1960,000000	28,855200
1959,000000	28,712300
1958,000000	28,616900
1957,000000	28,544500
1956,000000	28,430200
1955,000000	28,364000
1954,000000	28,307700
1953,000000	28,264400
1952,000000	28,227200
1951,000000	28,057200
1950,000000	27,959600
1949,000000	27,917100
1948,000000	27,820200
1947,000000	27,721300
1946,000000	27,686900
1945,000000	27,715200
1944,000000	27,562400
1943,000000	27,477300
1942,000000	27,603200
1941,000000	27,459300
1940,000000	27,336000
1939,000000	27,394000
1938,000000	27,390700
1937,000000	27,525600
1936,000000	27,525300
1935,000000	27,461400
1934,000000	27,472000
1933,000000	27,542400
1932,000000	27,544400
1931,000000	27,568000
1930,000000	27,649100
1929,000000	27,688400
1928,000000	27,705300
1927,000000	27,995200
1926,000000	27,940800
1925,000000	28,115800
1924,000000	28,227800
1923,000000	28,318900
1922,000000	28,372600
1921,000000	28,707100
1920,000000	28,835800
1919,000000	29,063000
1918,000000	29,294800
1917,000000	29,395500
1916,000000	29,706600
1915,000000	30,115800
1914,000000	30,340900
1913,000000	30,626500
1912,000000	30,975200
1911,000000	31,156800
1910,000000	31,577900
1909,000000	31,980100
1908,000000	32,398400
1907,000000	32,791200
1906,000000	33,319500
1905,000000	33,689700
1904,000000	34,123200
1903,000000	34,708400
1902,000000	35,154400
1901,000000	35,635500
1900,000000	36,170600
1899,000000	36,831100
1898,000000	37,199000
1897,000000	37,726100
1896,000000	38,276300
1895,000000	38,848800
1894,000000	39,395800
1893,000000	39,794900
1892,000000	40,200400
1891,000000	40,685200
1890,000000	41,146300
1889,000000	41,500200
1888,000000	41,949800
1887,000000	42,298000
1886,000000	42,560100
1885,000000	43,024500
1884,000000	43,426800
1883,000000	43,706300
1882,000000	44,079200
1881,000000	44,379400
1880,000000	44,582100
1879,000000	44,914700
1878,000000	45,330100
1877,000000	45,585700
1876,000000	45,911100
1875,000000	46,147300
1874,000000	46,359800
1873,000000	46,632700
1872,000000	46,965700
1871,000000	47,098400
1870,000000	47,329700
1869,000000	47,604900
1868,000000	47,706400
1867,000000	47,980000
1866,000000	48,033000
1865,000000	48,076600
1864,000000	48,226100
1863,000000	48,389100
1862,000000	48,398600
1861,000000	48,489400
1860,000000	48,575800
1859,000000	48,608600
1858,000000	48,603900
1857,000000	48,645200
1856,000000	48,592200
1855,000000	48,606000
1854,000000	48,657700
1853,000000	48,609100
1852,000000	48,551100
1851,000000	48,565500
1850,000000	48,546000
1849,000000	48,557600
1848,000000	48,641200
1847,000000	48,616000
1846,000000	48,543600
1845,000000	48,603700
1844,000000	48,566600
1843,000000	48,548300
1842,000000	48,552100
1841,000000	48,502000
1840,000000	48,403500
1839,000000	48,426100
1838,000000	48,369600
1837,000000	48,293000
1836,000000	48,286200
1835,000000	48,279500
1834,000000	48,218400
1833,000000	48,165200
1832,000000	48,151400
1831,000000	48,098100
1830,000000	48,058200
1829,000000	47,989700
1828,000000	47,964400
1827,000000	47,970900
1826,000000	47,899600
1825,000000	47,854800
1824,000000	47,875700
1823,000000	47,830600
1822,000000	47,755100
1821,000000	47,750900
1820,000000	47,713200
1819,000000	47,649200
1818,000000	47,627100
1817,000000	47,593800
1816,000000	47,533100
1815,000000	47,534400
1814,000000	47,532000
1813,000000	47,463200
1812,000000	47,447200
1811,000000	47,430500
1810,000000	47,393200
1809,000000	47,366800
1808,000000	47,313900
1807,000000	47,272100
1806,000000	47,261900
1805,000000	47,228100
1804,000000	47,171000
1803,000000	47,152000
1802,000000	47,129000
1801,000000	47,086100
1800,000000	47,065400
1799,000000	47,059100
1798,000000	47,003500
1797,000000	46,948700
1796,000000	46,954400
1795,000000	46,935300
1794,000000	46,902800
1793,000000	46,878300
1792,000000	46,837000
1791,000000	46,808100
1790,000000	46,798600
1789,000000	46,774200
1788,000000	46,759900
1787,000000	46,736500
1786,000000	46,703100
1785,000000	46,688200
1784,000000	46,671700
1783,000000	46,622300
1782,000000	46,553000
1781,000000	46,525500
1780,000000	46,464900
1779,000000	46,401300
1778,000000	46,379500
1777,000000	46,317200
1776,000000	46,238400
1775,000000	46,193700
1774,000000	46,139300
1773,000000	46,045800
1772,000000	45,972500
1771,000000	45,920600
1770,000000	45,842600
1769,000000	45,796400
1768,000000	45,725200
1767,000000	45,621700
1766,000000	45,563800
1765,000000	45,497000
1764,000000	45,444800
1763,000000	45,403900
1762,000000	45,314800
1761,000000	45,236300
1760,000000	45,206500
1759,000000	45,185400
1758,000000	45,125200
1757,000000	45,102600
1756,000000	45,059400
1755,000000	45,016900
1754,000000	45,019600
1753,000000	44,954500
1752,000000	44,878300
1751,000000	44,853000
1750,000000	44,814500
1749,000000	44,756500
1748,000000	44,710300
1747,000000	44,627000
1746,000000	44,526100
1745,000000	44,471600
1744,000000	44,396200
1743,000000	44,290600
1742,000000	44,205700
1741,000000	44,090700
1740,000000	43,925300
1739,000000	43,837700
1738,000000	43,748300
1737,000000	43,590200
1736,000000	43,500700
1735,000000	43,410600
1734,000000	43,236400
1733,000000	43,191200
1732,000000	43,119400
1731,000000	43,010000
1730,000000	42,968400
1729,000000	42,947700
1728,000000	42,873100
1727,000000	42,842700
1726,000000	42,875500
1725,000000	42,872200
1724,000000	42,890200
1723,000000	42,937500
1722,000000	43,003600
1721,000000	43,046000
1720,000000	43,148400
1719,000000	43,238500
1718,000000	43,366500
1717,000000	43,486300
1716,000000	43,598100
1715,000000	43,738000
1714,000000	43,911400
1713,000000	44,051300
1712,000000	44,203700
1711,000000	44,356000
1710,000000	44,472100
1709,000000	44,628300
1708,000000	44,820700
1707,000000	44,907600
1706,000000	45,052200
1705,000000	45,197700
1704,000000	45,275700
1703,000000	45,354500
1702,000000	45,458900
1701,000000	45,547100
1700,000000	45,621000
1699,000000	45,686300
1698,000000	45,752200
1697,000000	45,770700
1696,000000	45,813100
1695,000000	45,850300
1694,000000	45,874500
1693,000000	45,909200
1692,000000	45,944100
1691,000000	45,967400
1690,000000	46,081400
1689,000000	46,088700
1688,000000	46,146200
1687,000000	46,237300
1686,000000	46,307200
1685,000000	46,366900
1684,000000	46,489500
1683,000000	46,596200
1682,000000	46,671700
1681,000000	46,818000
1680,000000	46,979600
1679,000000	47,056300
1678,000000	47,211200
1677,000000	47,386600
1676,000000	47,506400
1675,000000	47,624000
1674,000000	47,806900
1673,000000	47,924800
1672,000000	48,076800
1671,000000	48,275200
1670,000000	48,334700
1669,000000	48,516500
1668,000000	48,672200
1667,000000	48,842600
1666,000000	48,957200
1665,000000	49,121000
1664,000000	49,253600
1663,000000	49,415700
1662,000000	49,578700
1661,000000	49,729200
1660,000000	49,858900
1659,000000	50,053900
1658,000000	50,223000
1657,000000	50,370300
1656,000000	50,538100
1655,000000	50,707900
1654,000000	50,829200
1653,000000	50,992600
1652,000000	51,129600
1651,000000	51,234100
1650,000000	51,390000
1649,000000	51,530300
1648,000000	51,608500
1647,000000	51,748800
1646,000000	51,836900
1645,000000	51,884000
1644,000000	52,000900
1643,000000	52,053700
1642,000000	52,082800
1641,000000	52,168500
1640,000000	52,270200
1639,000000	52,262800
1638,000000	52,307100
1637,000000	52,350800
1636,000000	52,356700
1635,000000	52,359900
1634,000000	52,339100
1633,000000	52,337000
1632,000000	52,364600
1631,000000	52,380800
1630,000000	52,367500
1629,000000	52,367100
1628,000000	52,357200
1627,000000	52,292800
1626,000000	52,305000
1625,000000	52,305300
1624,000000	52,231700
1623,000000	52,232500
1622,000000	52,232000
1621,000000	52,156100
1620,000000	52,128400
1619,000000	52,115900
1618,000000	52,083400
1617,000000	52,071700
1616,000000	52,049200
1615,000000	51,981900
1614,000000	51,973700
1613,000000	51,967400
1612,000000	51,929300
1611,000000	51,857800
1610,000000	51,832200
1609,000000	51,770800
1608,000000	51,740600
1607,000000	51,701700
1606,000000	51,619100
1605,000000	51,579100
1604,000000	51,554100
1603,000000	51,464500
1602,000000	51,406600
1601,000000	51,360800
1600,000000	51,284500
1599,000000	51,253200
1598,000000	51,206100
1597,000000	51,134700
1596,000000	51,054000
1595,000000	50,998800
1594,000000	50,905800
1593,000000	50,856900
1592,000000	50,809800
1591,000000	50,734100
1590,000000	50,703700
1589,000000	50,676900
1588,000000	50,631500
1587,000000	50,586100
1586,000000	50,557300
1585,000000	50,497500
1584,000000	50,492100
1583,000000	50,450800
1582,000000	50,387600
1581,000000	50,369700
1580,000000	50,375000
1579,000000	50,346600
1578,000000	50,325900
1577,000000	50,312800
1576,000000	50,297600
1575,000000	50,287700
1574,000000	50,264300
1573,000000	50,232600
1572,000000	50,265500
1571,000000	50,294700
1570,000000	50,291800
1569,000000	50,290900
1568,000000	50,304400
1567,000000	50,303300
1566,000000	50,303800
1565,000000	50,312900
1564,000000	50,294600
1563,000000	50,296100
1562,000000	50,314000
1561,000000	50,294700
1560,000000	50,278000
1559,000000	50,261800
1558,000000	50,233700
1557,000000	50,221700
1556,000000	50,208700
1555,000000	50,162100
1554,000000	50,117900
1553,000000	50,092900
1552,000000	50,044400
1551,000000	49,988000
1550,000000	49,930300
1549,000000	49,871200
1548,000000	49,817400
1547,000000	49,771800
1546,000000	49,705400
1545,000000	49,644300
1544,000000	49,595600
1543,000000	49,521200
1542,000000	49,470600
1541,000000	49,438000
1540,000000	49,392100
1539,000000	49,326300
1538,000000	49,267900
1537,000000	49,220500
1536,000000	49,181400
1535,000000	49,145800
1534,000000	49,085100
1533,000000	49,035200
1532,000000	49,000000
1531,000000	48,942800
1530,000000	48,885900
1529,000000	48,854600
1528,000000	48,809900
1527,000000	48,766500
1526,000000	48,722700
1525,000000	48,674100
1524,000000	48,630300
1523,000000	48,580000
1522,000000	48,513800
1521,000000	48,447600
1520,000000	48,404600
1519,000000	48,359000
1518,000000	48,290400
1517,000000	48,221800
1516,000000	48,163200
1515,000000	48,113600
1514,000000	48,056000
1513,000000	47,984900
1512,000000	47,926600
1511,000000	47,893800
1510,000000	47,839300
1509,000000	47,781200
1508,000000	47,759700
1507,000000	47,710000
1506,000000	47,631700
1505,000000	47,582500
1504,000000	47,525900
1503,000000	47,483600
1502,000000	47,473400
1501,000000	47,442400
1500,000000	47,423000
1499,000000	47,409400
1498,000000	47,393800
1497,000000	47,376200
1496,000000	47,378100
1495,000000	47,356300
1494,000000	47,337500
1493,000000	47,383400
1492,000000	47,392400
1491,000000	47,400000
1490,000000	47,430500
1489,000000	47,434700
1488,000000	47,442700
1487,000000	47,487100
1486,000000	47,518400
1485,000000	47,541900
1484,000000	47,597700
1483,000000	47,634600
1482,000000	47,655200
1481,000000	47,718700
1480,000000	47,745000
1479,000000	47,793100
1478,000000	47,874400
1477,000000	47,938400
1476,000000	47,989200
1475,000000	48,050100
1474,000000	48,119500
1473,000000	48,169100
1472,000000	48,260200
1471,000000	48,312900
1470,000000	48,376000
1469,000000	48,482700
1468,000000	48,554200
1467,000000	48,603200
1466,000000	48,700200
1465,000000	48,780000
1464,000000	48,860900
1463,000000	48,959300
1462,000000	49,032200
1461,000000	49,112400
1460,000000	49,211500
1459,000000	49,294800
1458,000000	49,344700
1457,000000	49,449700
1456,000000	49,531900
1455,000000	49,611900
1454,000000	49,714600
1453,000000	49,795000
1452,000000	49,876000
1451,000000	49,975300
1450,000000	50,068600
1449,000000	50,155100
1448,000000	50,283500
1447,000000	50,386900
1446,000000	50,460000
1445,000000	50,587200
1444,000000	50,698900
1443,000000	50,774000
1442,000000	50,915400
1441,000000	51,017200
1440,000000	51,124700
1439,000000	51,262300
1438,000000	51,398300
1437,000000	51,474800
1436,000000	51,609600
1435,000000	51,738100
1434,000000	51,865300
1433,000000	52,031200
1432,000000	52,179300
1431,000000	52,299900
1430,000000	52,467300
1429,000000	52,612000
1428,000000	52,780900
1427,000000	52,976600
1426,000000	53,153700
1425,000000	53,309200
1424,000000	53,513000
1423,000000	53,715800
1422,000000	53,908300
1421,000000	54,136300
1420,000000	54,376400
1419,000000	54,584100
1418,000000	54,822100
1417,000000	55,072400
1416,000000	55,339800
1415,000000	55,626700
1414,000000	55,871700
1413,000000	56,146200
1412,000000	56,436700
1411,000000	56,723900
1410,000000	57,003300
1409,000000	57,331500
1408,000000	57,618800
1407,000000	57,946900
1406,000000	58,276300
1405,000000	58,593100
1404,000000	58,886900
1403,000000	59,202800
1402,000000	59,481100
1401,000000	59,780800
1400,000000	60,086700
1399,000000	60,353100
1398,000000	60,597500
1397,000000	60,934100
1396,000000	61,187600
1395,000000	61,438900
1394,000000	61,737800
1393,000000	61,970900
1392,000000	62,230600
1391,000000	62,502800
1390,000000	62,769300
1389,000000	62,951500
1388,000000	63,239700
1387,000000	63,457500
1386,000000	63,642300
1385,000000	63,869500
1384,000000	64,048900
1383,000000	64,257400
1382,000000	64,495500
1381,000000	64,646500
1380,000000	64,834200
1379,000000	65,043200
1378,000000	65,209100
1377,000000	65,381400
1376,000000	65,550200
1375,000000	65,698700
1374,000000	65,850600
1373,000000	66,020200
1372,000000	66,140300
1371,000000	66,240200
1370,000000	66,414700
1369,000000	66,526800
1368,000000	66,641300
1367,000000	66,772300
1366,000000	66,874700
1365,000000	66,980600
1364,000000	67,107400
1363,000000	67,241000
1362,000000	67,366800
1361,000000	67,510300
1360,000000	67,631300
1359,000000	67,753800
1358,000000	67,919200
1357,000000	68,045700
1356,000000	68,146000
1355,000000	68,309200
1354,000000	68,414900
1353,000000	68,545500
1352,000000	68,689500
1351,000000	68,801000
1350,000000	68,909200
1349,000000	69,053400
1348,000000	69,154100
1347,000000	69,278800
1346,000000	69,442300
1345,000000	69,549300
1344,000000	69,653900
1343,000000	69,772600
1342,000000	69,878300
1341,000000	69,994900
1340,000000	70,127100
1339,000000	70,209900
1338,000000	70,307300
1337,000000	70,423300
1336,000000	70,529400
1335,000000	70,615300
1334,000000	70,704100
1333,000000	70,775900
1332,000000	70,875500
1331,000000	70,968800
1330,000000	71,038300
1329,000000	71,118400
1328,000000	71,189200
1327,000000	71,238400
1326,000000	71,296600
1325,000000	71,363000
1324,000000	71,422000
1323,000000	71,473200
1322,000000	71,520000
1321,000000	71,555200
1320,000000	71,600900
1319,000000	71,633600
1318,000000	71,673000
1317,000000	71,708200
1316,000000	71,720600
1315,000000	71,728400
1314,000000	71,757400
1313,000000	71,799500
1312,000000	71,804300
1311,000000	71,823000
1310,000000	71,846300
1309,000000	71,854200
1308,000000	71,862400
1307,000000	71,875700
1306,000000	71,873800
1305,000000	71,889800
1304,000000	71,896100
1303,000000	71,884200
1302,000000	71,872000
1301,000000	71,870500
1300,000000	71,851500
1299,000000	71,842500
1298,000000	71,863800
1297,000000	71,850200
1296,000000	71,836900
1295,000000	71,821700
1294,000000	71,804100
1293,000000	71,777100
1292,000000	71,766800
1291,000000	71,739200
1290,000000	71,723300
1289,000000	71,708700
1288,000000	71,674800
1287,000000	71,655000
1286,000000	71,637900
1285,000000	71,607900
1284,000000	71,589900
1283,000000	71,573500
1282,000000	71,534500
1281,000000	71,511700
1280,000000	71,505300
1279,000000	71,481700
1278,000000	71,468100
1277,000000	71,443800
1276,000000	71,402300
1275,000000	71,399500
1274,000000	71,397400
1273,000000	71,359400
1272,000000	71,330400
1271,000000	71,312700
1270,000000	71,297000
1269,000000	71,288800
1268,000000	71,282500
1267,000000	71,264700
1266,000000	71,246100
1265,000000	71,219700
1264,000000	71,206700
1263,000000	71,213300
1262,000000	71,192800
1261,000000	71,155600
1260,000000	71,143200
1259,000000	71,118300
1258,000000	71,086200
1257,000000	71,057600
1256,000000	71,036800
1255,000000	71,006900
1254,000000	70,978200
1253,000000	70,944700
1252,000000	70,899900
1251,000000	70,876900
1250,000000	70,831100
1249,000000	70,764200
1248,000000	70,724300
1247,000000	70,666300
1246,000000	70,613900
1245,000000	70,584000
1244,000000	70,522500
1243,000000	70,456800
1242,000000	70,401000
1241,000000	70,340000
1240,000000	70,279300
1239,000000	70,224700
1238,000000	70,148000
1237,000000	70,058100
1236,000000	70,007100
1235,000000	69,941500
1234,000000	69,861500
1233,000000	69,794500
1232,000000	69,710800
1231,000000	69,640900
1230,000000	69,565300
1229,000000	69,485100
1228,000000	69,387500
1227,000000	69,310400
1226,000000	69,220700
1225,000000	69,106700
1224,000000	69,009400
1223,000000	68,912900
1222,000000	68,817600
1221,000000	68,751000
1220,000000	68,661200
1219,000000	68,542700
1218,000000	68,461400
1217,000000	68,358300
1216,000000	68,265400
1215,000000	68,201700
1214,000000	68,119300
1213,000000	68,023500
1212,000000	67,951000
1211,000000	67,865100
1210,000000	67,781300
1209,000000	67,721500
1208,000000	67,647300
1207,000000	67,571000
1206,000000	67,534300
1205,000000	67,481700
1204,000000	67,410300
1203,000000	67,371300
1202,000000	67,331600
1201,000000	67,260100
1200,000000	67,225600
1199,000000	67,170100
1198,000000	67,096400
1197,000000	67,059100
1196,000000	67,012500
1195,000000	66,940200
1194,000000	66,903500
1193,000000	66,877300
1192,000000	66,827100
1191,000000	66,792500
1190,000000	66,758900
1189,000000	66,713600
1188,000000	66,710800
1187,000000	66,741800
1186,000000	66,730000
1185,000000	66,707900
1184,000000	66,729100
1183,000000	66,724200
1182,000000	66,734100
1181,000000	66,763000
1180,000000	66,808900
1179,000000	66,846700
1178,000000	66,882200
1177,000000	66,939000
1176,000000	66,989900
1175,000000	67,034600
1174,000000	67,096300
1173,000000	67,146500
1172,000000	67,256300
1171,000000	67,318000
1170,000000	67,391600
1169,000000	67,486500
1168,000000	67,572500
1167,000000	67,640500
1166,000000	67,777500
1165,000000	67,847000
1164,000000	67,918900
1163,000000	68,039600
1162,000000	68,141100
1161,000000	68,211000
1160,000000	68,351000
1159,000000	68,472100
1158,000000	68,561100
1157,000000	68,689100
1156,000000	68,782200
1155,000000	68,844200
1154,000000	68,916100
1153,000000	69,023200
1152,000000	69,088600
1151,000000	69,184000
1150,000000	69,269400
1149,000000	69,278500
1148,000000	69,369400
1147,000000	69,482000
1146,000000	69,491000
1145,000000	69,557100
1144,000000	69,615700
1143,000000	69,640500
1142,000000	69,690000
1141,000000	69,738400
1140,000000	69,757100
1139,000000	69,825100
1138,000000	69,860400
1137,000000	69,890900
1136,000000	69,945800
1135,000000	70,043400
1134,000000	70,062100
1133,000000	70,122600
1132,000000	70,171200
1131,000000	70,160400
1130,000000	70,292200
1129,000000	70,328300
1128,000000	70,351800
1127,000000	70,401100
1126,000000	70,462900
1125,000000	70,499200
1124,000000	70,522900
1123,000000	70,595000
1122,000000	70,560400
1121,000000	70,604000
1120,000000	70,609100
1119,000000	70,621500
1118,000000	70,641100
1117,000000	70,638900
1116,000000	70,602000
1115,000000	70,595000
1114,000000	70,591900
1113,000000	70,588400
1112,000000	70,572600
1111,000000	70,591800
1110,000000	70,533400
1109,000000	70,526900
1108,000000	70,509700
1107,000000	70,460600
1106,000000	70,431500
1105,000000	70,438000
1104,000000	70,395400
1103,000000	70,357600
1102,000000	70,321100
1101,000000	70,265400
1100,000000	70,228900
1099,000000	70,211200
1098,000000	70,136400
1097,000000	70,088000
1096,000000	70,108400
1095,000000	70,042100
1094,000000	69,961400
1093,000000	69,973200
1092,000000	69,899800
1091,000000	69,846800
1090,000000	69,811800
1089,000000	69,781100
1088,000000	69,695400
1087,000000	69,674400
1086,000000	69,639500
1085,000000	69,589300
1084,000000	69,544500
1083,000000	69,486200
1082,000000	69,438800
1081,000000	69,389700
1080,000000	69,328600
1079,000000	69,241400
1078,000000	69,207600
1077,000000	69,190500
1076,000000	69,100100
1075,000000	69,041500
1074,000000	69,000800
1073,000000	68,941000
1072,000000	68,893500
1071,000000	68,833800
1070,000000	68,733400
1069,000000	68,693500
1068,000000	68,648100
1067,000000	68,572100
1066,000000	68,531800
1065,000000	68,461800
1064,000000	68,387700
1063,000000	68,330700
1062,000000	68,293000
1061,000000	68,220400
1060,000000	68,143700
1059,000000	68,094500
1058,000000	68,021200
1057,000000	67,999700
1056,000000	67,918600
1055,000000	67,830200
1054,000000	67,782600
1053,000000	67,728800
1052,000000	67,632000
1051,000000	67,585800
1050,000000	67,541000
1049,000000	67,446000
1048,000000	67,420500
1047,000000	67,379400
1046,000000	67,278500
1045,000000	67,244700
1044,000000	67,159200
1043,000000	67,059100
1042,000000	67,026100
1041,000000	66,975400
1040,000000	66,913500
1039,000000	66,870800
1038,000000	66,828400
1037,000000	66,715500
1036,000000	66,663800
1035,000000	66,624400
1034,000000	66,532300
1033,000000	66,476800
1032,000000	66,452600
1031,000000	66,388700
1030,000000	66,304400
1029,000000	66,244800
1028,000000	66,173900
1027,000000	66,118400
1026,000000	66,100200
1025,000000	66,006000
1024,000000	65,921600
1023,000000	65,928500
1022,000000	65,871900
1021,000000	65,773800
1020,000000	65,712500
1019,000000	65,612000
1018,000000	65,552100
1017,000000	65,519000
1016,000000	65,427400
1015,000000	65,371800
1014,000000	65,353800
1013,000000	65,296100
1012,000000	65,224900
1011,000000	65,213600
1010,000000	65,157700
1009,000000	65,079600
1008,000000	65,046500
1007,000000	64,970000
1006,000000	64,867000
1005,000000	64,859500
1004,000000	64,828200
1003,000000	64,756900
1002,000000	64,752400
1001,000000	64,666200
1000,000000	64,561800
999,000000	64,531600
998,000000	64,434900
997,000000	64,381200
996,000000	64,373300
995,000000	64,289500
994,000000	64,234000
993,000000	64,228600
992,000000	64,121500
991,000000	64,051000
990,000000	64,081600
989,000000	64,002000
988,000000	63,912700
987,000000	63,902300
986,000000	63,868700
985,000000	63,774300
984,000000	63,763700
983,000000	63,706100
982,000000	63,558200
981,000000	63,492000
980,000000	63,491300
979,000000	63,413600
978,000000	63,358100
977,000000	63,312300
976,000000	63,227200
975,000000	63,184600
974,000000	63,149300
973,000000	63,060300
972,000000	63,025600
971,000000	62,950700
970,000000	62,896600
969,000000	62,833100
968,000000	62,799300
967,000000	62,700200
966,000000	62,655300
965,000000	62,702800
964,000000	62,596400
963,000000	62,499300
962,000000	62,473600
961,000000	62,401700
960,000000	62,269000
959,000000	62,258900
958,000000	62,183900
957,000000	62,167400
956,000000	62,114900
955,000000	61,935400
954,000000	61,874200
953,000000	61,835900
952,000000	61,874100
951,000000	61,723200
950,000000	61,672600
949,000000	61,633300
948,000000	61,449700
947,000000	61,481300
946,000000	61,508900
945,000000	61,428600
944,000000	61,373900
943,000000	61,309200
942,000000	61,182500
941,000000	61,174100
940,000000	61,117400
939,000000	60,960600
938,000000	60,888300
937,000000	60,864200
936,000000	60,780000
935,000000	60,698900
934,000000	60,647200
933,000000	60,536100
932,000000	60,481000
931,000000	60,540100
930,000000	60,393500
929,000000	60,249400
928,000000	60,308100
927,000000	60,163800
926,000000	59,863500
925,000000	60,012500
924,000000	60,077400
923,000000	59,726700
922,000000	59,827300
921,000000	59,907300
920,000000	59,603900
919,000000	59,633100
918,000000	59,685200
917,000000	59,360900
916,000000	59,445200
915,000000	59,569200
914,000000	59,249200
913,000000	59,316400
912,000000	59,322000
911,000000	58,883000
910,000000	59,285600
909,000000	59,165600
908,000000	58,827500
907,000000	58,638700
906,000000	58,899300
905,000000	58,841500
904,000000	58,571900
903,000000	58,657800
902,000000	58,637000
901,000000	58,534100
900,000000	58,468400
899,000000	58,398600
898,000000	58,302000
897,000000	58,426100
896,000000	58,296000
895,000000	58,026700
894,000000	58,064700
893,000000	58,339000
892,000000	58,349300
891,000000	58,428400
890,000000	57,798700
889,000000	57,990600
888,000000	58,025700
887,000000	57,833900
886,000000	58,146000
885,000000	57,616800
884,000000	58,042400
883,000000	58,016800
882,000000	57,630200
881,000000	58,184500
880,000000	58,164600
879,000000	57,209600
878,000000	58,169700
877,000000	58,233000
876,000000	57,388300
875,000000	57,563400
874,000000	58,053900
873,000000	57,742300
872,000000	57,686500
871,000000	57,663200
870,000000	57,119600
869,000000	57,092100
868,000000	57,413100
867,000000	57,791800
866,000000	57,371200
865,000000	57,903100
864,000000	57,447300
863,000000	57,758000
862,000000	58,163100
861,000000	58,008100
860,000000	57,702000
859,000000	58,917600
858,000000	58,732200
857,000000	50,590200
856,000000	50,107800
855,000000	50,626100
854,000000	50,346000
853,000000	49,965400
852,000000	49,976100
851,000000	49,641300
850,000000	49,671400
849,000000	49,705200
848,000000	49,277700
847,000000	49,429500
846,000000	49,106900
845,000000	49,047900
844,000000	49,208700
843,000000	48,886500
842,000000	48,611000
841,000000	48,529300
840,000000	48,354600
839,000000	48,017000
838,000000	48,076100
837,000000	47,909700
836,000000	47,877800
835,000000	47,437000
834,000000	47,343400
833,000000	47,277300
832,000000	47,046500
831,000000	46,983300
830,000000	46,705400
829,000000	46,547300
828,000000	46,403600
827,000000	46,349700
826,000000	46,062600
825,000000	45,878700
824,000000	45,689000
823,000000	45,545900
822,000000	45,338900
821,000000	45,236500
820,000000	45,105400
819,000000	44,939400
818,000000	44,746800
817,000000	44,519000
816,000000	44,309700
815,000000	44,082400
814,000000	43,928400
813,000000	43,837100
812,000000	43,599900
811,000000	43,495800
810,000000	43,236400
809,000000	43,061000
808,000000	42,904000
807,000000	42,694100
806,000000	42,525200
805,000000	42,263600
804,000000	42,163400
803,000000	41,948200
802,000000	41,822800
801,000000	41,570000
800,000000	41,325700
799,000000	41,146700
798,000000	40,964200
797,000000	40,805500
796,000000	40,611000
795,000000	40,451400
794,000000	40,255400
793,000000	40,080800
792,000000	39,955500
791,000000	39,767200
790,000000	39,564200
789,000000	39,325400
788,000000	39,198700
787,000000	39,072300
786,000000	38,892900
785,000000	38,687300
784,000000	38,506600
783,000000	38,279500
782,000000	38,137700
781,000000	37,949400
780,000000	37,711500
779,000000	37,547700
778,000000	37,382100
777,000000	37,174700
776,000000	37,021900
775,000000	36,814100
774,000000	36,564400
773,000000	36,385700
772,000000	36,234800
771,000000	36,082800
770,000000	35,866500
769,000000	35,665100
768,000000	35,516200
767,000000	35,312800
766,000000	35,146100
765,000000	34,929900
764,000000	34,767400
763,000000	34,632200
762,000000	34,471000
761,000000	34,282900
760,000000	34,069500
759,000000	33,935800
758,000000	33,779300
757,000000	33,581700
756,000000	33,408700
755,000000	33,257800
754,000000	33,117300
753,000000	32,947800
752,000000	32,753900
751,000000	32,615100
750,000000	32,441000
749,000000	32,240700
748,000000	32,106800
747,000000	31,951800
746,000000	31,774600
745,000000	31,592800
744,000000	31,435500
743,000000	31,245500
742,000000	31,054500
741,000000	30,848000
740,000000	30,668100
739,000000	30,506800
738,000000	30,365000
737,000000	30,206400
736,000000	30,012000
735,000000	29,826900
734,000000	29,675800
733,000000	29,507900
732,000000	29,359900
731,000000	29,226700
730,000000	29,088400
729,000000	28,943600
728,000000	28,784000
727,000000	28,637600
726,000000	28,490000
725,000000	28,339000
724,000000	28,233200
723,000000	28,104600
722,000000	27,977600
721,000000	27,849000
720,000000	27,706100
719,000000	27,580800
718,000000	27,446000
717,000000	27,297200
716,000000	27,146500
715,000000	27,018900
714,000000	26,884200
713,000000	26,731000
712,000000	26,591400
711,000000	26,449000
710,000000	26,277000
709,000000	26,098000
708,000000	25,942900
707,000000	25,784500
706,000000	25,600200
705,000000	25,434000
704,000000	25,299200
703,000000	25,132400
702,000000	24,964000
701,000000	24,834300
700,000000	24,682000
699,000000	24,552600
698,000000	24,429200
697,000000	24,308600
696,000000	24,195700
695,000000	24,068900
694,000000	23,976700
693,000000	23,903900
692,000000	23,793500
691,000000	23,692700
690,000000	23,612300
689,000000	23,546100
688,000000	23,463800
687,000000	23,375000
686,000000	23,305300
685,000000	23,224800
684,000000	23,126500
683,000000	23,031100
682,000000	22,929200
681,000000	22,807700
680,000000	22,662200
679,000000	22,523100
678,000000	22,380300
677,000000	22,234100
676,000000	22,063900
675,000000	21,896700
674,000000	21,734000
673,000000	21,555800
672,000000	21,379500
671,000000	21,193100
670,000000	21,022100
669,000000	20,854000
668,000000	20,683500
667,000000	20,534700
666,000000	20,398200
665,000000	20,271700
664,000000	20,150700
663,000000	20,042100
662,000000	19,960700
661,000000	19,888100
660,000000	19,810100
659,000000	19,761100
658,000000	19,726200
657,000000	19,688900
656,000000	19,661200
655,000000	19,643100
654,000000	19,641500
653,000000	19,630800
652,000000	19,602400
651,000000	19,574900
650,000000	19,548400
649,000000	19,502300
648,000000	19,456300
647,000000	19,408800
646,000000	19,324000
645,000000	19,222100
644,000000	19,117700
643,000000	19,014100
642,000000	18,878800
641,000000	18,716000
640,000000	18,558600
639,000000	18,394100
638,000000	18,208900
637,000000	18,029000
636,000000	17,851600
635,000000	17,649700
634,000000	17,467200
633,000000	17,283300
632,000000	17,119900
631,000000	16,982700
630,000000	16,856800
629,000000	16,723300
628,000000	16,616400
627,000000	16,558400
626,000000	16,493200
625,000000	16,473700
624,000000	16,465100
623,000000	16,485700
622,000000	16,533800
621,000000	16,605800
620,000000	16,673400
619,000000	16,789000
618,000000	16,910600
617,000000	17,060200
616,000000	17,225400
615,000000	17,380600
614,000000	17,556500
613,000000	17,742900
612,000000	17,931300
611,000000	18,115900
610,000000	18,304900
609,000000	18,488200
608,000000	18,678600
607,000000	18,830900
606,000000	19,016700
605,000000	19,169300
604,000000	19,341100
603,000000	19,488900
602,000000	19,613700
601,000000	19,722500
600,000000	19,826600
599,000000	19,901700
598,000000	19,982400
597,000000	20,030400
596,000000	20,045600
595,000000	20,050800
594,000000	20,052000
593,000000	20,021000
592,000000	19,991300
591,000000	19,912300
590,000000	19,820700
589,000000	19,730700
588,000000	19,603600
587,000000	19,474400
586,000000	19,316700
585,000000	19,128800
584,000000	18,944100
583,000000	18,747900
582,000000	18,533900
581,000000	18,301500
580,000000	18,079500
579,000000	17,836100
578,000000	17,602900
577,000000	17,361300
576,000000	17,128700
575,000000	16,867800
574,000000	16,641900
573,000000	16,393300
572,000000	16,141800
571,000000	15,909800
570,000000	15,677700
569,000000	15,457500
568,000000	15,237500
567,000000	15,041900
566,000000	14,842900
565,000000	14,652000
564,000000	14,471600
563,000000	14,302300
562,000000	14,151700
561,000000	13,979500
560,000000	13,820700
559,000000	13,662200
558,000000	13,544200
557,000000	13,422800
556,000000	13,316300
555,000000	13,193900
554,000000	13,083500
553,000000	12,982500
552,000000	12,887100
551,000000	12,801900
550,000000	12,715800
549,000000	12,642600
548,000000	12,567200
547,000000	12,487600
546,000000	12,416400
545,000000	12,358300
544,000000	12,301800
543,000000	12,235900
542,000000	12,183100
541,000000	12,130500
540,000000	12,079300
539,000000	12,047400
538,000000	12,001500
537,000000	11,954200
536,000000	11,919400
535,000000	11,881600
534,000000	11,852200
533,000000	11,820300
532,000000	11,796200
531,000000	11,780200
530,000000	11,753300
529,000000	11,733300
528,000000	11,721500
527,000000	11,710600
526,000000	11,704500
525,000000	11,707500
524,000000	11,707700
523,000000	11,706000
522,000000	11,714000
521,000000	11,724900
520,000000	11,724800
519,000000	11,739700
518,000000	11,752700
517,000000	11,751900
516,000000	11,767700
515,000000	11,773800
514,000000	11,781300
513,000000	11,790600
512,000000	11,788500
511,000000	11,784100
510,000000	11,786000
509,000000	11,782900
508,000000	11,767900
507,000000	11,756400
506,000000	11,749600
505,000000	11,732700
504,000000	11,716800
503,000000	11,702100
502,000000	11,677900
501,000000	11,659900
500,000000	11,653700
499,000000	11,642000
498,000000	11,630400
497,000000	11,602600
496,000000	11,574500
495,000000	11,556600
494,000000	11,550200
493,000000	11,520800
492,000000	11,496200
491,000000	11,472900
490,000000	11,453400
489,000000	11,415800
488,000000	11,392400
487,000000	11,353200
486,000000	11,306200
485,000000	11,268100
484,000000	11,241700
483,000000	11,201000
482,000000	11,153200
481,000000	11,123600
480,000000	11,084900
479,000000	11,071100
478,000000	11,084400
477,000000	11,085500
476,000000	11,090300
475,000000	11,099300
474,000000	11,101300
473,000000	11,100100
472,000000	11,098000
471,000000	11,101800
470,000000	11,100500
469,000000	11,098900
468,000000	11,103600
467,000000	11,099900
466,000000	11,097300
465,000000	11,089900
464,000000	11,090300
463,000000	11,085400
462,000000	11,077100
461,000000	11,075200
460,000000	11,062100
459,000000	11,062000
458,000000	11,063300
457,000000	11,057400
456,000000	11,044800
455,000000	11,034100
454,000000	11,033800
453,000000	11,014300
452,000000	10,995600
451,000000	10,981200
450,000000	10,982900
449,000000	10,975600
448,000000	10,966400
447,000000	10,956000
446,000000	10,940400
445,000000	10,927400
444,000000	10,924400
443,000000	10,898200
442,000000	10,881400
441,000000	10,868900
440,000000	10,844300
439,000000	10,833100
438,000000	10,828700
437,000000	10,819900
436,000000	10,809700
435,000000	10,794200
434,000000	10,775500
433,000000	10,775500
432,000000	10,772300
431,000000	10,757900
430,000000	10,756700
429,000000	10,759900
428,000000	10,741500
427,000000	10,725200
426,000000	10,709400
425,000000	10,690000
424,000000	10,686800
423,000000	10,690400
422,000000	10,687000
421,000000	10,675800
420,000000	10,674300
419,000000	10,668600
418,000000	10,647700
417,000000	10,635900
416,000000	10,636100
415,000000	10,625200
414,000000	10,610700
413,000000	10,610900
412,000000	10,620600
411,000000	10,618400
410,000000	10,620600
409,000000	10,627800
408,000000	10,631600
407,000000	10,636300
406,000000	10,649800
405,000000	10,669000
404,000000	10,672900
403,000000	10,683200
402,000000	10,694800
401,000000	10,702800
400,000000	10,724900
399,000000	10,738700
398,000000	10,749500
397,000000	10,757300
396,000000	10,771300
395,000000	10,794200
394,000000	10,801300
393,000000	10,801100
392,000000	10,804700
391,000000	10,835200
390,000000	10,865300
389,000000	10,871800
388,000000	10,887700
387,000000	10,907000
386,000000	10,914400
385,000000	10,925600
384,000000	10,936400
383,000000	10,956100
382,000000	10,979300
381,000000	10,986600
380,000000	10,979400
379,000000	10,974600
378,000000	10,986200
377,000000	10,997900
376,000000	11,033100
375,000000	10,988900
374,000000	10,979800
373,000000	11,026000
372,000000	11,048200
371,000000	10,984600
370,000000	10,981500
369,000000	10,961800
368,000000	11,055200
367,000000	11,063400
366,000000	11,037900
365,000000	11,096600
364,000000	11,183400
363,000000	11,100300
362,000000	11,080500
361,000000	11,062600
360,000000	11,041400
359,000000	11,074400
358,000000	11,096800
357,000000	11,081400
356,000000	11,082300
355,000000	11,090400
354,000000	11,051200
353,000000	11,070100
352,000000	11,017700
351,000000	11,157000
350,000000	11,107000
349,000000	10,983200
348,000000	11,083500
347,000000	11,073100
346,000000	11,002100
345,000000	11,057200
344,000000	11,077500
343,000000	10,988100
342,000000	10,984400
341,000000	11,031300
340,000000	10,939400
339,000000	10,827100
338,000000	10,829300
337,000000	10,792800
336,000000	10,701900
335,000000	10,604400
334,000000	10,685600
333,000000	10,639300
332,000000	10,577000
331,000000	10,548600
330,000000	10,560100
329,000000	10,377800
328,000000	10,399600
327,000000	10,318800
326,000000	10,207300
325,000000	10,254100
324,000000	10,171300
323,000000	9,946300
322,000000	9,878600
321,000000	9,871900
320,000000	9,803900
319,000000	9,414800
318,000000	9,108300
317,000000	8,933300
316,000000	8,824500
315,000000	8,509900
314,000000	8,170400
313,000000	7,789200
312,000000	7,432000
311,000000	7,130400
310,000000	6,900000
309,000000	6,697300
308,000000	6,441600
307,000000	6,295500
306,000000	6,121700
305,000000	6,020000
304,000000	5,982100
303,000000	5,890500
302,000000	5,850900
301,000000	5,827700
300,000000	5,782700
299,000000	5,734900
298,000000	5,747200
297,000000	5,748900
296,000000	5,814700
295,000000	5,813800
294,000000	5,723000
293,000000	5,731900
292,000000	5,697300
291,000000	5,707000
290,000000	5,740900
289,000000	5,750300
288,000000	5,769100
287,000000	5,718700
286,000000	5,734400
285,000000	5,801600
284,000000	5,787400
283,000000	5,793600
282,000000	5,794400
281,000000	5,807300
280,000000	5,794200
279,000000	5,813200
278,000000	5,817000
277,000000	5,881100
276,000000	5,800400
275,000000	5,843000
274,000000	5,884600
273,000000	5,875900
272,000000	5,855700
271,000000	5,875700
270,000000	5,866500
269,000000	5,857100
268,000000	5,885700
267,000000	5,888900
266,000000	5,933500
265,000000	5,871000
264,000000	5,853300
263,000000	5,860300
262,000000	5,870600
261,000000	5,909700
260,000000	5,811200
259,000000	5,817300
258,000000	5,868200
257,000000	5,815600
256,000000	5,740800
255,000000	5,766200
254,000000	5,742600
253,000000	5,774100
252,000000	5,765800
251,000000	5,763200
250,000000	5,771800
