0119 ELITRO
Integration time [ms]:   8,000
Averaging Nr. [scans]: 10
Smoothing Nr. [pixels]: 0
Data measured with spectrometer [name]: 7314920SP
Wave   ;Sample   ;Dark     ;Reference;Reflectance
[nm]   ;[counts] ;[counts] ;[counts] ;[%]

 199,42;  108,543;   63,873;  150,055;51,83212
 200,02;  116,975;   92,669;  145,732;45,80633
 200,62;   70,034;   67,563;   88,793;11,64048
 201,22;  114,763;   86,969;  138,011;54,45439
 201,82;  104,108;   66,174;  141,790;50,16619
 202,42;  124,279;  101,668;  154,973;42,41783
 203,03;   70,698;   60,168;   91,775;33,31681
 203,63;   92,314;   69,967;  109,037;57,19650
 204,23;  100,505;   70,671;  129,903;50,36825
 204,83;   95,322;   74,567;  123,718;42,22617
 205,43;   87,943;   56,673;  123,555;46,75389
 206,03;   76,726;   50,167;   90,459;65,91578
 206,63;   68,488;   68,865;  100,007;-1,21050
 207,24;  113,877;   74,675;  162,566;44,60248
 207,84;   56,029;   39,967;   83,699;36,72946
 208,44;   69,463;   50,669;   95,011;42,38548
 209,04;   63,884;   47,365;   85,066;43,81521
 209,64;  103,866;   69,972;  127,998;58,41205
 210,24;   82,722;   45,367;   97,218;72,04204
 210,84;   76,759;   51,469;  101,970;50,07900
 211,44;  104,744;   86,470;  122,908;50,15121
 212,05;   74,384;   60,865;   99,266;35,20434
 212,65;  100,398;   66,368;  112,975;73,01540
 213,25;  115,679;   93,768;  142,073;45,35939
 213,85;   86,968;   84,465;  114,904; 8,22276
 214,45;   74,022;   53,367;  100,418;43,89828
 215,05;   61,159;   39,369;  100,070;35,89791
 215,65;   65,656;   55,169;  105,630;20,78139
 216,25;   69,022;   40,267;   82,518;68,05642
 216,85;   49,267;   34,069;   89,651;27,34401
 217,45;   69,598;   49,068;   97,375;42,49987
 218,05;   90,432;   58,270;  112,886;58,88744
 218,66;   43,871;   28,769;   75,692;32,18564
 219,26;   44,014;   26,567;   79,337;33,06171
 219,86;   50,713;   36,771;   81,584;31,11164
 220,46;   83,636;   54,270;  104,127;58,90086
 221,06;   82,105;   51,871;  115,903;47,21720
 221,66;   85,093;   43,471;  103,481;69,35848
 222,26;   67,866;   39,772;  102,398;44,86014
 222,86;   97,087;   67,268;  118,954;57,69227
 223,46;   64,522;   51,767;   88,918;34,33179
 224,06;   95,609;   64,971;  120,343;55,33083
 224,66;   83,224;   57,570;  105,805;53,18567
 225,26;   75,648;   48,169;  113,748;41,90107
 225,86;   65,155;   42,173;  112,376;32,73599
 226,46;   73,383;   49,968;  102,913;44,22434
 227,06;   56,824;   27,670;   87,705;48,56186
 227,66;   56,972;   37,665;   74,845;51,92887
 228,27;   60,336;   29,270;   96,227;46,39725
 228,87;  109,028;   89,170;  143,046;36,85925
 229,47;   64,362;   29,172;   92,357;55,69352
 230,07;   26,748;   11,169;   59,648;32,13413
 230,67;   56,167;   38,169;   84,651;38,72106
 231,27;   53,336;   27,670;   76,327;52,74925
 231,87;   67,467;   43,169;  100,751;42,19775
 232,47;   93,685;   43,775;  132,047;56,54055
 233,07;   51,492;   42,965;   75,547;26,17037
 233,67;   67,698;   53,768;   94,275;34,39020
 234,27;   39,126;    0,567;   53,259;73,17769
 234,87;   64,813;   34,771;  106,084;42,12701
 235,47;   41,348;   16,169;   74,148;43,42659
 236,07;   35,253;   30,266;   72,042;11,93700
 236,67;   59,637;   49,966;   85,180;27,46300
 237,27;   61,035;   28,873;  109,074;40,10173
 237,87;   63,224;   25,370;   99,805;50,85526
 238,47;   47,675;   14,269;   68,032;62,13590
 239,07;   54,970;   33,272;   95,738;34,73548
 239,67;   92,934;   43,477;  131,421;56,23740
 240,27;   76,355;   46,773;  119,176;40,85687
 240,87;   89,731;   50,773;  119,533;56,65776
 241,47;   52,219;   39,164;   76,131;35,31547
 242,07;   59,491;   39,968;   92,894;36,88639
 242,67;   33,739;  -11,027;   77,914;50,33196
 243,27;   29,922;    7,767;   46,418;57,31947
 243,87;   71,109;   48,671;  108,343;37,60205
 244,47;   70,705;   22,371;   99,703;62,50210
 245,07;   24,359;    2,669;   55,770;40,84743
 245,67;   50,598;   31,068;   85,575;35,83106
 246,27;   41,988;   34,965;   69,007;20,63036
 246,87;   43,887;   26,668;   63,154;47,19280
 247,46;   15,434;   19,663;   23,793;-102,39330
 248,06;   34,532;   20,470;   69,786;28,51428
 248,66;   59,666;   31,072;  105,898;38,21410
 249,26;   35,853;   32,366;   70,742; 9,08591
 249,86;   73,655;   42,873;  102,176;51,90553
 250,46;   42,081;   16,775;   93,507;32,97929
 251,06;   40,398;   22,168;   65,375;42,19318
 251,66;   29,517;   20,771;   64,724;19,89849
 252,26;   44,245;   38,866;   70,261;17,13265
 252,86;   51,959;   35,969;   89,070;30,11316
 253,46;    8,522;   -8,033;   22,118;54,90548
 254,06;   49,557;   31,766;   79,483;37,28411
 254,66;   61,243;   34,973;  100,155;40,30241
 255,26;   71,151;   39,073;  118,836;40,21644
 255,86;   35,219;   37,464;   55,631;-12,35631
 256,46;   40,244;   19,870;   70,208;40,47467
 257,05;   38,321;   23,570;   59,565;40,97894
 257,65;   79,913;   38,071;   97,684;70,18933
 258,25;   73,862;   37,372;  101,457;56,93993
 258,85;   42,259;   15,669;   51,770;73,65559
 259,45;   33,767;    6,869;   42,951;74,54751
 260,05;   52,222;   46,667;   85,818;14,18776
 260,65;   60,645;   45,066;   83,561;40,46958
 261,25;   58,709;   29,371;   85,943;51,85924
 261,85;   20,897;   -0,129;   47,622;44,03301
 262,45;   67,359;   46,169;  109,270;33,58170
 263,04;   85,147;   53,073;  116,295;50,73178
 263,64;   55,610;   33,767;   77,097;50,41074
 264,24;   67,401;   37,671;   89,062;57,85039
 264,84;   90,316;   58,974;  138,671;39,32592
 265,44;   36,602;   26,368;   67,716;24,75231
 266,04;   46,564;   48,865;   71,464;-10,18257
 266,64;   50,437;   39,866;   86,780;22,53232
 267,24;   53,637;   40,166;   68,980;46,75107
 267,84;   53,879;   24,668;   76,573;56,27769
 268,43;   60,494;   48,368;   95,935;25,49376
 269,03;   60,471;   46,969;   87,892;32,99481
 269,63;   71,249;   58,566;   92,402;37,48352
 270,23;   17,672;   10,765;   39,045;24,42378
 270,83;   55,445;   55,266;   83,161; 0,64102
 271,43;   31,606;   23,967;   58,856;21,89424
 272,03;   75,002;   64,168;   99,116;31,00200
 272,62;   45,256;   23,269;   68,730;48,36384
 273,22;   39,228;   11,970;   61,046;55,54307
 273,82;   19,812;   17,460;   26,403;26,29675
 274,42;   26,815;   25,164;   46,890; 7,59970
 275,02;   32,795;   34,864;   60,388;-8,10598
 275,62;   71,962;   31,972;  100,457;58,39228
 276,21;   42,940;   22,770;   69,267;43,37905
 276,81;   49,729;   46,767;   71,099;12,17599
 277,41;   51,090;   22,971;   96,341;38,32392
 278,01;   23,395;   21,364;   42,788; 9,48058
 278,61;   63,463;   38,869;   83,811;54,72523
 279,20;   82,555;   65,473;  119,076;31,86697
 279,80;   -5,423;    6,762;   11,539;-255,06715
 280,40;   48,153;   36,866;   79,742;26,32414
 281,00;   12,463;   -4,331;   33,311;44,61658
 281,60;   43,820;   20,774;   74,812;42,64730
 282,20;   46,544;   36,670;   70,108;29,52982
 282,79;   42,594;   29,568;   70,135;32,11140
 283,39;   27,449;   17,466;   44,702;36,65340
 283,99;   28,292;   23,165;   34,347;45,84750
 284,59;   30,852;   16,869;   45,289;49,19950
 285,19;   27,926;   27,067;   57,759; 2,79785
 285,78;   38,944;   23,270;   63,808;38,66532
 286,38;   43,488;   39,665;   59,207;19,56294
 286,98;   41,494;   35,168;   73,535;16,48967
 287,58;   30,005;    4,771;   61,403;44,55806
 288,17;   42,151;    8,973;   80,336;46,49166
 288,77;   61,961;   19,976;   92,504;57,88836
 289,37;   26,359;   11,269;   57,670;32,52169
 289,97;   44,592;   48,965;   66,647;-24,72999
 290,57;   55,282;   46,672;   93,260;18,48107
 291,16;   74,602;   63,868;  102,616;27,70357
 291,76;   25,028;    5,570;   47,346;46,57771
 292,36;   43,614;   34,367;   58,137;38,90058
 292,96;   21,258;   -3,127;   60,117;38,55823
 293,55;   43,529;   24,267;   65,399;46,83088
 294,15;   22,840;   26,870;   62,567;-11,28845
 294,75;   35,788;   42,065;   66,207;-26,00003
 295,35;   31,402;   21,068;   52,016;33,39337
 295,94;   47,033;   42,967;   66,740;17,10647
 296,54;   40,083;   30,768;   70,613;23,37692
 297,14;   55,793;   29,971;   76,881;55,04589
 297,73;   10,876;   12,165;   40,085;-4,61683
 298,33;   36,257;   28,066;   57,583;27,74964
 298,93;   43,487;   41,968;   82,554; 3,74153
 299,53;   42,874;   24,872;   69,079;40,72210
 300,12;   22,793;  -12,229;   59,481;48,83841
 300,72;   58,610;   41,567;   91,197;34,33984
 301,32;   59,113;   25,771;   99,584;45,17094
 301,92;   19,311;    3,664;   33,050;53,24687
 302,51;   24,618;   11,567;   49,978;33,97673
 303,11;   24,526;   14,667;   48,759;28,91806
 303,71;   28,875;   21,369;   82,132;12,35355
 304,30;   18,960;    5,466;   38,423;40,94611
 304,90;   18,357;   19,666;   44,283;-5,31797
 305,50;   40,172;   18,565;   64,345;47,19776
 306,09;   26,753;   15,466;   49,042;33,61542
 306,69;   57,601;   34,171;   90,262;41,77131
 307,29;   22,416;   18,760;   33,144;25,41595
 307,88;   64,752;   43,269;   72,489;73,52010
 308,48;   27,536;    0,070;   49,727;55,31184
 309,08;    6,142;   -4,437;   11,774;65,25928
 309,68;   22,376;   22,365;   39,585; 0,06369
 310,27;   24,956;   20,169;   49,830;16,13723
 310,87;   41,683;   23,468;   54,813;58,11006
 311,47;   74,222;   54,967;   92,918;50,73534
 312,06;   47,580;   47,865;   68,426;-1,38622
 312,66;   69,302;   51,168;  100,016;37,12451
 313,26;   66,717;   48,571;   96,224;38,07908
 313,85;   65,426;   38,267;   65,959;98,07460
 314,45;   57,263;   42,969;   86,611;32,75405
 315,04;   71,480;   52,165;   81,826;65,11936
 315,64;   26,910;   21,267;   47,897;21,18953
 316,24;   63,736;   40,770;   85,627;51,19871
 316,83;   51,653;   40,366;   76,742;31,02794
 317,43;   43,806;   35,167;   68,156;26,18659
 318,03;   55,827;   39,063;   70,012;54,16470
 318,62;   78,085;   73,061;   94,820;23,08788
 319,22;   33,279;    7,668;   66,973;43,18494
 319,82;   61,102;   40,768;   93,516;38,55043
 320,41;   74,175;   59,069;   98,732;38,08651
 321,01;   98,472;   80,465;  115,945;50,75295
 321,60;   71,315;   81,164;  102,790;-45,54023
 322,20;   98,943;   67,673;  132,855;47,97328
 322,80;   64,010;   54,567;   91,797;25,36341
 323,39;   61,399;   65,764;   94,828;-15,01824
 323,99;   63,645;   61,766;  102,661; 4,59423
 324,59;   75,727;   73,063;   97,512;10,89312
 325,18;   70,418;   40,967;   92,178;57,50893
 325,78;   86,176;   76,365;  108,885;30,16881
 326,37;   88,698;   74,868;  108,075;41,64909
 326,97;   82,410;   63,267;  111,497;39,69086
 327,57;   48,034;   42,263;   76,493;16,86030
 328,16;   79,019;   60,864;   93,631;55,40636
 328,76;   63,033;   50,467;  110,140;21,05930
 329,35;   82,713;   56,871;  137,484;32,05694
 329,95;   59,044;   27,470;   91,308;49,45974
 330,54;   63,422;   52,167;   94,018;26,89212
 331,14;   50,029;   26,967;   82,599;41,45547
 331,74;   74,272;   54,165;   96,145;47,89694
 332,33;   64,136;   35,370;  108,127;39,53739
 332,93;   50,611;   43,764;   79,250;19,29533
 333,52;   79,649;   42,466;   93,102;73,43196
 334,12;  104,971;   72,069;  140,392;48,15726
 334,71;   58,653;   50,666;   87,942;21,42601
 335,31;   94,026;   63,267;  119,859;54,35179
 335,90;   33,858;   32,362;   53,836; 6,96377
 336,50;   46,288;   30,665;   77,207;33,56745
 337,10;   73,356;   38,769;  121,530;41,79099
 337,69;   67,188;   51,765;   93,707;36,77211
 338,29;   61,414;   30,467;  101,037;43,85245
 338,88;   46,187;   22,468;   99,854;30,64984
 339,48;   75,762;   57,862;  111,677;33,26136
 340,07;   74,341;   48,566;  107,321;43,86865
 340,67;   74,813;   31,171;  124,784;46,61962
 341,26;   71,753;   48,466;   98,942;46,13412
 341,86;   93,448;   61,469;  138,348;41,59563
 342,45;   84,952;   45,669;  142,689;40,48903
 343,05;   60,052;   27,269;  115,689;37,07584
 343,64;   80,137;   47,366;  122,480;43,62815
 344,24;   54,388;   28,765;   92,107;40,45176
 344,83;   81,692;   71,365;  121,747;20,49715
 345,43;   56,933;   29,667;  114,240;32,24043
 346,02;   69,567;   41,469;  124,351;33,90161
 346,62;   81,417;   40,971;  140,424;40,66825
 347,21;   73,376;   42,165;  131,985;34,74825
 347,81;   80,882;   26,172;  140,560;47,82839
 348,40;   44,419;   29,064;  100,731;21,42565
 349,00;   69,527;   49,163;  137,712;22,99666
 349,59;   92,428;   65,870;  177,846;23,71781
 350,19;   71,817;   32,571;  139,424;36,72881
 350,78;   66,326;   55,467;  140,759;12,73124
 351,38;   48,667;   15,869;  140,951;26,22148
 351,97;   66,733;   26,767;  136,040;36,57508
 352,57;   73,136;   42,570;  155,827;26,98838
 353,16;   61,299;   30,564;  134,328;29,62015
 353,76;   76,928;   38,770;  169,846;29,11156
 354,35;   67,548;   27,669;  160,148;30,10160
 354,95;   83,040;   43,970;  182,067;28,29176
 355,54;   77,779;   38,368;  163,973;31,37672
 356,14;   68,248;   40,069;  164,749;22,60068
 356,73;   51,862;   29,162;  145,176;19,56602
 357,32;   51,775;   13,769;  164,432;25,22605
 357,92;   68,478;   17,772;  181,419;30,98488
 358,51;   84,974;   43,372;  214,179;24,35614
 359,11;   89,282;   36,772;  212,360;29,90520
 359,70;   52,921;   28,470;  189,965;15,13994
 360,30;   75,877;   54,562;  188,039;15,96941
 360,89;   53,887;   31,168;  188,054;14,48096
 361,48;  101,040;   55,570;  216,467;28,26036
 362,08;   49,806;   19,867;  187,156;17,89638
 362,67;   70,934;   39,763;  192,693;20,38271
 363,27;  109,518;   60,767;  247,678;26,08234
 363,86;   79,472;   35,765;  215,745;24,28439
 364,46;  110,019;   44,664;  257,231;30,74564
 365,05;  113,159;   64,659;  254,989;25,48194
 365,64;  108,631;   50,960;  269,706;26,36472
 366,24;  120,082;   38,558;  309,432;30,09662
 366,83;  154,964;   43,255;  335,383;38,23957
 367,43;  162,767;   51,545;  352,843;36,91427
 368,02;  166,220;   34,646;  399,757;36,03671
 368,61;  212,138;   62,239;  475,425;36,27876
 369,21;  172,201;   32,419;  445,299;33,85532
 369,80;  235,870;   43,007;  526,947;39,85273
 370,39;  274,501;   62,006;  604,971;39,13612
 370,99;  260,695;   42,089;  615,416;38,12939
 371,58;  267,430;   22,974;  630,953;40,20802
 372,18;  298,455;   37,166;  701,603;39,32498
 372,77;  314,733;   42,449;  679,385;42,74905
 373,36;  346,815;   42,747;  690,836;46,91767
 373,96;  302,237;   35,135;  639,498;44,19566
 374,55;  316,589;   29,844;  621,406;48,47252
 375,14;  289,237;   42,849;  573,826;46,40282
 375,74;  289,012;   69,157;  543,276;46,37122
 376,33;  230,502;   45,964;  464,589;44,08195
 376,92;  208,510;   33,278;  447,997;42,25310
 377,52;  291,267;   86,103;  548,460;44,37354
 378,11;  215,791;   46,703;  457,203;41,19074
 378,71;  253,538;   73,011;  514,270;40,91180
 379,30;  249,671;   59,517;  553,928;38,46071
 379,89;  260,984;   59,813;  556,103;40,53491
 380,49;  246,648;   31,018;  568,185;40,14204
 381,08;  302,294;   70,306;  570,990;46,33411
 381,67;  287,135;   55,008;  555,483;46,38143
 382,26;  266,394;   41,706;  539,390;45,14662
 382,86;  259,075;   54,003;  516,041;44,38425
 383,45;  285,903;   50,412;  562,105;46,02188
 384,04;  276,511;   38,712;  553,886;46,15890
 384,64;  285,260;   49,014;  566,760;45,62982
 385,23;  288,886;   64,406;  560,509;45,24857
 385,82;  303,914;   59,615;  592,774;45,82098
 386,42;  345,569;   61,024;  659,022;47,58296
 387,01;  303,568;   55,414;  580,541;47,25609
 387,60;  338,512;   69,009;  590,140;51,71508
 388,20;  295,203;   37,712;  590,805;46,55469
 388,79;  380,536;   72,418;  665,563;51,94643
 389,38;  298,194;   32,106;  564,890;49,94284
 389,97;  359,721;   45,415;  640,955;52,77674
 390,57;  374,449;   71,114;  654,038;52,03671
 391,16;  385,449;   62,514;  655,838;54,42801
 391,75;  366,880;   52,713;  638,562;53,62586
 392,34;  423,862;   60,821;  696,694;57,09339
 392,94;  417,628;   44,718;  689,683;57,81870
 393,53;  411,698;   41,016;  666,612;59,25268
 394,12;  453,696;   53,023;  719,105;60,15371
 394,72;  448,876;   54,213;  706,122;60,53957
 395,31;  463,614;   42,115;  694,874;64,57189
 395,90;  494,865;   42,924;  732,881;65,50277
 396,49;  522,760;   58,028;  779,187;64,44239
 397,09;  527,267;   47,417;  749,188;68,37707
 397,68;  568,850;   44,025;  800,719;69,35758
 398,27;  594,295;   54,626;  809,652;71,47688
 398,86;  571,034;   43,125;  807,657;69,04994
 399,45;  626,379;   56,630;  844,037;72,35758
 400,05;  591,793;   23,820;  799,518;73,22095
 400,64;  643,120;   56,419;  831,001;75,74424
 401,23;  643,578;   53,920;  859,956;73,15527
 401,82;  665,378;   67,220;  868,256;74,67302
 402,42;  710,058;   62,921;  873,953;79,79181
 403,01;  739,950;   81,525;  912,919;79,19525
 403,60;  763,547;   68,532;  940,513;79,70540
 404,19;  756,257;   76,024;  931,900;79,47800
 404,78;  754,527;   57,522;  909,929;81,76905
 405,38;  816,728;   68,332;  984,210;81,71349
 405,97;  806,603;   63,226;  953,933;83,45919
 406,56;  845,349;   71,528; 1004,366;82,95338
 407,15;  843,717;   68,829;  989,442;84,17094
 407,74;  872,690;   80,730; 1026,758;83,71422
 408,34;  874,420;   50,933; 1018,629;85,09773
 408,93;  916,159;   59,531; 1016,234;89,53960
 409,52;  914,146;   51,435; 1041,359;87,14922
 410,11;  955,651;   84,931; 1090,453;86,59385
 410,70;  936,283;   54,727; 1027,230;90,64817
 411,29;  963,956;   58,628; 1030,847;93,11980
 411,89;  985,435;   60,535; 1093,938;89,50041
 412,48;  996,752;   48,228; 1051,606;94,53308
 413,07; 1025,393;   65,033; 1101,446;92,66195
 413,66; 1053,143;   78,135; 1102,119;95,21708
 414,25; 1068,484;   63,337; 1142,311;93,15768
 414,84; 1068,359;   69,431; 1102,434;96,70136
 415,44; 1114,998;   91,530; 1155,939;96,15361
 416,03; 1108,900;   76,637; 1161,173;95,18011
 416,62; 1121,053;   76,138; 1168,687;95,64010
 417,21; 1131,974;   75,334; 1158,843;97,52015
 417,80; 1143,880;   65,037; 1162,871;98,27020
 418,39; 1160,707;   78,440; 1179,201;98,31984
 418,98; 1127,489;   55,634; 1143,405;98,53685
 419,58; 1137,105;   64,033; 1142,067;99,53969
 420,17; 1155,754;   52,735; 1164,540;99,20974
 420,76; 1199,600;   72,537; 1192,873;100,60041
 421,35; 1174,431;   60,236; 1155,197;101,75656
 421,94; 1208,007;   88,340; 1223,501;98,63504
 422,53; 1190,699;   61,540; 1195,320;99,59241
 423,12; 1182,342;   64,039; 1190,766;99,25234
 423,71; 1192,235;   60,835; 1162,138;102,73285
 424,30; 1222,812;   85,236; 1210,695;101,07660
 424,90; 1179,465;   39,438; 1163,809;101,39245
 425,49; 1235,210;   70,140; 1216,242;101,65508
 426,08; 1230,910;   80,240; 1209,641;101,88320
 426,67; 1205,727;   57,436; 1168,257;103,37320
 427,26; 1232,629;   60,343; 1230,391;100,19127
 427,85; 1218,861;   63,238; 1209,968;100,77549
 428,44; 1249,548;   68,442; 1218,093;102,73603
 429,03; 1280,864;   85,341; 1233,155;104,15645
 429,62; 1274,168;   78,941; 1240,296;102,91658
 430,21; 1277,502;   81,443; 1277,807;99,97445
 430,80; 1276,551;   70,445; 1235,381;103,53415
 431,39; 1280,894;   53,344; 1246,926;102,84586
 431,99; 1257,735;   78,535; 1206,838;104,51093
 432,58; 1300,242;   82,639; 1251,166;104,19981
 433,17; 1269,943;   69,735; 1238,319;102,70616
 433,76; 1304,297;   71,347; 1288,314;101,31336
 434,35; 1318,959;   88,245; 1292,462;102,20037
 434,94; 1330,846;   70,849; 1318,887;100,95824
 435,53; 1310,017;   78,643; 1278,669;102,61227
 436,12; 1286,998;   70,044; 1294,267;99,40623
 436,71; 1309,391;   87,740; 1303,239;100,50613
 437,30; 1328,875;   76,941; 1299,177;102,42985
 437,89; 1343,463;   76,245; 1320,802;101,82078
 438,48; 1322,733;   65,942; 1305,731;101,37131
 439,07; 1350,349;   95,238; 1347,147;100,25582
 439,66; 1375,877;   83,648; 1375,711;100,01288
 440,25; 1353,098;   85,844; 1390,567;97,12820
 440,84; 1357,527;   79,850; 1387,984;97,67167
 441,43; 1351,483;   78,054; 1440,985;93,43309
 442,02; 1347,611;   79,650; 1411,022;95,23716
 442,61; 1326,794;   93,344; 1397,226;94,59825
 443,20; 1388,431;   94,249; 1446,625;95,69689
 443,79; 1354,720;   74,546; 1412,957;95,64883
 444,38; 1391,866;   84,248; 1461,789;94,92401
 444,97; 1373,539;   84,146; 1466,359;93,28471
 445,56; 1384,628;  101,846; 1477,038;93,28022
 446,15; 1419,984;   81,651; 1522,539;92,88253
 446,74; 1376,490;   58,644; 1462,286;93,88763
 447,33; 1431,420;   82,646; 1538,357;92,65400
 447,92; 1451,092;   78,151; 1570,720;91,98510
 448,51; 1473,736;   89,746; 1586,019;92,49582
 449,10; 1493,747;   92,045; 1608,840;92,41209
 449,69; 1511,503;   73,950; 1627,741;92,51908
 450,28; 1546,281;   66,948; 1608,251;95,97936
 450,87; 1547,789;   78,647; 1656,333;93,12007
 451,46; 1610,058;   96,048; 1702,208;94,26267
 452,05; 1633,227;   70,950; 1715,384;95,00390
 452,64; 1669,107;   70,850; 1725,182;96,61044
 453,23; 1767,565;  113,752; 1794,936;98,37189
 453,82; 1755,696;   83,451; 1800,660;97,38153
 454,40; 1799,607;   65,450; 1786,682;100,75094
 454,99; 1899,422;  101,253; 1871,891;101,55488
 455,58; 1884,804;   69,747; 1832,095;102,99089
 456,17; 1965,545;   63,852; 1873,634;105,07860
 456,76; 2007,792;   67,751; 1918,820;104,80652
 457,35; 2037,266;   78,348; 1930,490;105,76501
 457,94; 2120,306;   66,954; 1978,929;107,39433
 458,53; 2123,500;   67,350; 2010,101;105,83702
 459,12; 2256,609;   82,657; 2111,116;107,17260
 459,71; 2249,173;   58,148; 2060,071;109,44606
 460,30; 2318,877;   84,448; 2087,511;111,55062
 460,89; 2376,092;   57,551; 2129,920;111,87878
 461,48; 2451,006;   75,954; 2173,829;113,21231
 462,06; 2458,719;   68,050; 2187,303;112,80713
 462,65; 2465,650;   48,249; 2176,527;113,58482
 463,24; 2579,244;   87,456; 2288,680;113,20009
 463,83; 2567,519;   54,450; 2229,803;115,52463
 464,42; 2657,746;   88,349; 2333,687;114,43253
 465,01; 2703,407;   73,050; 2336,482;116,21103
 465,60; 2723,011;   64,050; 2384,322;114,59695
 466,19; 2765,506;   73,354; 2462,829;112,66712
 466,77; 2784,884;   81,551; 2462,939;113,51923
 467,36; 2822,913;   69,457; 2459,256;115,21704
 467,95; 2864,280;   79,551; 2466,098;116,68443
 468,54; 2864,091;   71,954; 2513,866;114,34222
 469,13; 2866,569;   69,452; 2535,977;113,40314
 469,72; 2937,567;   67,555; 2582,723;114,10816
 470,31; 2929,160;   87,855; 2629,242;111,80132
 470,90; 2894,623;   76,750; 2652,044;109,41946
 471,48; 2905,905;   32,057; 2671,875;108,86538
 472,07; 2960,500;  125,747; 2686,454;110,70198
 472,66; 2976,833;   67,853; 2748,412;108,52141
 473,25; 2920,284;   68,351; 2723,339;107,41793
 473,84; 2913,779;   55,955; 2766,545;105,43181
 474,43; 2956,755;   55,459; 2843,049;104,07901
 475,01; 2927,187;   69,254; 2885,926;101,46488
 475,60; 2879,371;   49,755; 2882,364;99,89435
 476,19; 2930,882;   74,158; 2956,932;99,09635
 476,78; 2940,813;   71,057; 2964,456;99,18285
 477,37; 2887,371;   59,355; 2945,364;97,99056
 477,95; 2913,452;   75,656; 3018,661;96,42510
 478,54; 2888,422;   63,253; 3023,691;95,43078
 479,13; 2872,622;   56,253; 3070,291;93,44173
 479,72; 2914,799;   81,154; 3090,147;94,17251
 480,31; 2974,447;   63,459; 3167,468;93,78157
 480,89; 2934,187;   60,254; 3171,026;92,38648
 481,48; 2981,020;   46,260; 3214,084;92,64276
 482,07; 2979,791;   61,654; 3233,866;91,99058
 482,66; 3007,918;   52,853; 3253,650;92,32278
 483,25; 3078,820;   78,960; 3319,884;92,56187
 483,83; 3113,483;   59,954; 3325,385;93,51073
 484,42; 3146,506;   54,354; 3355,129;93,67960
 485,01; 3222,490;   65,958; 3400,413;94,66409
 485,60; 3305,715;   73,764; 3490,590;94,58926
 486,18; 3288,652;   66,956; 3490,761;94,09693
 486,77; 3352,265;   67,252; 3519,736;95,14924
 487,36; 3425,111;   58,464; 3561,750;96,09969
 487,95; 3487,300;   59,161; 3640,781;95,71476
 488,53; 3510,904;   54,461; 3642,522;96,33178
 489,12; 3550,130;   50,563; 3722,252;95,31218
 489,71; 3517,769;   38,062; 3680,357;95,53611
 490,30; 3609,312;   61,460; 3742,503;96,38170
 490,88; 3684,997;   87,561; 3859,141;95,38272
 491,47; 3677,927;   60,663; 3867,512;95,01988
 492,06; 3681,446;   62,563; 3920,615;93,80080
 492,65; 3697,389;   59,161; 3947,060;93,57824
 493,23; 3743,924;   54,860; 3982,825;93,91794
 493,82; 3752,726;   65,853; 4018,031;93,28711
 494,41; 3697,681;   51,361; 4066,179;90,82155
 494,99; 3723,479;   73,655; 4126,945;90,04597
 495,58; 3798,812;   86,060; 4224,403;89,71590
 496,17; 3707,844;   56,356; 4198,681;88,15070
 496,76; 3706,752;   65,356; 4276,761;86,46511
 497,34; 3672,401;   54,557; 4305,235;85,11217
 497,93; 3656,805;   66,057; 4350,675;83,80556
 498,52; 3668,039;   60,059; 4454,387;82,10540
 499,10; 3639,865;   75,862; 4533,217;79,95781
 499,69; 3581,332;   55,360; 4537,006;78,67582
 500,28; 3549,147;   37,959; 4592,068;77,09934
 500,86; 3526,677;   62,862; 4698,539;74,72081
 501,45; 3491,777;   53,462; 4730,438;73,51577
 502,04; 3470,469;   53,362; 4813,958;71,77899
 502,62; 3460,344;   70,956; 4856,181;70,83029
 503,21; 3398,836;   57,856; 4939,699;68,43686
 503,80; 3448,662;   69,662; 5015,577;68,31900
 504,38; 3365,124;   58,460; 5081,425;65,83092
 504,97; 3355,062;   49,962; 5122,776;65,15317
 505,56; 3388,559;   70,859; 5194,989;64,74659
 506,14; 3341,907;   64,064; 5263,709;63,03974
 506,73; 3305,388;   23,565; 5292,507;62,28618
 507,32; 3312,872;   62,865; 5376,045;61,16877
 507,90; 3325,920;   70,860; 5443,284;60,58828
 508,49; 3315,084;   58,865; 5500,366;59,84045
 509,08; 3402,019;   67,264; 5571,931;60,58050
 509,66; 3416,616;   69,960; 5677,644;59,67983
 510,25; 3444,393;   63,561; 5737,400;59,58631
 510,83; 3448,388;   45,165; 5855,607;58,57081
 511,42; 3481,483;   61,968; 5895,913;58,61410
 512,01; 3515,199;   59,164; 5980,328;58,36749
 512,59; 3531,062;   46,562; 6041,676;58,12232
 513,18; 3586,781;   59,961; 6114,379;58,25201
 513,77; 3618,017;   42,257; 6171,797;58,33652
 514,35; 3602,750;   37,763; 6190,255;57,94379
 514,94; 3694,665;   58,662; 6323,517;58,03811
 515,52; 3726,253;   48,166; 6358,342;58,28818
 516,11; 3752,892;   80,665; 6474,047;57,43793
 516,69; 3738,943;   41,959; 6446,727;57,72237
 517,28; 3780,086;   83,358; 6541,973;57,23717
 517,87; 3789,994;   45,558; 6604,054;57,09291
 518,45; 3795,578;   74,858; 6626,192;56,79332
 519,04; 3829,066;   54,258; 6707,970;56,73236
 519,62; 3855,646;   55,863; 6774,114;56,55911
 520,21; 3808,449;   24,466; 6828,002;55,61788
 520,79; 3872,998;   52,068; 7000,875;54,98685
 521,38; 3921,808;   52,960; 6995,363;55,72779
 521,97; 3971,387;   43,068; 7141,554;55,34023
 522,55; 3974,463;   67,759; 7195,230;54,81192
 523,14; 3931,559;   26,759; 7180,289;54,58563
 523,72; 4026,504;   77,561; 7383,422;54,05172
 524,31; 4027,488;   71,665; 7406,107;53,93489
 524,89; 4054,002;   48,468; 7526,815;53,56176
 525,48; 4043,137;   21,666; 7603,580;53,04031
 526,06; 4031,299;   56,264; 7633,128;52,46280
 526,65; 4103,225;   72,370; 7803,105;52,14063
 527,23; 4052,954;   46,262; 7840,596;51,40518
 527,82; 4114,018;   37,967; 7905,978;51,80535
 528,41; 4142,041;   67,366; 8041,021;51,10172
 528,99; 4127,984;   66,365; 8108,167;50,50633
 529,58; 4139,458;   42,562; 8168,736;50,41604
 530,16; 4156,481;   49,461; 8315,379;49,68619
 530,75; 4233,103;   73,964; 8417,069;49,85121
 531,33; 4150,137;   45,566; 8440,980;48,89063
 531,92; 4223,716;   48,560; 8567,344;49,01117
 532,50; 4316,440;   87,770; 8706,468;49,06391
 533,09; 4293,668;   65,665; 8807,204;48,36681
 533,67; 4290,970;   63,458; 8952,011;47,56131
 534,26; 4386,228;   65,760; 9007,665;48,31708
 534,84; 4414,889;   68,461; 9127,061;47,98123
 535,42; 4501,003;   61,564; 9205,969;48,54815
 536,01; 4593,946;   79,263; 9330,215;48,80236
 536,59; 4613,649;   43,366; 9482,202;48,41998
 537,18; 4713,332;   77,360; 9568,605;48,84471
 537,76; 4814,886;   56,972; 9764,700;49,01161
 538,35; 4956,690;   59,368; 9892,694;49,80331
 538,93; 5112,199;   72,664; 9941,828;51,06344
 539,52; 5292,125;   57,370;10111,405;52,06620
 540,10; 5425,156;   63,269;10309,029;52,33274
 540,69; 5608,022;   68,763;10444,071;53,38886
 541,27; 5829,365;   58,262;10514,917;55,19072
 541,85; 5986,856;   47,366;10658,783;55,97264
 542,44; 6182,020;   56,460;10765,484;57,19998
 543,02; 6461,956;   80,369;10952,729;58,69550
 543,61; 6581,021;   77,067;11102,218;58,99198
 544,19; 6781,360;   55,066;11264,023;60,00821
 544,78; 6933,945;   62,766;11296,562;61,16525
 545,36; 7122,164;   77,469;11521,011;61,56044
 545,94; 7225,503;   54,564;11563,069;62,30991
 546,53; 7370,593;   52,771;11724,882;62,69493
 547,11; 7552,579;   90,668;11879,873;63,29444
 547,70; 7545,031;   75,860;11954,706;62,87792
 548,28; 7669,584;   47,965;12093,066;63,27567
 548,86; 7838,984;   81,365;12327,767;63,34611
 549,45; 7830,187;   33,768;12364,953;63,22522
 550,03; 7962,514;   76,467;12507,537;63,43820
 550,62; 8084,153;   63,566;12662,842;63,65911
 551,20; 8191,421;   61,467;12808,418;63,77960
 551,78; 8232,411;   61,164;12952,850;63,38385
 552,37; 8379,803;   55,864;13112,469;63,75270
 552,95; 8417,292;   56,765;13214,547;63,54055
 553,54; 8552,788;   49,965;13393,207;63,72382
 554,12; 8562,310;   67,167;13498,797;63,24729
 554,70; 8669,679;   67,568;13736,973;62,92967
 555,29; 8689,676;   61,965;13856,285;62,54539
 555,87; 8814,032;   60,170;13987,786;62,85255
 556,45; 8866,069;   57,162;14154,058;62,48828
 557,04; 8907,629;   43,667;14376,600;61,84332
 557,62; 8973,029;   68,867;14525,499;61,59223
 558,20; 9053,989;   42,671;14799,940;61,06359
 558,79; 9120,998;  100,368;14905,875;60,92753
 559,37; 9253,922;   49,867;15000,418;61,56332
 559,95; 9375,271;   46,669;15169,691;61,68478
 560,54; 9370,482;   71,768;15324,613;60,96380
 561,12; 9457,945;   50,866;15485,562;60,94762
 561,70; 9568,967;   50,369;15679,551;60,90273
 562,29; 9697,291;   61,768;15810,994;61,18093
 562,87; 9744,087;   73,168;16023,953;60,62974
 563,45; 9878,887;   71,068;16194,754;60,82864
 564,04; 9895,054;   54,362;16227,195;60,84705
 564,62; 9976,275;   37,769;16438,332;60,59857
 565,20;10168,277;   59,962;16715,838;60,68919
 565,78;10271,180;   70,765;16797,326;60,98333
 566,37;10326,557;   71,066;17011,283;60,53931
 566,95;10413,056;   52,969;17124,330;60,68694
 567,53;10526,369;   67,262;17308,857;60,66206
 568,12;10611,284;   62,265;17367,766;60,95761
 568,70;10800,796;   85,264;17565,889;61,29948
 569,28;10858,067;   61,069;17745,252;61,05455
 569,86;11042,525;   67,767;17910,758;61,50739
 570,45;11140,352;   78,569;18124,689;61,29729
 571,03;11166,273;   53,962;18259,898;61,03675
 571,61;11261,217;   46,571;18424,824;61,02128
 572,19;11377,542;   54,263;18395,773;61,73580
 572,78;11547,099;   70,668;18668,975;61,70686
 573,36;11652,104;   84,264;18797,668;61,81580
 573,94;11689,611;   44,064;18892,750;61,78440
 574,52;11669,847;   54,559;19030,768;61,20974
 575,11;11820,818;   37,264;19159,830;61,62120
 575,69;11933,537;   53,566;19268,680;61,82618
 576,27;12032,200;   47,161;19391,381;61,95669
 576,85;12161,604;   43,264;19549,668;62,12493
 577,44;12131,669;   30,262;19814,158;61,16797
 578,02;12180,140;   32,159;19753,887;61,59694
 578,60;12341,415;   50,464;20073,791;61,38316
 579,18;12355,030;   51,963;20160,752;61,18254
 579,76;12417,199;   40,264;20300,129;61,09091
 580,35;12468,144;   60,170;20436,707;60,89344
 580,93;12624,006;   59,667;20641,557;61,04560
 581,51;12613,240;   24,770;20697,168;60,89507
 582,09;12674,350;   58,663;20755,756;60,95391
 582,67;12736,821;   49,567;20971,318;60,64145
 583,26;12815,183;   28,568;21227,014;60,31864
 583,84;12851,007;   14,164;21413,709;59,98652
 584,42;12963,396;   48,064;21513,287;60,16863
 585,00;13046,337;   81,366;21772,180;59,77171
 585,58;13095,930;   25,167;21912,299;59,71894
 586,17;13091,004;   46,761;21948,521;59,55797
 586,75;13013,449;    6,666;22026,902;59,06741
 587,33;13235,618;   47,767;22191,678;59,55520
 587,91;13281,249;   74,866;22390,201;59,18075
 588,49;13236,869;   63,962;22349,758;59,10898
 589,07;13288,302;   45,468;22403,215;59,23152
 589,65;13278,934;   28,267;22444,439;59,11208
 590,24;13344,873;   42,562;22447,799;59,37144
 590,82;13340,988;   28,261;22484,160;59,28388
 591,40;13401,807;   41,464;22520,209;59,43545
 591,98;13391,144;   45,759;22558,227;59,27997
 592,56;13416,688;   61,161;22699,961;58,99397
 593,14;13434,644;   43,359;22728,928;59,02997
 593,72;13566,888;   29,765;22889,107;59,21921
 594,30;13566,739;   36,759;22797,486;59,44441
 594,89;13600,600;   41,364;22862,428;59,41544
 595,47;13718,704;   38,961;22922,623;59,77952
 596,05;13759,229;   30,267;23003,799;59,75991
 596,63;13747,829;   31,167;23056,199;59,57283
 597,21;13861,652;   36,766;23145,441;59,82553
 597,79;13906,233;   35,467;23166,039;59,96724
 598,37;13882,647;   36,669;23222,748;59,71677
 598,95;14054,249;   50,766;23305,301;60,21829
 599,53;13947,517;   46,757;23207,996;60,01734
 600,11;14031,491;   48,665;23341,947;60,02944
 600,70;13978,627;   57,363;23315,111;59,85646
 601,28;14010,107;   38,564;23424,809;59,74257
 601,86;14063,449;   61,766;23355,102;60,11025
 602,44;14007,188;   23,661;23449,660;59,69234
 603,02;14084,848;   38,656;23576,521;59,67487
 603,60;14072,882;   54,858;23663,232;59,37734
 604,18;14077,838;   69,263;23594,734;59,54642
 604,76;13965,850;   59,263;23642,154;58,96896
 605,34;13892,064;   27,565;23530,764;58,98984
 605,92;13750,185;   59,561;23453,719;58,52155
 606,50;13591,573;   17,662;23498,998;57,80724
 607,08;13434,537;   31,666;23394,881;57,36741
 607,66;13466,853;   39,266;23561,643;57,08431
 608,24;13361,226;   46,067;23522,059;56,71819
 608,82;13249,318;   26,164;23532,031;56,25470
 609,40;13058,041;   46,466;23471,021;55,54673
 609,98;12896,899;   18,864;23505,928;54,83033
 610,56;12781,108;   43,861;23497,662;54,30782
 611,14;12664,276;   30,765;23481,086;53,87351
 611,72;12502,983;   42,665;23572,467;52,95548
 612,30;12276,454;   24,962;23468,496;52,25958
 612,88;12191,463;   60,659;23517,730;51,71491
 613,46;11912,173;   21,862;23505,697;50,63190
 614,04;11765,879;   30,068;23461,873;50,08496
 614,62;11561,700;   41,561;23489,982;49,12970
 615,20;11349,603;   52,768;23402,416;48,38118
 615,78;11087,955;   25,569;23463,430;47,19879
 616,36;10865,211;   41,364;23400,150;46,33737
 616,94;10596,053;    7,666;23272,242;45,51292
 617,52;10330,306;   24,067;23373,656;44,13884
 618,10;10126,351;   63,559;23336,107;43,23889
 618,68; 9829,656;   17,966;23253,184;42,22767
 619,26; 9600,794;   39,268;23398,834;40,93195
 619,84; 9343,938;   18,963;23277,133;40,09333
 620,42; 9248,788;   31,165;23313,506;39,59062
 621,00; 9145,788;   28,865;23209,607;39,32973
 621,58; 9126,432;   38,760;23216,406;39,20878
 622,16; 9226,421;   49,270;23335,164;39,41077
 622,74; 9330,953;   47,066;23327,742;39,87808
 623,32; 9527,461;   42,166;23291,223;40,79862
 623,90; 9726,813;   66,971;23311,484;41,55751
 624,48; 9987,974;   32,662;23196,598;42,97764
 625,05;10243,873;   34,562;23105,098;44,25260
 625,63;10472,073;   52,962;23188,799;45,03451
 626,21;10639,954;   38,262;23117,596;45,93587
 626,79;10942,122;   53,967;23219,719;47,00109
 627,37;10977,165;   28,162;23090,717;47,47524
 627,95;11176,702;   72,768;23200,215;48,01193
 628,53;11128,088;   49,365;23176,607;47,90335
 629,11;11136,755;   48,259;23043,449;48,22094
 629,69;11232,475;   53,369;23256,932;48,17840
 630,27;11110,538;   80,763;23105,434;47,90416
 630,84;11013,273;   43,862;23021,197;47,74014
 631,42;11001,906;   54,367;23319,656;47,05525
 632,00;10795,047;   45,459;23125,768;46,57471
 632,58;10617,322;   50,263;23105,172;45,83431
 633,16;10487,725;   49,870;23096,906;45,28936
 633,74;10248,495;   56,264;23018,488;44,38695
 634,32; 9988,297;   45,661;23007,842;43,30005
 634,90; 9968,229;   51,970;23195,746;42,84633
 635,47; 9736,716;   38,860;23035,645;42,17049
 636,05; 9669,496;   37,461;22989,342;41,96621
 636,63; 9598,388;   45,965;23104,807;41,42629
 637,21; 9568,499;   67,464;23150,529;41,16020
 637,79; 9585,668;   71,465;23192,904;41,14883
 638,37; 9503,663;   54,055;23070,883;41,05521
 638,94; 9490,576;   33,265;23100,686;40,99856
 639,52; 9603,376;   41,665;23195,285;41,29683
 640,10; 9709,741;   64,264;23215,900;41,66218
 640,68; 9760,021;   54,164;23175,334;41,97823
 641,26; 9815,502;   35,864;23250,268;42,12746
 641,84; 9876,582;   39,164;23235,002;42,41027
 642,41; 9813,962;   28,264;23192,936;42,24406
 642,99; 9934,242;   48,464;23145,568;42,80094
 643,57; 9903,522;   22,064;23158,402;42,70969
 644,15; 9893,803;   27,064;23178,035;42,61911
 644,73; 9919,283;   37,564;23277,568;42,52030
 645,30; 9852,663;   55,264;23230,303;42,27565
 645,88; 9845,943;   44,964;23362,635;42,03241
 646,46; 9755,924;   59,264;23447,568;41,45944
 647,04; 9765,304;   51,864;23367,902;41,65991
 647,61; 9766,584;   46,564;23396,336;41,62790
 648,19; 9680,664;   61,664;23433,369;41,15660
 648,77; 9740,645;   26,264;23442,002;41,48654
 649,35; 9789,725;   51,064;23590,137;41,37232
 649,92; 9847,305;   42,464;23596,070;41,62777
 650,50; 9772,784;   30,064;23551,104;41,42130
 651,08; 9880,564;   39,964;23450,537;42,03485
 651,66;10033,345;   21,864;23534,770;42,57866
 652,23;10032,025;   39,064;23561,004;42,48358
 652,81;10162,305;   36,464;23644,137;42,89216
 653,39;10350,186;   56,164;23647,170;43,63536
 653,97;10467,266;   37,065;23882,504;43,74086
 654,54;10441,846;   23,565;23823,137;43,77508
 655,12;10642,626;   30,965;23831,971;44,58493
 655,70;10687,706;   42,065;23962,805;44,50381
 656,28;10744,786;   32,765;23947,037;44,79342
 656,85;10672,767;   44,065;24051,070;44,27333
 657,43;10582,246;   -1,035;23831,305;44,40723
 658,01;10677,826;   21,465;24078,539;44,29617
 658,58;10706,907;   55,165;24234,371;44,05332
 659,16;10589,287;   51,965;24154,105;43,71945
 659,74;10549,967;   59,465;24338,039;43,20889
 660,32;10477,247;   71,665;24327,672;42,89899
 660,89;10344,027;   34,265;24347,305;42,40425
 661,47;10278,308;   51,665;24464,939;41,88968
 662,05;10098,388;   25,365;24587,373;41,01058
 662,62;10130,968;   59,665;24584,006;41,06656
 663,20;10077,148;   80,665;24740,139;40,53811
 663,78;10077,729;   47,965;24902,773;40,35341
 664,35; 9965,809;   52,465;24921,006;39,86299
 664,93;10020,889;   64,465;25123,539;39,73181
 665,51;10111,469;   49,565;25170,973;40,05310
 666,08;10124,849;   30,165;25185,707;40,12906
 666,66;10278,129;   47,465;25667,539;39,93222
 667,23;10419,509;   51,765;25732,773;40,37125
 667,81;10628,089;   65,865;25889,307;40,90169
 668,39;10692,970;   43,265;26047,141;40,95430
 668,96;10930,550;   54,665;26309,074;41,42498
 669,54;11063,229;   38,765;26408,408;41,80741
 670,12;11269,910;   51,165;26808,740;41,92736
 670,69;11471,490;   64,165;26950,674;42,42769
 671,27;11707,870;   25,565;27096,008;43,15520
 671,84;11645,450;   40,665;27105,240;42,87813
 672,42;11815,431;   66,265;27253,875;43,21515
 673,00;11891,911;   57,165;27531,408;43,07578
 673,57;11721,391;   59,965;27276,441;42,84693
 674,15;11842,871;   64,065;27613,475;42,75520
 674,72;11686,551;   58,565;27536,209;42,31799
 675,30;11726,632;   69,466;27513,541;42,47608
 675,88;11615,812;   36,266;27573,176;42,05100
 676,45;11586,392;   59,466;27677,309;41,73724
 677,03;11391,372;   67,866;27525,043;41,24061
 677,60;11393,353;   41,466;27770,576;40,93852
 678,18;11439,032;   59,466;27877,510;40,90714
 678,76;11349,412;   40,766;27809,143;40,72491
 679,33;11313,293;   57,666;27813,176;40,55277
 679,91;11278,572;   44,266;27813,311;40,45622
 680,48;11259,853;   28,766;27740,242;40,52865
 681,06;11312,333;   50,866;27735,176;40,67816
 681,63;11304,013;   37,566;27736,209;40,67509
 682,21;11496,394;   67,966;27797,543;41,21386
 682,78;11371,474;   20,566;27459,576;41,36777
 683,36;11567,153;   46,966;27565,510;41,86336
 683,93;11549,534;   30,466;27450,645;42,00946
 684,51;11712,314;   26,166;27477,277;42,57077
 685,08;11872,994;   38,966;27733,711;42,73023
 685,66;11885,174;   53,066;27694,045;42,80640
 686,24;11995,555;   33,766;27796,578;43,08565
 686,81;12169,935;   57,666;27899,910;43,50320
 687,39;12141,615;   38,866;27807,844;43,58370
 687,96;12207,495;   54,166;27850,479;43,72281
 688,54;12265,875;   30,866;27984,811;43,76845
 689,11;12296,655;   26,966;28043,545;43,79439
 689,69;12213,035;   29,666;28019,279;43,52818
 690,26;12302,115;   59,466;28289,313;43,36775
 690,84;12274,695;   50,066;28239,846;43,36547
 691,41;12300,976;   35,966;28403,879;43,23550
 691,98;12210,356;   31,466;28427,912;42,88878
 692,56;12165,636;   32,866;28437,445;42,71413
 693,13;12253,217;   64,866;28655,080;42,63120
 693,71;12190,496;   24,466;28657,912;42,48888
 694,28;12178,776;   41,966;28715,945;42,32691
 694,86;12258,957;   47,266;28928,879;42,28189
 695,43;12181,438;   61,366;29100,912;41,73643
 696,01;12311,518;   36,266;29145,547;42,16954
 696,58;12260,598;   42,167;29083,879;42,07201
 697,16;12323,378;   38,067;29126,414;42,23448
 697,73;12637,258;   63,467;29338,246;42,95093
 698,30;12615,338;   51,867;29223,980;43,06672
 698,88;12726,018;   40,467;29558,613;42,97543
 699,45;13006,798;   35,367;29765,848;43,63008
 700,03;13101,179;   56,067;29750,980;43,93046
 700,60;13241,158;   56,267;29850,613;44,25300
 701,18;13473,438;   61,867;29963,947;44,85163
 701,75;13664,619;   74,367;30094,682;45,27019
 702,32;13782,599;   50,367;29901,914;46,00174
 702,90;13983,379;   52,467;30254,148;46,12628
 703,47;14038,859;   51,367;30428,881;46,04555
 704,05;14139,439;   67,767;30546,715;46,16850
 704,62;14242,020;   39,867;30587,848;46,49130
 705,19;14382,600;   43,667;30586,982;46,94622
 705,77;14438,979;   29,967;30618,314;47,10621
 706,34;14497,960;   61,667;30627,049;47,23086
 706,91;14486,641;   46,367;30673,883;47,14804
 707,49;14602,320;   57,267;30976,316;47,04237
 708,06;14640,200;   66,367;31089,049;46,97799
 708,64;14523,480;   25,767;31093,582;46,66473
 709,21;14544,461;   58,167;31179,316;46,54807
 709,78;14605,641;   41,367;31281,150;46,62092
 710,36;14599,721;   61,667;31419,684;46,36152
 710,93;14687,602;   50,567;31562,416;46,44930
 711,50;14635,382;   44,467;31506,049;46,37693
 712,08;14740,162;   76,567;31925,383;46,04126
 712,65;14730,941;   73,667;31775,916;46,23418
 713,22;14766,122;   69,067;31900,250;46,17188
 713,80;14921,902;   84,167;31966,883;46,53849
 714,37;14865,183;   55,767;31827,018;46,61263
 714,94;14985,862;   53,967;31727,551;47,14306
 715,52;15112,242;   47,867;31732,984;47,54401
 716,09;15266,022;   65,467;31891,918;47,76076
 716,66;15348,103;   73,467;31935,051;47,94060
 717,23;15530,983;   66,867;31908,484;48,56574
 717,81;15632,163;   50,168;31812,018;49,05884
 718,38;15649,644;   47,468;31671,252;49,33684
 718,95;15689,323;   59,068;31618,984;49,52566
 719,53;15800,903;   56,568;31661,418;49,81620
 720,10;15924,684;   59,968;31481,252;50,49035
 720,67;15910,464;   35,768;31355,984;50,68514
 721,24;15929,145;   59,468;31256,020;50,86997
 721,82;16014,925;   49,968;31236,053;51,19257
 722,39;16175,704;   64,068;31235,885;51,68655
 722,96;16128,785;   64,968;31261,420;51,49245
 723,53;16208,965;   88,268;31151,953;51,89564
 724,11;16251,445;   61,568;31207,486;51,98074
 724,68;16258,025;   71,568;31242,020;51,92885
 725,25;16286,005;   72,768;31399,953;51,75453
 725,82;16350,285;   96,068;31564,387;51,65264
 726,40;16439,965;   62,668;31714,820;51,74150
 726,97;16512,545;   62,168;31875,354;51,70930
 727,54;16480,525;   46,968;31801,486;51,75187
 728,11;16616,207;   49,568;32045,820;51,77681
 728,69;16616,387;   39,568;31938,953;51,96595
 729,26;16803,867;   53,568;32105,088;52,26055
 729,83;16769,246;   53,268;32264,621;51,89468
 730,40;16831,527;   66,768;32291,754;52,02410
 730,97;17078,207;   44,268;32590,588;52,33753
 731,55;17232,887;   41,468;32755,820;52,55008
 732,12;17333,367;   86,268;32841,656;52,65423
 732,69;17392,348;   66,968;32889,988;52,78423
 733,26;17458,328;   55,168;32930,520;52,93680
 733,83;17714,508;   41,168;32979,055;53,65657
 734,41;17894,389;   65,468;32991,590;54,14826
 734,98;18058,068;   51,368;33155,621;54,39392
 735,55;18211,947;   43,168;33183,656;54,82351
 736,12;18383,828;   65,968;33377,289;54,98989
 736,69;18611,008;   76,968;33377,922;55,65618
 737,26;18619,389;   57,468;33552,254;55,41734
 737,84;18695,869;   70,768;33487,188;55,73638
 738,41;18934,148;   63,168;33492,422;56,45050
 738,98;18967,529;   63,569;33375,055;56,74908
 739,55;18923,609;   49,669;33377,789;56,63068
 740,12;19104,189;   62,969;33678,023;56,64492
 740,69;19228,869;   70,569;33575,656;57,18027
 741,26;19289,949;   56,269;33557,391;57,41205
 741,83;19363,529;   53,869;33719,523;57,35715
 742,41;19441,109;   56,169;33833,055;57,39114
 742,98;19600,090;   91,469;33874,590;57,74665
 743,55;19520,770;   53,569;33836,824;57,62382
 744,12;19547,951;   50,469;33859,855;57,66884
 744,69;19532,631;   59,569;33848,492;57,63150
 745,26;19497,410;   42,169;33677,723;57,84130
 745,83;19609,592;   58,769;33854,355;57,85023
 746,40;19679,971;   57,969;33844,789;58,07591
 746,97;19650,352;   44,769;33828,125;58,03326
 747,55;19786,332;   62,269;33966,957;58,17503
 748,12;19767,111;   57,869;33910,191;58,22124
 748,69;19841,393;   68,769;33877,625;58,48356
 749,26;19907,572;   65,069;33958,559;58,54370
 749,83;19895,553;   42,569;33911,992;58,61624
 750,40;20097,232;   89,669;34158,824;58,72633
 750,97;20227,012;   96,269;34144,160;59,12479
 751,54;20048,893;   40,569;33980,793;58,95165
 752,11;20140,973;   52,969;33874,727;59,39373
 752,68;20258,354;   87,869;33912,859;59,63190
 753,25;20235,334;   60,269;33774,594;59,84122
 753,82;20438,813;   65,069;33810,527;60,37477
 754,39;20524,094;   75,169;33727,160;60,76587
 754,96;20473,873;   60,069;33616,395;60,83444
 755,53;20722,654;   29,469;33796,527;61,28217
 756,10;20638,834;   64,169;33720,961;61,13080
 756,67;20838,514;   73,369;33813,395;61,54454
 757,24;20784,094;   72,769;33740,426;61,51698
 757,81;20721,674;   16,469;33677,762;61,51043
 758,38;20936,754;   54,569;33822,695;61,83993
 758,95;20862,334;   79,469;33743,426;61,73625
 759,52;20776,615;   57,469;33615,859;61,74058
 760,09;20852,096;   68,570;33306,992;62,52862
 760,66;20646,576;   59,570;33309,727;61,91552
 761,23;20780,355;   91,070;33353,961;62,19930
 761,80;20760,236;   56,270;33295,793;62,28719
 762,37;20708,316;   68,970;33167,727;62,35686
 762,94;20819,596;   70,970;33187,461;62,65346
 763,51;20586,076;   36,070;32949,793;62,43598
 764,08;20628,057;   66,270;32998,527;62,43662
 764,65;20649,336;   69,570;32798,961;62,87855
 765,22;20548,617;   54,670;32804,496;62,57727
 765,79;20589,197;   77,370;32691,928;62,89163
 766,36;20621,877;   73,170;32743,063;62,89799
 766,93;20764,057;   68,970;32551,295;63,71184
 767,50;20656,537;   89,470;32828,328;62,82158
 768,07;20744,518;   63,870;32699,262;63,36877
 768,64;20736,498;   86,470;32572,596;63,56568
 769,21;20498,479;   57,970;32359,729;63,27986
 769,78;20461,158;   78,770;32244,963;63,36587
 770,34;20416,037;   45,570;32031,195;63,68632
 770,91;20432,119;   58,470;31921,430;63,94148
 771,48;20519,398;   62,370;31836,863;64,38192
 772,05;20421,979;   66,470;31610,697;64,53006
 772,62;20448,658;   42,670;31443,029;64,98648
 773,19;20392,039;   59,370;31579,764;64,50639
 773,76;20387,420;   71,070;31506,297;64,62925
 774,33;20363,500;   74,170;31447,330;64,67098
 774,90;20246,379;   52,870;31206,064;64,82003
 775,47;20215,559;   59,970;30957,498;65,23366
 776,03;20331,240;   73,470;30984,330;65,53609
 776,60;20158,020;   55,970;30757,863;65,47495
 777,17;20232,100;   65,470;30698,098;65,83382
 777,74;20067,779;   30,870;30522,031;65,71383
 778,31;20070,859;   68,970;30582,064;65,55182
 778,88;19886,340;   30,470;30366,898;65,45223
 779,45;19861,521;   75,770;30358,131;65,33755
 780,01;19888,701;   58,370;30299,664;65,57369
 780,58;19816,682;   60,570;30177,998;65,59694
 781,15;19726,160;   38,771;29979,432;65,75469
 781,72;19675,941;   66,771;29962,266;65,59239
 782,29;19511,922;   51,771;29667,100;65,70973
 782,86;19546,102;   55,571;29617,732;65,93067
 783,42;19448,082;   56,171;29598,166;65,64185
 783,99;19434,762;   66,671;29482,100;65,84331
 784,56;19310,543;   55,171;29320,232;65,79645
 785,13;19147,822;   40,271;29247,266;65,42115
 785,70;19028,803;   49,071;29060,299;65,42202
 786,26;19038,082;   51,671;28910,732;65,79012
 786,83;19036,762;   84,371;28889,166;65,79596
 787,40;18905,943;   57,171;28783,500;65,61497
 787,97;18871,424;   43,971;28581,133;65,97521
 788,54;18913,902;   70,371;28515,268;66,24574
 789,10;18823,883;   57,971;28344,400;66,34246
 789,67;18759,063;   70,371;28245,334;66,33085
 790,24;18785,145;   51,071;28193,768;66,56815
 790,81;18672,523;   88,271;27914,400;66,78706
 791,37;18615,004;   73,671;27872,135;66,69913
 791,94;18742,584;   70,771;27886,367;67,12714
 792,51;18381,564;   46,271;27539,201;66,69094
 793,08;18520,545;   69,771;27555,234;67,12921
 793,64;18381,324;   71,271;27455,168;66,86431
 794,21;18248,404;   69,671;27250,602;66,88047
 794,78;18228,484;   53,071;27147,035;67,08289
 795,35;18171,064;   73,471;27007,969;67,19113
 795,91;18072,746;   48,071;26789,301;67,40406
 796,48;18011,125;   55,771;26710,734;67,36214
 797,05;17906,605;   57,671;26624,369;67,18537
 797,62;17895,785;   41,971;26600,701;67,22390
 798,18;17756,967;   57,471;26410,736;67,16244
 798,75;17596,945;   56,571;26279,770;66,88877
 799,32;17639,426;   60,771;26209,102;67,22668
 799,88;17505,506;   55,971;26051,535;67,12505
 800,45;17394,387;   33,971;25945,270;66,99940
 801,02;17358,666;   65,271;25880,104;66,99015
 801,58;17221,146;   90,872;25660,436;66,99479
 802,15;17203,127;   72,872;25615,270;67,06596
 802,72;17065,607;   66,172;25404,703;67,08927
 803,28;17000,688;   49,172;25288,938;67,16194
 803,85;16976,068;   41,972;25144,871;67,45873
 804,42;16828,447;   77,772;24948,004;67,35231
 804,98;16760,328;  100,672;24935,537;67,08173
 805,55;16585,908;   56,972;24702,371;67,06703
 806,12;16623,588;   83,572;24611,004;67,43476
 806,68;16461,168;   66,472;24493,738;67,11638
 807,25;16494,148;   74,972;24436,271;67,39861
 807,82;16542,428;   86,872;24407,805;67,66005
 808,38;16489,109;   73,672;24367,037;67,57169
 808,95;16422,689;   62,972;24166,971;67,87138
 809,52;16359,669;   50,272;24162,004;67,64092
 810,08;16213,649;   55,172;23994,938;67,49639
 810,65;16401,930;   77,172;24169,672;67,75867
 811,21;16423,709;   69,972;24123,404;67,98920
 811,78;16401,090;   92,472;24337,539;67,26572
 812,35;16339,870;   64,972;24173,871;67,50577
 812,91;16409,051;   90,072;24239,705;67,57444
 813,48;16387,730;   68,172;24202,738;67,61903
 814,04;16331,011;   64,172;24088,373;67,71022
 814,61;16302,591;   77,572;24176,006;67,32810
 815,18;16241,871;   67,772;23892,539;67,88775
 815,74;16145,951;   69,772;23709,172;68,00587
 816,31;16237,831;   83,372;23614,406;68,65172
 816,87;15879,611;   43,272;23489,641;67,54282
 817,44;15919,491;   76,972;23452,273;67,77461
 818,00;15738,972;   43,272;23159,506;67,89903
 818,57;15682,151;   71,872;23076,340;67,85760
 819,14;15591,132;   82,872;22924,273;67,89539
 819,70;15613,812;   72,672;22792,707;68,40280
 820,27;15384,492;   62,972;22691,941;67,70755
 820,83;15280,072;   70,072;22541,373;67,68634
 821,40;15091,553;   98,072;22431,908;67,13348
 821,96;15043,133;   75,272;22315,541;67,30072
 822,53;15053,112;   70,973;22257,574;67,52787
 823,09;15012,693;   81,073;22073,309;67,89496
 823,66;14823,173;   68,173;21862,541;67,70098
 824,22;14908,854;   77,173;21851,674;68,11491
 824,79;14682,634;   75,473;21561,408;67,98476
 825,35;14681,113;   65,173;21648,041;67,72010
 825,92;14473,894;   75,173;21398,875;67,52449
 826,48;14493,273;   87,673;21501,309;67,27303
 827,05;14422,954;   89,573;21448,242;67,10803
 827,61;14325,034;   75,273;21249,076;67,29902
 828,18;14257,314;   60,873;21191,209;67,18512
 828,74;14237,895;   91,673;21053,543;67,48549
 829,31;14141,274;   83,373;21002,176;67,20223
 829,87;14131,955;   73,073;20733,709;68,04671
 830,44;14021,035;   85,173;20631,443;67,82672
 831,00;13965,915;   91,273;20673,977;67,40923
 831,57;13953,695;  101,573;20631,609;67,47247
 832,13;13779,176;   72,073;20323,344;67,68515
 832,69;13820,155;   58,173;20309,477;67,95603
 833,26;13790,436;   85,473;20322,711;67,72151
 833,82;13717,116;   93,073;20197,744;67,76556
 834,39;13625,896;   78,773;20137,477;67,53738
 834,95;13579,177;   57,173;19959,410;67,94213
 835,52;13509,557;   87,873;19851,744;67,91020
 836,08;13468,337;   95,573;19951,877;67,34770
 836,64;13309,517;   76,273;19800,711;67,09060
 837,21;13281,797;   88,673;19552,443;67,78298
 837,77;13217,077;   91,873;19491,777;67,65602
 838,34;13188,657;   67,473;19470,012;67,62612
 838,90;13056,537;   64,473;19306,045;67,52080
 839,46;13056,817;   83,873;19312,479;67,46690
 840,03;12980,798;   76,173;19300,811;67,12545
 840,59;12945,178;   85,873;19175,645;67,36228
 841,16;12907,758;  105,173;19156,578;67,20021
 841,72;12764,538;   59,373;18965,512;67,20127
 842,28;12761,418;   77,873;18857,246;67,53977
 842,85;12725,599;   95,573;18812,578;67,47888
 843,41;12686,579;  105,374;18740,813;67,51226
 843,97;12676,759;   89,174;18686,846;67,68366
 844,54;12629,439;  104,774;18624,979;67,62704
 845,10;12576,020;   89,174;18523,713;67,73614
 845,67;12423,800;   68,774;18413,445;67,34940
 846,23;12326,680;   78,674;18361,080;66,99340
 846,79;12230,960;   90,474;18265,613;66,79721
 847,36;12159,640;   55,774;18179,047;66,78631
 847,92;12109,620;   84,874;18034,680;66,99095
 848,48;12036,300;   41,874;18039,213;66,64555
 849,04;12029,681;   62,374;17949,447;66,90478
 849,61;12093,660;   56,274;17918,580;67,38988
 850,17;12034,440;   68,174;17819,514;67,41050
 850,73;11914,121;   71,474;17764,848;66,93267
 851,30;11791,201;   46,074;17669,881;66,64353
 851,86;11734,281;   75,874;17597,914;66,53567
 852,42;11727,361;   51,174;17568,348;66,65566
 852,99;11718,941;   79,274;17583,082;66,49792
 853,55;11725,121;   83,174;17542,514;66,68034
 854,11;11665,401;   70,074;17432,049;66,78576
 854,67;11557,981;   85,474;17420,881;66,17963
 855,24;11475,262;   51,874;17213,414;66,56388
 855,80;11410,143;   76,874;17244,848;66,01401
 856,36;11352,723;   80,574;17175,881;65,93709
 856,92;11332,503;   54,474;17027,215;66,44789
 857,49;11270,982;   81,274;17048,248;65,94994
 858,05;11196,863;   67,274;16968,482;65,85085
 858,61;11217,943;   65,774;17003,316;65,84290
 859,17;11121,923;   77,374;16904,250;65,63636
 859,74;11066,503;   82,074;16836,883;65,55986
 860,30;10972,684;   93,074;16663,016;65,65871
 860,86;10962,363;   72,074;16692,350;65,52412
 861,42;10915,144;   74,674;16545,883;65,81466
 861,99;10856,624;   54,674;16506,717;65,65720
 862,55;10745,404;   66,374;16393,051;65,40847
 863,11;10718,784;   75,174;16437,283;65,05035
 863,67;10663,564;   61,274;16290,117;65,32992
 864,23;10548,345;   80,175;16199,351;64,94234
 864,80;10548,425;   69,175;16081,384;65,44537
 865,36;10513,005;   71,875;16120,817;65,05806
 865,92;10544,186;   96,175;16088,751;65,33038
 866,48;10427,266;   67,375;15987,384;65,07465
 867,04;10395,546;   60,675;15891,418;65,28355
 867,60;10320,325;   99,375;15884,451;64,75072
 868,17;10250,206;   93,675;15884,685;64,31844
 868,73;10124,086;   82,775;15672,618;64,40931
 869,29;10102,066;   59,475;15470,151;65,16646
 869,85;10069,946;  100,475;15369,685;65,29134
 870,41; 9900,326;   80,575;15293,418;64,54909
 870,97; 9924,307;   92,975;15232,252;64,93924
 871,54; 9749,087;   84,175;15178,686;64,02932
 872,10; 9678,267;   84,275;15055,419;64,08322
 872,66; 9699,847;   66,775;14910,652;64,89593
 873,22; 9673,027;   81,975;14890,586;64,76673
 873,78; 9455,508;   65,275;14742,419;63,97861
 874,34; 9437,688;   95,075;14662,652;64,13292
 874,90; 9405,787;  109,775;14536,053;64,43805
 875,46; 9341,188;   96,375;14412,952;64,57418
 876,03; 9296,888;   86,475;14363,353;64,51279
 876,59; 9180,688;   64,475;14153,253;64,70549
 877,15; 9195,987;  101,475;14166,853;64,65886
 877,71; 9122,188;   78,275;14064,652;64,66229
 878,27; 9082,188;   95,675;13910,553;65,04953
 878,83; 9120,388;  114,275;13971,753;64,99099
 879,39; 9084,888;   91,075;14082,753;64,27973
 879,95; 8967,088;   86,275;13964,253;63,99212
 880,51; 8976,688;   75,175;13927,253;64,26121
 881,07; 8974,888;   82,375;13978,753;63,99159
 881,63; 9044,088;   92,575;13971,253;64,49831
 882,19; 9003,888;   82,675;13921,553;64,46486
 882,75; 9070,188;   86,275;14019,553;64,47810
 883,31; 9147,987;   95,575;14187,853;64,23669
 883,88; 9200,688;   96,375;14174,353;64,67060
 884,44; 9148,888;   76,175;14175,753;64,34741
 885,00; 9258,487;  106,075;14266,952;64,63168
 885,56; 9212,088;  101,675;14299,452;64,16788
 886,12; 9316,787;  109,875;14421,152;64,33327
 886,68; 9326,388;   90,775;14436,753;64,37771
 887,24; 9418,588;  102,475;14574,952;64,37124
 887,80; 9414,987;   86,975;14671,753;63,95718
 888,36; 9523,188;  106,275;14715,652;64,45800
 888,92; 9635,487;   98,975;14773,353;64,98751
 889,48; 9725,987;   99,575;14973,853;64,71852
 890,04; 9694,888;   95,275;14803,053;65,26895
 890,60; 9792,088;  117,475;15014,652;64,94259
 891,16; 9738,787;   99,875;15075,853;64,36249
 891,72; 9852,888;  113,275;15058,452;65,16893
 892,28; 9822,088;  112,475;15126,053;64,67221
 892,84; 9831,688;   93,775;15039,853;65,15363
 893,39; 9814,787;  117,575;15112,952;64,66801
 893,95; 9716,787;  112,975;15044,753;64,31794
 894,51; 9600,588;   66,375;14891,253;64,31225
 895,07; 9738,088;  127,375;14906,353;65,02962
 895,63; 9497,287;   74,275;14689,952;64,47195
 896,19; 9455,987;   90,375;14601,952;64,53890
 896,75; 9427,688;  105,175;14460,152;64,94272
 897,31; 9328,688;   82,775;14295,853;65,05215
 897,87; 9285,787;   98,175;14146,853;65,39841
 898,43; 9254,287;   87,775;14075,753;65,53136
 898,99; 9176,088;  109,175;14002,753;65,25974
 899,55; 9123,287;  109,475;13940,652;65,17024
 900,11; 9032,588;  104,975;13747,553;65,43934
 900,67; 8897,188;   91,375;13658,652;64,90479
 901,22; 8854,287;  108,375;13601,952;64,81537
 901,78; 8782,987;   91,275;13560,053;64,53230
 902,34; 8672,088;  103,075;13451,152;64,19661
 902,90; 8608,588;   73,575;13350,652;64,28382
 903,46; 8573,987;   95,775;13236,353;64,51933
 904,02; 8469,388;   88,075;13091,553;64,45439
 904,58; 8423,787;   67,075;12918,152;65,02733
 905,14; 8363,688;   63,975;12874,553;64,78796
 905,70; 8285,888;   66,775;12696,053;65,07983
 906,25; 8295,088;   84,375;12708,452;65,04010
 906,81; 8283,487;   87,675;12732,152;64,81733
 907,37; 8208,688;   79,275;12616,152;64,84400
 907,93; 8172,888;   74,775;12588,152;64,71564
 908,49; 8161,587;  101,875;12497,652;65,01982
 909,05; 8170,587;   89,675;12425,553;65,50740
 909,60; 8078,388;   86,575;12340,452;65,21865
 910,16; 8004,587;   67,675;12291,853;64,92799
 910,72; 7961,587;  100,475;12207,753;64,92882
 911,28; 7912,587;   90,875;12156,053;64,82882
 911,84; 7856,087;   79,575;12106,753;64,65783
 912,39; 7804,288;   73,475;12049,353;64,55320
 912,95; 7843,688;  104,475;12001,452;65,05192
 913,51; 7786,188;   85,375;11945,253;64,93163
 914,07; 7668,987;   83,775;11813,452;64,66685
 914,63; 7710,288;   64,775;11748,053;65,43979
 915,18; 7624,087;   77,475;11617,853;65,39312
 915,74; 7554,388;   63,975;11632,652;64,74736
 916,30; 7506,888;   61,475;11588,553;64,59063
 916,86; 7523,788;   83,575;11514,652;65,08759
 917,42; 7514,487;   82,275;11425,152;65,52317
 917,97; 7344,087;   75,375;11265,452;64,95677
 918,53; 7307,688;   67,775;11196,253;65,05753
 919,09; 7292,788;   88,975;11223,753;64,69651
 919,65; 7201,587;   83,375;11083,452;64,71057
 920,20; 7128,388;   61,875;10983,053;64,70468
 920,76; 7025,288;   65,475;10849,452;64,53846
 921,32; 7022,487;   82,675;10770,952;64,92919
 921,87; 6951,688;   97,475;10670,253;64,82887
 922,43; 6895,188;   64,675;10561,353;65,07309
 922,99; 6741,788;   61,875;10406,753;64,57217
 923,55; 6703,587;   63,775;10357,353;64,50442
 924,10; 6676,288;   73,575;10282,853;64,67365
 924,66; 6592,487;   78,675;10170,152;64,54766
 925,22; 6519,087;   43,275;10093,952;64,43160
 925,77; 6445,888;   66,075; 9927,053;64,69757
 926,33; 6409,487;   90,375; 9903,253;64,39612
 926,89; 6318,587;   71,975; 9692,753;64,92835
 927,44; 6218,288;   52,175; 9580,553;64,71314
 928,00; 6196,788;   66,875; 9533,753;64,75115
 928,56; 6119,188;   80,375; 9372,253;64,99023
 929,12; 6042,888;   72,775; 9275,152;64,87576
 929,67; 5959,487;   67,575; 9091,053;65,29536
 930,23; 5889,388;   50,975; 8915,253;65,86450
 930,78; 5809,688;  100,675; 8842,553;65,30648
 931,34; 5687,087;   61,975; 8632,152;65,63589
 931,90; 5614,087;   61,675; 8494,353;65,84400
 932,45; 5463,688;   78,775; 8290,753;65,57388
 933,01; 5302,087;   52,975; 8024,453;65,84868
 933,57; 5113,288;   72,175; 7753,252;65,63028
 934,12; 4903,888;   70,475; 7399,553;65,94844
 934,68; 4672,288;   59,075; 7020,252;66,27058
 935,24; 4421,688;   67,875; 6614,752;66,50212
 935,79; 4142,487;   72,975; 6254,853;65,82971
 936,35; 3899,488;   91,375; 5812,252;66,56518
 936,90; 3643,688;   80,275; 5348,752;67,63648
 937,46; 3289,887;   72,775; 4956,953;65,86805
 938,02; 3075,188;   63,375; 4549,152;67,14137
 938,57; 2867,587;   73,175; 4265,053;66,66255
 939,13; 2651,288;   70,575; 3986,752;65,89877
 939,68; 2478,188;   57,375; 3713,452;66,21338
 940,24; 2339,288;   68,775; 3504,052;66,09401
 940,79; 2298,587;   91,875; 3391,052;66,88674
 941,35; 2184,188;   79,675; 3217,552;67,06803
 941,91; 2073,488;   71,375; 3122,252;65,62416
 942,46; 2033,588;   75,075; 3063,552;65,53546
 943,02; 2027,787;   65,375; 3050,752;65,73415
 943,57; 1970,188;   61,275; 2982,452;65,34737
 944,13; 2015,088;   67,375; 2974,452;66,99899
 944,68; 2043,588;   65,975; 3041,752;66,45700
 945,24; 2047,588;   82,275; 3060,052;65,99931
 945,79; 2062,788;   68,775; 3104,052;65,69457
 946,35; 2106,188;   51,775; 3194,752;65,36517
 946,90; 2213,188;   98,575; 3283,552;66,39333
 947,46; 2212,788;   52,175; 3311,052;66,29929
 948,01; 2289,188;   51,575; 3390,052;67,02494
 948,57; 2402,988;   86,775; 3552,952;66,82325
 949,12; 2379,788;   65,875; 3613,353;65,22698
 949,68; 2467,587;   76,275; 3732,653;65,40113
 950,23; 2547,688;   70,075; 3833,252;65,83831
 950,79; 2605,887;   75,775; 3933,452;65,58642
 951,34; 2668,587;   83,275; 4070,952;64,83254
 951,90; 2727,788;   57,475; 4140,853;65,39470
 952,45; 2806,688;   81,075; 4292,152;64,72483
 953,01; 2851,688;   65,975; 4364,252;64,80997
 953,56; 2954,587;   87,975; 4500,853;64,96016
 954,12; 2994,587;   42,075; 4567,553;65,24200
 954,67; 3084,188;   70,875; 4720,453;64,80831
 955,23; 3122,387;   61,975; 4804,553;64,53057
 955,78; 3166,488;   67,175; 4882,953;64,35747
 956,33; 3200,087;   58,575; 4947,252;64,26099
 956,89; 3268,988;   53,475; 5038,553;64,50276
 957,44; 3328,988;   53,675; 5170,752;64,00748
 958,00; 3340,688;   49,475; 5238,353;63,42822
 958,55; 3444,587;   70,475; 5313,953;64,34875
 959,10; 3454,988;   52,375; 5370,252;63,98441
 959,66; 3491,188;   74,275; 5488,752;63,10697
 960,21; 3527,988;   78,475; 5567,453;62,84435
 960,77; 3554,788;   54,275; 5606,152;63,05097
 961,32; 3546,788;   48,375; 5663,453;62,30390
 961,87; 3586,587;   79,775; 5738,752;61,96901
 962,43; 3617,488;   68,975; 5780,652;62,12733
 962,98; 3681,887;   76,175; 5828,652;62,68104
 963,54; 3607,587;   27,075; 5820,652;61,80141
 964,09; 3698,288;   56,275; 5873,953;62,60252
 964,64; 3739,587;   64,975; 5901,053;62,96373
 965,20; 3720,887;   44,375; 5966,652;62,07937
 965,75; 3770,988;   66,575; 5976,353;62,68277
 966,30; 3765,288;   75,275; 6068,553;61,56919
 966,86; 3808,087;   62,975; 6121,953;61,81096
 967,41; 3793,188;   81,075; 6084,453;61,83373
 967,96; 3789,887;   75,175; 6108,953;61,56529
 968,52; 3818,488;   81,775; 6126,353;61,81925
 969,07; 3778,788;   72,975; 6120,152;61,28169
 969,62; 3781,688;   77,175; 6134,953;61,15300
 970,18; 3761,387;   57,575; 6147,652;60,81717
 970,73; 3793,188;   66,475; 6203,553;60,72454
 971,28; 3810,788;   95,775; 6197,053;60,88909
 971,84; 3762,087;   55,075; 6118,752;61,13472
 972,39; 3800,188;   95,875; 6148,652;61,20021
 972,94; 3761,387;   54,975; 6140,652;60,90386
 973,49; 3743,587;   64,575; 6141,252;60,54316
 974,05; 3738,387;   64,375; 6178,053;60,09496
 974,60; 3752,688;   88,575; 6213,252;59,82540
 975,15; 3769,488;   77,675; 6231,553;59,99165
 975,71; 3684,587;   62,375; 6121,453;59,78158
 976,26; 3698,387;   77,575; 6110,252;60,01999
 976,81; 3636,688;   90,675; 6134,152;58,67504
 977,36; 3639,688;   84,775; 6156,953;58,54428
 977,92; 3658,688;   90,175; 6209,353;58,31686
 978,47; 3586,288;   77,175; 6060,252;58,65063
 979,02; 3579,387;   95,475; 6085,652;58,16042
 979,57; 3539,387;   86,775; 6058,453;57,81646
 980,13; 3501,188;   76,175; 6038,752;57,44181
 980,68; 3533,188;   77,075; 6010,553;58,24767
 981,23; 3536,387;   89,175; 6054,652;57,78603
 981,78; 3475,788;   82,075; 5974,152;57,59790
 982,33; 3471,087;   79,275; 5893,252;58,33893
 982,89; 3412,188;   94,375; 5938,152;56,77514
 983,44; 3400,887;   65,675; 5935,853;56,81621
 983,99; 3438,887;  104,775; 5949,453;57,04528
 984,54; 3346,188;   81,475; 5900,053;56,10843
 985,09; 3350,788;   87,275; 5873,752;56,39895
 985,65; 3355,087;   69,375; 5811,853;57,21768
 986,20; 3320,788;  106,575; 5791,152;56,54268
 986,75; 3342,688;   95,875; 5823,953;56,68241
 987,30; 3290,288;   97,175; 5726,053;56,72734
 987,85; 3279,188;   92,475; 5721,353;56,61364
 988,40; 3232,488;   96,675; 5693,953;56,02389
 988,96; 3230,988;  114,875; 5666,553;56,12920
 989,51; 3200,688;  108,875; 5644,053;55,85751
 990,06; 3219,087;  128,275; 5680,853;55,66446
 990,61; 3085,788;   93,575; 5569,053;54,64752
 991,16; 3124,688;  104,375; 5558,053;55,38121
 991,71; 3056,488;   79,875; 5505,853;54,85855
 992,26; 3039,488;   93,475; 5457,252;54,92421
 992,81; 2977,788;   75,075; 5427,053;54,23626
 993,37; 2987,988;  113,475; 5390,553;54,47167
 993,92; 2927,788;  108,375; 5368,953;53,59511
 994,47; 2951,688;  117,475; 5329,652;54,37675
 995,02; 2903,988;  118,475; 5313,252;53,62140
 995,57; 2839,087;   90,875; 5274,652;53,01563
 996,12; 2842,188;  133,575; 5247,553;52,96489
 996,67; 2804,788;  132,375; 5191,652;52,82202
 997,22; 2728,688;   99,875; 5128,652;52,27538
 997,77; 2743,988;  115,275; 5110,553;52,62395
 998,32; 2672,188;  103,775; 5015,652;52,28983
 998,87; 2648,488;  114,275; 5018,752;51,67141
 999,42; 2620,988;  101,675; 4972,553;51,72194
 999,97; 2592,188;  109,975; 4956,353;51,21789
1000,53; 2571,788;  123,475; 4993,752;50,27050
1001,08; 2525,087;   98,375; 4879,053;50,76084
1001,63; 2516,288;  144,475; 4878,053;50,10613
1002,18; 2413,988;   85,075; 4777,453;49,63182
1002,73; 2468,188;  131,375; 4813,853;49,90547
1003,28; 2421,988;  103,575; 4811,953;49,24016
1003,83; 2404,988;  119,075; 4691,752;49,99068
1004,38; 2419,887;  137,775; 4703,152;49,98738
1004,93; 2374,288;  114,375; 4680,953;49,48810
1005,48; 2302,087;  104,075; 4573,053;49,18379
1006,03; 2290,688;  112,775; 4525,652;49,35357
1006,58; 2280,288;  111,475; 4486,553;49,57198
1007,13; 2236,387;   94,475; 4466,252;48,99409
1007,68; 2247,488;  104,975; 4462,453;49,16864
1008,23; 2193,887;  114,575; 4425,853;48,22961
1008,78; 2177,188;  107,375; 4384,152;48,39655
1009,33; 2182,387;  121,875; 4307,752;49,22534
1009,88; 2092,988;   84,775; 4329,553;47,31019
1010,43; 2138,988;  118,875; 4320,752;48,07643
1010,98; 2089,587;  100,675; 4310,053;47,24956
1011,52; 2041,387;   97,075; 4264,953;46,64994
1012,07; 2089,587;  144,475; 4319,252;46,59200
1012,62; 2059,688;  103,875; 4259,152;47,06816
1013,17; 2032,488;   97,175; 4172,053;47,49376
1013,72; 1986,887;   94,575; 4143,453;46,73672
1014,27; 1953,588;  100,275; 4105,853;46,26830
1014,82; 1857,887;   86,875; 4042,952;44,76688
1015,37; 1826,887;   84,375; 3964,853;44,90459
1015,92; 1821,387;  109,475; 3894,252;45,23152
1016,47; 1752,887;   90,275; 3819,452;44,58389
1017,02; 1677,887;   81,075; 3732,153;43,73537
1017,57; 1697,287;   96,475; 3718,853;44,19231
1018,11; 1656,588;   77,275; 3656,252;44,12748
1018,66; 1672,588;  120,175; 3636,552;44,14806
1019,21; 1591,287;  109,675; 3579,552;42,69927
1019,76; 1533,588;   77,675; 3497,353;42,57456
1020,31; 1519,387;   71,975; 3446,452;42,89294
1020,86; 1495,588;   96,175; 3448,052;41,75011
1021,41; 1467,488;   80,175; 3387,052;41,95234
1021,96; 1449,088;   83,675; 3385,853;41,34885
1022,50; 1462,988;  105,975; 3332,952;42,05212
1023,05; 1429,588;   94,675; 3288,052;41,80253
1023,60; 1418,387;   97,975; 3251,353;41,87296
1024,15; 1381,588;   81,075; 3184,853;41,90096
1024,70; 1357,488;   95,075; 3176,252;40,97176
1025,25; 1319,688;   81,175; 3127,452;40,65659
1025,79; 1322,287;  101,175; 3110,752;40,57422
1026,34; 1300,488;   83,475; 3044,653;41,09894
1026,89; 1287,787;  102,175; 3039,052;40,36983
1027,44; 1250,188;   95,875; 2952,952;40,40186
1027,99; 1243,988;   93,475; 2944,552;40,35361
1028,53; 1228,588;   89,675; 2900,052;40,52525
1029,08; 1188,787;  114,775; 2876,653;38,88704
1029,63; 1206,287;  114,875; 2854,952;39,83145
1030,18; 1156,688;   92,075; 2788,552;39,48160
1030,73; 1120,488;   91,175; 2739,552;38,86578
1031,27; 1125,787;   85,875; 2715,252;39,54976
1031,82; 1070,588;   81,875; 2686,452;37,96057
1032,37; 1090,988;   98,875; 2688,853;38,30584
1032,92; 1081,287;  100,575; 2675,452;38,08773
1033,46; 1048,488;   99,775; 2599,252;37,95644
1034,01; 1010,888;   78,375; 2582,952;37,23233
1034,56; 1011,388;   98,875; 2559,252;37,08831
1035,11;  983,688;   92,375; 2523,552;36,66176
1035,65;  960,888;   87,575; 2478,052;36,53297
1036,20;  948,388;   99,375; 2454,452;36,05030
1036,75;  974,888;  118,675; 2446,353;36,78398
1037,29;  900,287;   90,275; 2398,252;35,09620
1037,84;  872,688;   78,375; 2347,252;35,00905
1038,39;  871,388;   91,075; 2329,952;34,85285
1038,94;  834,088;   73,075; 2277,153;34,52748
1039,48;  833,888;   83,575; 2278,552;34,18315
1040,03;  841,888;  102,875; 2245,252;34,49497
1040,58;  815,188;  101,175; 2194,552;34,10816
1041,12;  807,987;   91,375; 2191,653;34,11989
1041,67;  796,088;  101,075; 2166,752;33,64574
1042,22;  768,688;  118,475; 2145,252;32,08110
1042,76;  752,688;   99,275; 2118,452;32,36033
1043,31;  749,888;   90,675; 2060,653;33,46294
1043,86;  738,888;   98,875; 2044,252;32,89914
1044,40;  720,487;   92,975; 2018,052;32,59674
1044,95;  721,487;   94,175; 1988,552;33,11444
1045,50;  680,487;   75,375; 1934,353;32,55082
1046,04;  715,888;  114,375; 1930,453;33,12152
1046,59;  675,487;   96,175; 1878,353;32,50588
1047,13;  702,588;  121,075; 1879,453;33,07097
1047,68;  657,388;  115,675; 1860,052;31,05478
1048,23;  656,588;  118,775; 1866,752;30,76770
1048,77;  639,188;   90,175; 1784,953;32,39437
1049,32;  633,588;  104,175; 1785,953;31,47934
1049,86;  628,487;   92,675; 1760,552;32,12541
1050,41;  595,688;   82,475; 1735,552;31,04588
1050,96;  604,787;  100,875; 1698,652;31,53834
1051,50;  586,588;  101,675; 1663,252;31,05274
1052,05;  579,287;   94,675; 1664,052;30,87928
1052,59;  556,688;   82,975; 1624,152;30,73705
1053,14;  540,287;   84,475; 1582,652;30,42446
1053,69;  548,787;   98,475; 1571,453;30,57158
1054,23;  543,888;  104,575; 1569,052;29,99790
1054,78;  523,688;  100,775; 1550,152;29,17891
1055,32;  537,987;  123,075; 1550,453;29,06817
1055,87;  473,388;   68,875; 1491,752;28,42919
1056,41;  485,788;   78,775; 1469,552;29,26511
1056,96;  478,388;   96,775; 1451,052;28,17831
1057,50;  482,987;  113,375; 1470,853;27,22789
1058,05;  454,188;   82,075; 1401,953;28,19296
1058,59;  455,788;   95,875; 1396,552;27,67116
1059,14;  447,487;  103,575; 1370,453;27,14647
1059,68;  400,888;   75,975; 1329,353;25,92296
1060,23;  458,487;  126,875; 1383,752;26,38384
1060,77;  437,587;   97,375; 1317,052;27,89364
1061,32;  425,388;  108,575; 1320,652;26,13798
1061,86;  412,888;  111,175; 1289,752;25,59972
1062,41;  402,888;   93,975; 1242,953;26,88586
1062,95;  398,587;  109,575; 1230,853;25,77529
1063,50;  401,487;  111,075; 1230,052;25,95338
1064,04;  370,788;   90,475; 1197,453;25,32233
1064,59;  399,087;  114,775; 1210,052;25,95803
1065,13;  381,487;  103,475; 1170,552;26,05364
1065,68;  373,487;  107,275; 1161,353;25,25549
1066,22;  386,788;  115,875; 1166,453;25,78701
1066,76;  392,388;  130,175; 1145,252;25,83177
1067,31;  349,388;   99,875; 1110,552;24,68765
1067,85;  343,487;  100,975; 1090,252;24,51410
1068,40;  361,087;  110,275; 1095,353;25,46119
1068,94;  341,388;   99,175; 1079,353;24,71109
1069,49;  327,587;   98,175; 1041,652;24,31563
1070,03;  347,587;  111,175; 1034,353;25,60856
1070,57;  317,587;   88,775; 1012,852;24,76118
1071,12;  300,688;   75,875;  987,153;24,67004
1071,66;  355,888;  131,775; 1039,953;24,67717
1072,21;  325,888;  112,475; 1011,352;23,74211
1072,75;  308,288;  104,475;  978,552;23,31744
1073,29;  292,688;   77,075;  942,453;24,91543
1073,84;  296,587;   95,975;  941,153;23,73614
1074,38;  293,087;   93,875;  928,253;23,87558
1074,92;  299,987;  107,275;  940,153;23,13815
1075,47;  313,388;  112,775;  938,852;24,28495
1076,01;  317,688;  121,775;  926,253;24,35276
1076,56;  284,288;   97,275;  891,953;23,53313
1077,10;  262,388;   86,075;  865,253;22,62803
1077,64;  265,888;   97,875;  884,453;21,35994
1078,19;  299,087;  123,175;  887,753;23,00780
1078,73;  276,487;   98,775;  853,852;23,53566
1079,27;  286,688;  121,075;  875,552;21,95062
1079,81;  269,087;  121,375;  860,953;19,97255
1080,36;  273,288;  105,975;  836,052;22,91709
1080,90;  258,587;   96,375;  819,753;22,42432
1081,44;  244,087;   82,475;  789,552;22,85641
1081,99;  220,288;   70,375;  771,753;21,37401
1082,53;  259,388;  113,075;  798,653;21,34150
1083,07;  244,087;  104,175;  791,453;20,35750
1083,62;  248,688;  101,275;  772,552;21,95999
1084,16;  231,488;   98,975;  782,453;19,38798
1084,70;  252,788;  107,475;  767,153;22,02781
1085,24;  250,788;  108,775;  750,653;22,12455
1085,79;  218,887;  109,175;  747,552;17,18615
1086,33;  213,387;   99,075;  711,453;18,66700
1086,87;  228,087;  102,075;  714,852;20,56415
1087,41;  221,788;   84,475;  686,852;22,79509
1087,96;  243,188;  124,575;  732,552;19,50936
1088,50;  217,488;  112,075;  696,953;18,02301
1089,04;  246,387;  121,775;  715,153;21,00054
1089,58;  197,387;   82,375;  655,953;20,05178
1090,13;  212,988;  102,975;  653,153;19,99582
1090,67;  224,488;  101,775;  678,753;21,26816
1091,21;  205,988;   92,075;  651,852;20,34960
1091,75;  214,788;  106,875;  647,153;19,97353
1092,29;  211,788;  105,875;  642,552;19,73485
1092,84;  213,087;  105,975;  628,352;20,50481
1093,38;  240,188;  128,175;  662,753;20,95346
1093,92;  219,587;  113,475;  640,052;20,15135
1094,46;  223,387;  128,175;  638,852;18,64435
1095,00;  213,188;   93,975;  602,052;23,46345
1095,54;  188,587;   89,975;  591,352;19,66831
1096,09;  203,288;  114,975;  597,352;18,30776
1096,63;  214,887;  117,175;  598,453;20,30273
1097,17;  198,288;  102,575;  573,052;20,34370
1097,71;  215,188;  122,875;  582,453;20,08638
1098,25;  183,587;  103,275;  553,653;17,83226
1098,79;  201,087;  104,775;  568,753;20,75801
1099,33;  205,288;  111,975;  572,052;20,28191
1099,88;  190,988;  110,775;  562,253;17,76667
1100,42;  157,387;   83,275;  521,253;16,92153

