0117 elitro
Integration time [ms]:   8,000
Averaging Nr. [scans]: 10
Smoothing Nr. [pixels]: 0
Data measured with spectrometer [name]: 7314920SP
Wave   ;Sample   ;Dark     ;Reference;Reflectance
[nm]   ;[counts] ;[counts] ;[counts] ;[%]

 199,42;   96,147;   63,873;  150,055;37,44836
 200,02;  103,491;   92,669;  145,732;20,39557
 200,62;   64,174;   67,563;   88,793;-15,96291
 201,22;  101,746;   86,969;  138,011;28,95110
 201,82;   89,911;   66,174;  141,790;31,39172
 202,42;  111,740;  101,668;  154,973;18,89365
 203,03;   58,481;   60,168;   91,775;-5,33543
 203,63;   80,775;   69,967;  109,037;27,66218
 204,23;   88,621;   70,671;  129,903;30,30393
 204,83;   93,672;   74,567;  123,718;38,86901
 205,43;   78,847;   56,673;  123,555;33,15351
 206,03;   63,520;   50,167;   90,459;33,14092
 206,63;   70,594;   68,865;  100,007; 5,55226
 207,24;  123,624;   74,675;  162,566;55,69316
 207,84;   64,068;   39,967;   83,699;55,11137
 208,44;   64,546;   50,669;   95,011;31,29592
 209,04;   57,745;   47,365;   85,066;27,53362
 209,64;   92,537;   69,972;  127,998;38,88740
 210,24;   59,072;   45,367;   97,218;26,43061
 210,84;   70,698;   51,469;  101,970;38,07573
 211,44;   94,904;   86,470;  122,908;23,14759
 212,05;   73,645;   60,865;   99,266;33,28147
 212,65;   78,281;   66,368;  112,975;25,56162
 213,25;  106,840;   93,768;  142,073;27,06000
 213,85;   94,352;   84,465;  114,904;32,48008
 214,45;   65,272;   53,367;  100,418;25,30136
 215,05;   51,098;   39,369;  100,070;19,32195
 215,65;   59,249;   55,169;  105,630; 8,08578
 216,25;   60,272;   40,267;   82,518;47,34677
 216,85;   37,394;   34,069;   89,651; 5,98322
 217,45;   60,481;   49,068;   97,375;23,62704
 218,05;   77,359;   58,270;  112,886;34,95121
 218,66;   45,943;   28,769;   75,692;36,60070
 219,26;   46,475;   26,567;   79,337;37,72526
 219,86;   52,117;   36,771;   81,584;34,24571
 220,46;   73,907;   54,270;  104,127;39,38779
 221,06;   76,621;   51,871;  115,903;38,65197
 221,66;   77,075;   43,471;  103,481;55,99751
 222,26;   53,337;   39,772;  102,398;21,65989
 222,86;   77,236;   67,268;  118,954;19,28610
 223,46;   69,772;   51,767;   88,918;48,46299
 224,06;   87,269;   64,971;  120,343;40,26922
 224,66;   83,962;   57,570;  105,805;54,71549
 225,26;   69,253;   48,169;  113,748;32,14917
 225,86;   72,992;   42,173;  112,376;43,89963
 226,46;   73,588;   49,968;  102,913;44,61175
 227,06;   58,062;   27,670;   87,705;50,62385
 227,66;   53,900;   37,665;   74,845;43,66667
 228,27;   46,207;   29,270;   96,227;25,29621
 228,87;  116,111;   89,170;  143,046;50,00502
 229,47;   53,389;   29,172;   92,357;38,32581
 230,07;   29,053;   11,169;   59,648;36,88834
 230,67;   51,994;   38,169;   84,651;29,74386
 231,27;   49,907;   27,670;   76,327;45,70271
 231,87;   63,994;   43,169;  100,751;36,16672
 232,47;   83,621;   43,775;  132,047;45,14015
 233,07;   49,042;   42,965;   75,547;18,65276
 233,67;   69,481;   53,768;   94,275;38,79194
 234,27;   17,720;    0,567;   53,259;32,55359
 234,87;   64,417;   34,771;  106,084;41,57238
 235,47;   40,353;   16,169;   74,148;41,71009
 236,07;   38,558;   30,266;   72,042;19,84996
 236,67;   59,065;   49,966;   85,180;25,83816
 237,27;   55,450;   28,873;  109,074;33,13777
 237,87;   56,262;   25,370;   99,805;41,50204
 238,47;   37,991;   14,269;   68,032;44,12397
 239,07;   47,485;   33,272;   95,738;22,75331
 239,67;   85,692;   43,477;  131,421;48,00304
 240,27;   62,392;   46,773;  119,176;21,57230
 240,87;   80,802;   50,773;  119,533;43,67108
 241,47;   48,781;   39,164;   76,131;26,01512
 242,07;   55,585;   39,968;   92,894;29,50643
 242,67;   18,798;  -11,027;   77,914;33,53359
 243,27;   31,872;    7,767;   46,418;62,36436
 243,87;   61,169;   48,671;  108,343;20,94447
 244,47;   53,521;   22,371;   99,703;40,28039
 245,07;   34,698;    2,669;   55,770;60,31645
 245,67;   46,181;   31,068;   85,575;27,72763
 246,27;   42,994;   34,965;   69,007;23,58573
 246,87;   42,636;   26,668;   63,154;43,76567
 247,46;   14,274;   19,663;   23,793;-130,48532
 248,06;   33,859;   20,470;   69,786;27,14937
 248,66;   55,137;   31,072;  105,898;32,16097
 249,26;   33,458;   32,366;   70,742; 2,84706
 249,86;   58,992;   42,873;  102,176;27,18068
 250,46;   37,073;   16,775;   93,507;26,45284
 251,06;   27,981;   22,168;   65,375;13,45512
 251,66;   24,566;   20,771;   64,724; 8,63431
 252,26;   38,262;   38,866;   70,261;-1,92513
 252,86;   49,798;   35,969;   89,070;26,04211
 253,46;    3,072;   -8,033;   22,118;36,82966
 254,06;   39,807;   31,766;   79,483;16,85164
 254,66;   42,047;   34,973;  100,155;10,85216
 255,26;   64,943;   39,073;  118,836;32,43438
 255,86;   53,081;   37,464;   55,631;85,96252
 256,46;   40,104;   19,870;   70,208;40,19718
 257,05;   31,914;   23,570;   59,565;23,18023
 257,65;   59,117;   38,071;   97,684;35,30527
 258,25;   54,189;   37,372;  101,457;26,24039
 258,85;   26,898;   15,669;   51,770;31,10335
 259,45;   14,094;    6,869;   42,951;20,02539
 260,05;   48,372;   46,667;   85,818; 4,35388
 260,65;   44,262;   45,066;   83,561;-2,08961
 261,25;   40,369;   29,371;   85,943;19,44071
 261,85;   14,024;   -0,129;   47,622;29,63857
 262,45;   63,598;   46,169;  109,270;27,62020
 263,04;   68,095;   53,073;  116,295;23,76079
 263,64;   48,026;   33,767;   77,097;32,90867
 264,24;   67,672;   37,671;   89,062;58,37780
 264,84;   85,208;   58,974;  138,671;32,91726
 265,44;   31,430;   26,368;   67,716;12,24268
 266,04;   59,604;   48,865;   71,464;47,51724
 266,64;   48,565;   39,866;   86,780;18,54166
 267,24;   37,765;   40,166;   68,980;-8,33419
 267,84;   35,540;   24,668;   76,573;20,94458
 268,43;   67,633;   48,368;   95,935;40,50121
 269,03;   50,243;   46,969;   87,892; 8,00068
 269,63;   68,110;   58,566;   92,402;28,20715
 270,23;   14,900;   10,765;   39,045;14,62220
 270,83;   67,662;   55,266;   83,161;44,43647
 271,43;   35,078;   23,967;   58,856;31,84587
 272,03;   62,030;   64,168;   99,116;-6,11736
 272,62;   36,049;   23,269;   68,730;28,11267
 273,22;   18,411;   11,970;   61,046;13,12380
 273,82;   18,041;   17,460;   26,403; 6,49779
 274,42;   28,132;   25,164;   46,890;13,66336
 275,02;   38,690;   34,864;   60,388;14,99051
 275,62;   58,789;   31,972;  100,457;39,15626
 276,21;   42,256;   22,770;   69,267;41,90765
 276,81;   47,468;   46,767;   71,099; 2,88340
 277,41;   54,527;   22,971;   96,341;43,00924
 278,01;   27,590;   21,364;   42,788;29,06204
 278,61;   60,346;   38,869;   83,811;47,78893
 279,20;   82,192;   65,473;  119,076;31,19030
 279,80;    3,106;    6,762;   11,539;-76,52127
 280,40;   48,858;   36,866;   79,742;27,97017
 281,00;    5,846;   -4,331;   33,311;27,03687
 281,60;   37,657;   20,774;   74,812;31,24224
 282,20;   40,304;   36,670;   70,108;10,86957
 282,79;   38,733;   29,568;   70,135;22,59266
 283,39;   20,610;   17,466;   44,702;11,54402
 283,99;   27,742;   23,165;   34,347;40,93420
 284,59;   26,401;   16,869;   45,289;33,53878
 285,19;   26,220;   27,067;   57,759;-2,75934
 285,78;   29,704;   23,270;   63,808;15,87288
 286,38;   45,494;   39,665;   59,207;29,82829
 286,98;   31,633;   35,168;   73,535;-9,21344
 287,58;    9,621;    4,771;   61,403; 8,56339
 288,17;   32,643;    8,973;   80,336;33,16934
 288,77;   51,431;   19,976;   92,504;43,36953
 289,37;   13,698;   11,269;   57,670; 5,23396
 289,97;   49,242;   48,965;   66,647; 1,56986
 290,57;   52,230;   46,672;   93,260;11,93141
 291,16;   71,130;   63,868;  102,616;18,74188
 291,76;   24,311;    5,570;   47,346;44,85996
 292,36;   39,175;   34,367;   58,137;20,22555
 292,96;   20,240;   -3,127;   60,117;36,94822
 293,55;   32,668;   24,267;   65,399;20,42568
 294,15;   29,456;   26,870;   62,567; 7,24447
 294,75;   46,194;   42,065;   66,207;17,10326
 295,35;   22,930;   21,068;   52,016; 6,01687
 295,94;   46,017;   42,967;   66,740;12,83003
 296,54;   41,388;   30,768;   70,613;26,65242
 297,14;   39,575;   29,971;   76,881;20,47348
 297,73;   22,249;   12,165;   40,085;36,11571
 298,33;   39,307;   28,066;   57,583;38,08343
 298,93;   58,336;   41,968;   82,554;40,32997
 299,53;   28,734;   24,872;   69,079; 8,73535
 300,12;   12,575;  -12,229;   59,481;34,58947
 300,72;   55,826;   41,567;   91,197;28,73121
 301,32;   49,517;   25,771;   99,584;32,17121
 301,92;   15,384;    3,664;   33,050;39,88320
 302,51;   31,323;   11,567;   49,978;51,43398
 303,11;   19,820;   14,667;   48,759;15,11534
 303,71;   35,691;   21,369;   82,132;23,57106
 304,30;   17,755;    5,466;   38,423;37,28904
 304,90;   15,507;   19,666;   44,283;-16,89438
 305,50;   34,100;   18,565;   64,345;33,93454
 306,09;   34,058;   15,466;   49,042;55,37402
 306,69;   58,772;   34,171;   90,262;43,85905
 307,29;   12,590;   18,760;   33,144;-42,89950
 307,88;   45,201;   43,269;   72,489; 6,61066
 308,48;   23,307;    0,070;   49,727;46,79615
 309,08;    1,271;   -4,437;   11,774;35,21083
 309,68;   25,949;   22,365;   39,585;20,81036
 310,27;   29,749;   20,169;   49,830;32,29942
 310,87;   26,988;   23,468;   54,813;11,22867
 311,47;   59,772;   54,967;   92,918;12,65993
 312,06;   41,697;   47,865;   68,426;-29,99823
 312,66;   63,330;   51,168;  100,016;24,89784
 313,26;   67,766;   48,571;   96,224;40,28028
 313,85;   53,420;   38,267;   65,959;54,72036
 314,45;   54,746;   42,969;   86,611;26,98597
 315,04;   60,597;   52,165;   81,826;28,42832
 315,64;   31,826;   21,267;   47,897;39,65218
 316,24;   63,207;   40,770;   85,627;50,02020
 316,83;   50,958;   40,366;   76,742;29,11943
 317,43;   33,278;   35,167;   68,156;-5,72741
 318,03;   56,577;   39,063;   70,012;56,59089
 318,62;   73,403;   73,061;   94,820; 1,56994
 319,22;   36,640;    7,668;   66,973;48,85172
 319,82;   47,330;   40,768;   93,516;12,44047
 320,41;   70,691;   59,069;   98,732;29,30300
 321,01;   90,800;   80,465;  115,945;29,12968
 321,60;   78,432;   81,164;  102,790;-12,62977
 322,20;   86,947;   67,673;  132,855;29,56908
 322,80;   69,826;   54,567;   91,797;40,98679
 323,39;   55,139;   65,764;   94,828;-36,55851
 323,99;   60,962;   61,766;  102,661;-1,96697
 324,59;   72,177;   73,063;   97,512;-3,62356
 325,18;   60,323;   40,967;   92,178;37,79706
 325,78;   81,349;   76,365;  108,885;15,32462
 326,37;   75,581;   74,868;  108,075; 2,14894
 326,97;   79,226;   63,267;  111,497;33,09005
 327,57;   51,074;   42,263;   76,493;25,74093
 328,16;   61,581;   60,864;   93,631; 2,18844
 328,76;   74,117;   50,467;  110,140;39,63271
 329,35;   84,417;   56,871;  137,484;34,17132
 329,95;   51,704;   27,470;   91,308;37,96245
 330,54;   73,272;   52,167;   94,018;50,42765
 331,14;   43,068;   26,967;   82,599;28,94278
 331,74;   73,400;   54,165;   96,145;45,82010
 332,33;   62,007;   35,370;  108,127;36,61170
 332,93;   50,184;   43,764;   79,250;18,09190
 333,52;   60,810;   42,466;   93,102;36,22757
 334,12;   92,343;   72,069;  140,392;29,67395
 334,71;   63,258;   50,666;   87,942;33,78170
 335,31;   84,120;   63,267;  119,859;36,84822
 335,90;   30,464;   32,362;   53,836;-8,83827
 336,50;   43,094;   30,665;   77,207;26,70502
 337,10;   60,249;   38,769;  121,530;25,95460
 337,69;   66,694;   51,765;   93,707;35,59447
 338,29;   49,075;   30,467;  101,037;26,36760
 338,88;   49,736;   22,468;   99,854;35,23673
 339,48;   70,913;   57,862;  111,677;24,25111
 340,07;   61,013;   48,566;  107,321;21,18494
 340,67;   60,817;   31,171;  124,784;31,66925
 341,26;   55,258;   48,466;   98,942;13,45698
 341,86;   78,453;   61,469;  138,348;22,09069
 342,45;   77,201;   45,669;  142,689;32,50022
 343,05;   68,601;   27,269;  115,689;46,74481
 343,64;   61,265;   47,366;  122,480;18,50339
 344,24;   50,794;   28,765;   92,107;34,77793
 344,83;   78,342;   71,365;  121,747;13,84917
 345,43;   57,117;   29,667;  114,240;32,45722
 346,02;   54,994;   41,469;  124,351;16,31907
 346,62;   76,966;   40,971;  140,424;36,19277
 347,21;   63,549;   42,165;  131,985;23,80710
 347,81;   67,630;   26,172;  140,560;36,24382
 348,40;   43,981;   29,064;  100,731;20,81436
 349,00;   65,077;   49,163;  137,712;17,97215
 349,59;   90,611;   65,870;  177,846;22,09460
 350,19;   55,666;   32,571;  139,424;21,61373
 350,78;   63,320;   55,467;  140,759; 9,20733
 351,38;   38,194;   15,869;  140,951;17,84874
 351,97;   56,017;   26,767;  136,040;26,76787
 352,57;   56,007;   42,570;  155,827;11,86469
 353,16;   36,739;   30,564;  134,328; 5,95061
 353,76;   78,811;   38,770;  169,846;30,54768
 354,35;   54,953;   27,669;  160,148;20,59429
 354,95;   68,356;   43,970;  182,067;17,65859
 355,54;   67,340;   38,368;  163,973;23,06540
 356,14;   54,853;   40,069;  164,749;11,85693
 356,73;   53,613;   29,162;  145,176;21,07548
 357,32;   41,891;   13,769;  164,432;18,66584
 357,92;   48,782;   17,772;  181,419;18,94934
 358,51;   87,834;   43,372;  214,179;26,03035
 359,11;   67,130;   36,772;  212,360;17,28968
 359,70;   63,114;   28,470;  189,965;21,45188
 360,30;   75,406;   54,562;  188,039;15,61662
 360,89;   45,436;   31,168;  188,054; 9,09460
 361,48;   87,856;   55,570;  216,467;20,06623
 362,08;   58,078;   19,867;  187,156;22,84112
 362,67;   60,974;   39,763;  192,693;13,86981
 363,27;   88,723;   60,767;  247,678;14,95694
 363,86;   72,100;   35,765;  215,745;20,18845
 364,46;   91,681;   44,664;  257,231;22,11868
 365,05;  107,822;   64,659;  254,989;22,67796
 365,64;   92,783;   50,960;  269,706;19,11970
 366,24;   96,312;   38,558;  309,432;21,32136
 366,83;  126,928;   43,255;  335,383;28,64245
 367,43;  136,800;   51,545;  352,843;28,29608
 368,02;  142,020;   34,646;  399,757;29,40852
 368,61;  170,228;   62,239;  475,425;26,13580
 369,21;  143,841;   32,419;  445,299;26,98656
 369,80;  161,036;   43,007;  526,947;24,38924
 370,39;  213,923;   62,006;  604,971;27,97919
 370,99;  202,865;   42,089;  615,416;28,04277
 371,58;  198,482;   22,974;  630,953;28,86756
 372,18;  229,688;   37,166;  701,603;28,97519
 372,77;  223,437;   42,449;  679,385;28,41531
 373,36;  239,052;   42,747;  690,836;30,28992
 373,96;  209,867;   35,135;  639,498;28,91165
 374,55;  218,871;   29,844;  621,406;31,95395
 375,14;  211,085;   42,849;  573,826;31,68422
 375,74;  222,980;   69,157;  543,276;32,44391
 376,33;  182,368;   45,964;  464,589;32,58381
 376,92;  147,983;   33,278;  447,997;27,65854
 377,52;  235,245;   86,103;  548,460;32,25689
 378,11;  177,735;   46,703;  457,203;31,92028
 378,71;  209,992;   73,011;  514,270;31,04311
 379,30;  204,412;   59,517;  553,928;29,30657
 379,89;  215,015;   59,813;  556,103;31,27235
 380,49;  202,922;   31,018;  568,185;32,00194
 381,08;  237,726;   70,306;  570,990;33,43831
 381,67;  227,701;   55,008;  555,483;34,50581
 382,26;  212,326;   41,706;  539,390;34,28285
 382,86;  223,542;   54,003;  516,041;36,69372
 383,45;  235,556;   50,412;  562,105;36,18263
 384,04;  235,853;   38,712;  553,886;38,26685
 384,64;  234,824;   49,014;  566,760;35,88835
 385,23;  244,330;   64,406;  560,509;36,26734
 385,82;  256,944;   59,615;  592,774;37,01124
 386,42;  299,497;   61,024;  659,022;39,87858
 387,01;  277,221;   55,414;  580,541;42,23881
 387,60;  290,911;   69,009;  590,140;42,58084
 388,20;  271,256;   37,712;  590,805;42,22508
 388,79;  328,677;   72,418;  665,563;43,20332
 389,38;  277,426;   32,106;  564,890;46,04496
 389,97;  321,041;   45,415;  640,955;46,28165
 390,57;  336,379;   71,114;  654,038;45,50593
 391,16;  340,779;   62,514;  655,838;46,89933
 391,75;  347,666;   52,713;  638,562;50,34623
 392,34;  371,758;   60,821;  696,694;48,89922
 392,94;  382,180;   44,718;  689,683;52,32252
 393,53;  364,051;   41,016;  666,612;51,63631
 394,12;  413,135;   53,023;  719,105;54,06427
 394,72;  420,918;   54,213;  706,122;56,25091
 395,31;  426,844;   42,115;  694,874;58,93890
 395,90;  443,849;   42,924;  732,881;58,10861
 396,49;  491,643;   58,028;  779,187;60,12746
 397,09;  460,764;   47,417;  749,188;58,90052
 397,68;  491,855;   44,025;  800,719;59,18247
 398,27;  536,278;   54,626;  809,652;63,79274
 398,86;  530,762;   43,125;  807,657;63,78236
 399,45;  571,227;   56,630;  844,037;65,35337
 400,05;  538,845;   23,820;  799,518;66,39502
 400,64;  595,883;   56,419;  831,001;69,64582
 401,23;  601,651;   53,920;  859,956;67,95369
 401,82;  626,551;   67,220;  868,256;69,82597
 402,42;  625,109;   62,921;  873,953;69,31763
 403,01;  664,455;   81,525;  912,919;70,11479
 403,60;  684,240;   68,532;  940,513;70,61031
 404,19;  689,952;   76,024;  931,900;71,73091
 404,78;  685,722;   57,522;  909,929;73,69722
 405,38;  735,598;   68,332;  984,210;72,85535
 405,97;  719,375;   63,226;  953,933;73,66605
 406,56;  750,998;   71,528; 1004,366;72,83898
 407,15;  759,011;   68,829;  989,442;74,96981
 407,74;  796,972;   80,730; 1026,758;75,71043
 408,34;  792,002;   50,933; 1018,629;76,58072
 408,93;  806,185;   59,531; 1016,234;78,04450
 409,52;  816,583;   51,435; 1041,359;77,29354
 410,11;  841,888;   84,931; 1090,453;75,28004
 410,70;  845,033;   54,727; 1027,230;81,26510
 411,29;  867,294;   58,628; 1030,847;83,17739
 411,89;  877,637;   60,535; 1093,938;79,06911
 412,48;  853,546;   48,228; 1051,606;80,26065
 413,07;  907,563;   65,033; 1101,446;81,29291
 413,66;  910,234;   78,135; 1102,119;81,26096
 414,25;  936,209;   63,337; 1142,311;80,89829
 414,84;  949,585;   69,431; 1102,434;85,20343
 415,44;  972,969;   91,530; 1155,939;82,81015
 416,03;  979,302;   76,637; 1161,173;83,23053
 416,62;  996,122;   76,138; 1168,687;84,20525
 417,21;  991,121;   75,334; 1158,843;84,52049
 417,80; 1019,360;   65,037; 1162,871;86,92785
 418,39; 1018,941;   78,440; 1179,201;85,44102
 418,98;  992,115;   55,634; 1143,405;86,09171
 419,58; 1000,308;   64,033; 1142,067;86,85024
 420,17; 1013,479;   52,735; 1164,540;86,41299
 420,76; 1017,502;   72,537; 1192,873;84,34658
 421,35; 1001,489;   60,236; 1155,197;85,96223
 421,94; 1044,241;   88,340; 1223,501;84,20844
 422,53; 1039,245;   61,540; 1195,320;86,23407
 423,12; 1041,277;   64,039; 1190,766;86,73247
 423,71; 1031,037;   60,835; 1162,138;88,09588
 424,30; 1072,347;   85,236; 1210,695;87,70745
 424,90; 1040,267;   39,438; 1163,809;89,01237
 425,49; 1071,290;   70,140; 1216,242;87,35263
 426,08; 1061,090;   80,240; 1209,641;86,84686
 426,67; 1043,541;   57,436; 1168,257;88,77262
 427,26; 1074,174;   60,343; 1230,391;86,64869
 427,85; 1055,219;   63,238; 1209,968;86,50514
 428,44; 1079,816;   68,442; 1218,093;87,97223
 429,03; 1105,509;   85,341; 1233,155;88,87921
 429,62; 1078,358;   78,941; 1240,296;86,05610
 430,21; 1094,335;   81,443; 1277,807;84,66421
 430,80; 1087,507;   70,445; 1235,381;87,30627
 431,39; 1090,139;   53,344; 1246,926;86,86413
 431,99; 1076,337;   78,535; 1206,838;88,43392
 432,58; 1102,777;   82,639; 1251,166;87,30120
 433,17; 1083,934;   69,735; 1238,319;86,78874
 433,76; 1099,030;   71,347; 1288,314;84,44625
 434,35; 1109,203;   88,245; 1292,462;84,78196
 434,94; 1135,301;   70,849; 1318,887;85,29003
 435,53; 1093,429;   78,643; 1278,669;84,56364
 436,12; 1121,287;   70,044; 1294,267;85,87025
 436,71; 1135,348;   87,740; 1303,239;86,18747
 437,30; 1119,454;   76,941; 1299,177;85,29560
 437,89; 1154,052;   76,245; 1320,802;86,60164
 438,48; 1128,622;   65,942; 1305,731;85,71459
 439,07; 1157,073;   95,238; 1347,147;84,81732
 439,66; 1184,388;   83,648; 1375,711;85,19243
 440,25; 1168,687;   85,844; 1390,567;82,99412
 440,84; 1198,959;   79,850; 1387,984;85,55002
 441,43; 1203,370;   78,054; 1440,985;82,56581
 442,02; 1181,966;   79,650; 1411,022;82,79544
 442,61; 1204,439;   93,344; 1397,226;85,21435
 443,20; 1234,807;   94,249; 1446,625;84,33738
 443,79; 1238,020;   74,546; 1412,957;86,92952
 444,38; 1263,643;   84,248; 1461,789;85,61591
 444,97; 1253,762;   84,146; 1466,359;84,61906
 445,56; 1305,017;  101,846; 1477,038;87,49112
 446,15; 1311,827;   81,651; 1522,539;85,37625
 446,74; 1300,190;   58,644; 1462,286;88,45180
 447,33; 1358,920;   82,646; 1538,357;87,67359
 447,92; 1383,124;   78,151; 1570,720;87,43134
 448,51; 1393,913;   89,746; 1586,019;87,16108
 449,10; 1417,358;   92,045; 1608,840;87,37589
 449,69; 1470,369;   73,950; 1627,741;89,87171
 450,28; 1479,836;   66,948; 1608,251;91,66840
 450,87; 1510,233;   78,647; 1656,333;90,73962
 451,46; 1563,646;   96,048; 1702,208;91,37306
 452,05; 1571,559;   70,950; 1715,384;91,25381
 452,64; 1625,417;   70,850; 1725,182;93,96949
 453,23; 1674,385;  113,752; 1794,936;92,82941
 453,82; 1691,772;   83,451; 1800,660;93,65900
 454,40; 1717,617;   65,450; 1786,682;95,98748
 454,99; 1775,953;  101,253; 1871,891;94,58176
 455,58; 1770,226;   69,747; 1832,095;96,48945
 456,17; 1808,243;   63,852; 1873,634;96,38684
 456,76; 1838,724;   67,751; 1918,820;95,67298
 457,35; 1903,743;   78,348; 1930,490;98,55590
 457,94; 1919,960;   66,954; 1978,929;96,91581
 458,53; 1938,021;   67,350; 2010,101;96,28978
 459,12; 2021,351;   82,657; 2111,116;95,57470
 459,71; 2009,439;   58,148; 2060,071;97,47088
 460,30; 2050,288;   84,448; 2087,511;98,14169
 460,89; 2081,224;   57,551; 2129,920;97,65023
 461,48; 2091,560;   75,954; 2173,829;96,07847
 462,06; 2105,462;   68,050; 2187,303;96,13821
 462,65; 2128,449;   48,249; 2176,527;97,74099
 463,24; 2186,386;   87,456; 2288,680;95,35284
 463,83; 2176,562;   54,450; 2229,803;97,55253
 464,42; 2234,101;   88,349; 2333,687;95,56476
 465,01; 2239,617;   73,050; 2336,482;95,72045
 465,60; 2249,666;   64,050; 2384,322;94,19651
 466,19; 2304,660;   73,354; 2462,829;93,38060
 466,77; 2276,127;   81,551; 2462,939;92,15534
 467,36; 2302,799;   69,457; 2459,256;93,45312
 467,95; 2311,179;   79,551; 2466,098;93,50863
 468,54; 2313,866;   71,954; 2513,866;91,80969
 469,13; 2319,934;   69,452; 2535,977;91,24099
 469,72; 2343,976;   67,555; 2582,723;90,50770
 470,31; 2357,379;   87,855; 2629,242;89,30257
 470,90; 2336,211;   76,750; 2652,044;87,73603
 471,48; 2348,302;   32,057; 2671,875;87,74260
 472,07; 2402,978;  125,747; 2686,454;88,92977
 472,66; 2394,098;   67,853; 2748,412;86,78210
 473,25; 2387,427;   68,351; 2723,339;87,34789
 473,84; 2413,221;   55,955; 2766,545;86,96506
 474,43; 2463,073;   55,459; 2843,049;86,36904
 475,01; 2495,818;   69,254; 2885,926;86,15003
 475,60; 2497,824;   49,755; 2882,364;86,42455
 476,19; 2574,612;   74,158; 2956,932;86,73777
 476,78; 2588,899;   71,057; 2964,456;87,02020
 477,37; 2608,824;   59,355; 2945,364;88,33893
 477,95; 2624,083;   75,656; 3018,661;86,59266
 478,54; 2691,153;   63,253; 3023,691;88,76729
 479,13; 2712,453;   56,253; 3070,291;88,12764
 479,72; 2787,063;   81,154; 3090,147;89,92738
 480,31; 2813,577;   63,459; 3167,468;88,59890
 480,89; 2820,118;   60,254; 3171,026;88,71958
 481,48; 2894,538;   46,260; 3214,084;89,91276
 482,07; 2898,766;   61,654; 3233,866;89,43639
 482,66; 2958,905;   52,853; 3253,650;90,79150
 483,25; 3006,138;   78,960; 3319,884;90,31925
 483,83; 2991,070;   59,954; 3325,385;89,76197
 484,42; 3023,260;   54,354; 3355,129;89,94573
 485,01; 3040,509;   65,958; 3400,413;89,20650
 485,60; 3098,532;   73,764; 3490,590;88,52567
 486,18; 3070,583;   66,956; 3490,761;87,72772
 486,77; 3089,685;   67,252; 3519,736;87,54372
 487,36; 3117,684;   58,464; 3561,750;87,32430
 487,95; 3140,196;   59,161; 3640,781;86,02350
 488,53; 3130,145;   54,461; 3642,522;85,71994
 489,12; 3104,726;   50,563; 3722,252;83,18140
 489,71; 3050,409;   38,062; 3680,357;82,70464
 490,30; 3092,741;   61,460; 3742,503;82,34843
 490,88; 3097,548;   87,561; 3859,141;79,80706
 491,47; 3077,577;   60,663; 3867,512;79,24965
 492,06; 3045,119;   62,563; 3920,615;77,30732
 492,65; 3018,851;   59,161; 3947,060;76,12570
 493,23; 2993,886;   54,860; 3982,825;74,82314
 493,82; 3006,102;   65,853; 4018,031;74,39565
 494,41; 2954,054;   51,361; 4066,179;72,29950
 494,99; 2944,021;   73,655; 4126,945;70,81572
 495,58; 2910,141;   86,060; 4224,403;68,24183
 496,17; 2889,586;   56,356; 4198,681;68,39710
 496,76; 2895,283;   65,356; 4276,761;67,19674
 497,34; 2886,154;   54,557; 4305,235;66,61518
 497,93; 2852,402;   66,057; 4350,675;65,03135
 498,52; 2866,480;   60,059; 4454,387;63,86462
 499,10; 2875,161;   75,862; 4533,217;62,80180
 499,69; 2860,983;   55,360; 4537,006;62,60253
 500,28; 2816,977;   37,959; 4592,068;61,02221
 500,86; 2909,406;   62,862; 4698,539;61,40516
 501,45; 2916,406;   53,462; 4730,438;61,21357
 502,04; 2943,409;   53,362; 4813,958;60,70769
 502,62; 2947,386;   70,956; 4856,181;60,11066
 503,21; 2974,189;   57,856; 4939,699;59,73836
 503,80; 3029,113;   69,662; 5015,577;59,83627
 504,38; 3031,386;   58,460; 5081,425;59,18669
 504,97; 3075,113;   49,962; 5122,776;59,63456
 505,56; 3131,522;   70,859; 5194,989;59,73039
 506,14; 3166,135;   64,064; 5263,709;59,65929
 506,73; 3130,494;   23,565; 5292,507;58,96685
 507,32; 3215,300;   62,865; 5376,045;59,33236
 507,90; 3232,438;   70,860; 5443,284;58,84826
 508,49; 3235,045;   58,865; 5500,366;58,36956
 509,08; 3238,481;   67,264; 5571,931;57,60960
 509,66; 3313,190;   69,960; 5677,644;57,83546
 510,25; 3297,800;   63,561; 5737,400;57,00265
 510,83; 3323,894;   45,165; 5855,607;56,42822
 511,42; 3332,688;   61,968; 5895,913;56,06360
 512,01; 3312,839;   59,164; 5980,328;54,94992
 512,59; 3331,613;   46,562; 6041,676;54,79547
 513,18; 3369,354;   59,961; 6114,379;54,66080
 513,77; 3354,347;   42,257; 6171,797;54,03490
 514,35; 3334,468;   37,763; 6190,255;53,58324
 514,94; 3346,761;   58,662; 6323,517;52,48484
 515,52; 3342,458;   48,166; 6358,342;52,20603
 516,11; 3389,042;   80,665; 6474,047;51,74690
 516,69; 3290,528;   41,959; 6446,727;50,72111
 517,28; 3313,760;   83,358; 6541,973;50,01696
 517,87; 3279,057;   45,558; 6604,054;49,30245
 518,45; 3315,564;   74,858; 6626,192;49,46635
 519,04; 3263,619;   54,258; 6707,970;48,23413
 519,62; 3289,219;   55,863; 6774,114;48,12795
 520,21; 3302,010;   24,466; 6828,002;48,17413
 520,79; 3368,981;   52,068; 7000,875;47,73357
 521,38; 3334,093;   52,960; 6995,363;47,26221
 521,97; 3358,736;   43,068; 7141,554;46,70952
 522,55; 3372,970;   67,759; 7195,230;46,37285
 523,14; 3423,122;   26,759; 7180,289;47,47814
 523,72; 3498,845;   77,561; 7383,422;46,82931
 524,31; 3553,594;   71,665; 7406,107;47,47367
 524,89; 3579,530;   48,468; 7526,815;47,21714
 525,48; 3607,965;   21,666; 7603,580;47,30071
 526,06; 3676,539;   56,264; 7633,128;47,78064
 526,65; 3802,362;   72,370; 7803,105;48,24887
 527,23; 3803,416;   46,262; 7840,596;48,20366
 527,82; 3913,723;   37,967; 7905,978;49,25967
 528,41; 4011,613;   67,366; 8041,021;49,46599
 528,99; 4048,646;   66,365; 8108,167;49,51976
 529,58; 4094,864;   42,562; 8168,736;49,86728
 530,16; 4225,154;   49,461; 8315,379;50,51699
 530,75; 4308,887;   73,964; 8417,069;50,75956
 531,33; 4342,765;   45,566; 8440,980;51,18507
 531,92; 4442,290;   48,560; 8567,344;51,57696
 532,50; 4547,756;   87,770; 8706,468;51,74779
 533,09; 4595,252;   65,665; 8807,204;51,81681
 533,67; 4673,367;   63,458; 8952,011;51,86343
 534,26; 4714,835;   65,760; 9007,665;51,99200
 534,84; 4783,951;   68,461; 9127,061;52,05540
 535,42; 4826,687;   61,564; 9205,969;52,10971
 536,01; 4950,719;   79,263; 9330,215;52,65897
 536,59; 5003,510;   43,366; 9482,202;52,55038
 537,18; 5061,983;   77,360; 9568,605;52,51812
 537,76; 5106,479;   56,972; 9764,700;52,01533
 538,35; 5154,385;   59,368; 9892,694;51,81377
 538,93; 5250,739;   72,664; 9941,828;52,46721
 539,52; 5280,962;   57,370;10111,405;51,95518
 540,10; 5368,949;   63,269;10309,029;51,78415
 540,69; 5410,429;   68,763;10444,071;51,48441
 541,27; 5447,361;   58,262;10514,917;51,53750
 541,85; 5520,907;   47,366;10658,783;51,58162
 542,44; 5566,438;   56,460;10765,484;51,45173
 543,02; 5663,349;   80,369;10952,729;51,35021
 543,61; 5723,571;   77,067;11102,218;51,21476
 544,19; 5755,855;   55,066;11264,023;50,85923
 544,78; 5783,362;   62,766;11296,562;50,92309
 545,36; 5881,746;   77,469;11521,011;50,72099
 545,94; 5914,687;   54,564;11563,069;50,91993
 546,53; 5972,976;   52,771;11724,882;50,72094
 547,11; 6064,140;   90,668;11879,873;50,66899
 547,70; 6099,583;   75,860;11954,706;50,70967
 548,28; 6154,545;   47,965;12093,066;50,69763
 548,86; 6184,845;   81,365;12327,767;49,83897
 549,45; 6237,836;   33,768;12364,953;50,31202
 550,03; 6309,175;   76,467;12507,537;50,13814
 550,62; 6381,358;   63,566;12662,842;50,14409
 551,20; 6488,372;   61,467;12808,418;50,41915
 551,78; 6508,284;   61,164;12952,850;50,00991
 552,37; 6579,787;   55,864;13112,469;49,96646
 552,95; 6648,642;   56,765;13214,547;50,09870
 553,54; 6767,594;   49,965;13393,207;50,34480
 554,12; 6785,026;   67,167;13498,797;50,01522
 554,70; 6889,740;   67,568;13736,973;49,90833
 555,29; 6913,049;   61,965;13856,285;49,66598
 555,87; 7006,459;   60,170;13987,786;49,87421
 556,45; 7039,709;   57,162;14154,058;49,53252
 557,04; 7069,068;   43,667;14376,600;49,01580
 557,62; 7199,768;   68,867;14525,499;49,32616
 558,20; 7220,627;   42,671;14799,940;48,64013
 558,79; 7360,981;  100,368;14905,875;49,03995
 559,37; 7311,472;   49,867;15000,418;48,57082
 559,95; 7418,743;   46,669;15169,691;48,74736
 560,54; 7512,588;   71,768;15324,613;48,78316
 561,12; 7556,262;   50,866;15485,562;48,62678
 561,70; 7598,694;   50,369;15679,551;48,29636
 562,29; 7685,285;   61,768;15810,994;48,40566
 562,87; 7779,836;   73,168;16023,953;48,31529
 563,45; 7875,036;   71,068;16194,754;48,40065
 564,04; 7893,116;   54,362;16227,195;48,46865
 564,62; 7966,091;   37,769;16438,332;48,34177
 565,20; 8017,106;   59,962;16715,838;47,77380
 565,78; 8088,097;   70,765;16797,326;47,93174
 566,37; 8135,207;   71,066;17011,283;47,60353
 566,95; 8222,550;   52,969;17124,330;47,85547
 567,53; 8331,310;   67,262;17308,857;47,93088
 568,12; 8346,745;   62,265;17367,766;47,87195
 568,70; 8504,091;   85,264;17565,889;48,16090
 569,28; 8461,294;   61,069;17745,252;47,50135
 569,86; 8495,620;   67,767;17910,758;47,23341
 570,45; 8692,201;   78,569;18124,689;47,73121
 571,03; 8643,258;   53,962;18259,898;47,17855
 571,61; 8764,166;   46,571;18424,824;47,43430
 572,19; 8764,471;   54,263;18395,773;47,48904
 572,78; 8840,581;   70,668;18668,975;47,15436
 573,36; 8883,987;   84,264;18797,668;47,02364
 573,94; 8934,784;   44,064;18892,750;47,16891
 574,52; 8991,776;   54,559;19030,768;47,09696
 575,11; 9052,780;   37,264;19159,830;47,14596
 575,69; 9123,465;   53,566;19268,680;47,20190
 576,27; 9084,896;   47,161;19391,381;46,72060
 576,85; 9226,987;   43,264;19549,668;47,08055
 577,44; 9203,609;   30,262;19814,158;46,36775
 578,02; 9221,780;   32,159;19753,887;46,59643
 578,60; 9323,232;   50,464;20073,791;46,30983
 579,18; 9384,426;   51,963;20160,752;46,40987
 579,76; 9401,739;   40,264;20300,129;46,20700
 580,35; 9503,904;   60,170;20436,707;46,34612
 580,93; 9521,979;   59,667;20641,557;45,97397
 581,51; 9522,556;   24,770;20697,168;45,94429
 582,09; 9612,268;   58,663;20755,756;46,15916
 582,67; 9666,571;   49,567;20971,318;45,96654
 583,26; 9802,388;   28,568;21227,014;46,10630
 583,84; 9826,436;   14,164;21413,709;45,85271
 584,42; 9931,790;   48,064;21513,287;46,04530
 585,00;10004,265;   81,366;21772,180;45,74701
 585,58;10026,969;   25,167;21912,299;45,69718
 586,17;10099,345;   46,761;21948,521;45,89852
 586,75;10069,210;    6,666;22026,902;45,69680
 587,33;10158,823;   47,767;22191,678;45,66066
 587,91;10232,510;   74,866;22390,201;45,51867
 588,49;10148,609;   63,962;22349,758;45,25146
 589,07;10198,229;   45,468;22403,215;45,41049
 589,65;10176,316;   28,267;22444,439;45,27111
 590,24;10155,357;   42,562;22447,799;45,13586
 590,82;10095,651;   28,261;22484,160;44,83183
 591,40;10117,136;   41,464;22520,209;44,82311
 591,98;10095,229;   45,759;22558,227;44,63957
 592,56;10146,151;   61,161;22699,961;44,54737
 593,14;10087,328;   43,359;22728,928;44,27471
 593,72;10045,894;   29,765;22889,107;43,81635
 594,30;10044,280;   36,759;22797,486;43,96837
 594,89; 9992,139;   41,364;22862,428;43,60346
 595,47; 9963,245;   38,961;22922,623;43,36843
 596,05; 9949,168;   30,267;23003,799;43,17534
 596,63; 9873,568;   31,167;23056,199;42,74653
 597,21; 9848,059;   36,766;23145,441;42,45718
 597,79; 9821,116;   35,467;23166,039;42,30613
 598,37; 9837,753;   36,669;23222,748;42,27141
 598,95; 9827,910;   50,766;23305,301;42,04403
 599,53; 9735,447;   46,757;23207,996;41,83149
 600,11; 9736,042;   48,665;23341,947;41,58872
 600,70; 9646,178;   57,363;23315,111;41,22847
 601,28; 9630,535;   38,564;23424,809;41,01544
 601,86; 9539,110;   61,766;23355,102;40,68694
 602,44; 9563,651;   23,661;23449,660;40,72394
 603,02; 9531,334;   38,656;23576,521;40,32939
 603,60; 9575,512;   54,858;23663,232;40,32744
 604,18; 9518,322;   69,263;23594,734;40,16523
 604,76; 9386,367;   59,263;23642,154;39,55030
 605,34; 9229,403;   27,565;23530,764;39,15143
 605,92; 9143,503;   59,561;23453,719;38,82996
 606,50; 9075,658;   17,662;23498,998;38,57530
 607,08; 8931,465;   31,666;23394,881;38,09321
 607,66; 8864,958;   39,266;23561,643;37,52041
 608,24; 8672,920;   46,067;23522,059;36,74756
 608,82; 8629,480;   26,164;23532,031;36,60072
 609,40; 8403,113;   46,466;23471,021;35,67473
 609,98; 8330,639;   18,864;23505,928;35,38873
 610,56; 8198,593;   43,861;23497,662;34,76934
 611,14; 8071,648;   30,765;23481,086;34,28901
 611,72; 8011,445;   42,665;23572,467;33,86676
 612,30; 7907,816;   24,962;23468,496;33,62485
 612,88; 7824,470;   60,659;23517,730;33,09796
 613,46; 7729,558;   21,862;23505,697;32,82128
 614,04; 7724,140;   30,068;23461,873;32,83602
 614,62; 7743,396;   41,561;23489,982;32,84586
 615,20; 7709,430;   52,768;23402,416;32,79134
 615,78; 7712,949;   25,569;23463,430;32,79898
 616,36; 7756,584;   41,364;23400,150;33,02920
 616,94; 7782,858;    7,666;23272,242;33,42074
 617,52; 7781,078;   24,067;23373,656;33,22119
 618,10; 7829,825;   63,559;23336,107;33,37093
 618,68; 7812,207;   17,966;23253,184;33,54495
 619,26; 7882,233;   39,268;23398,834;33,57496
 619,84; 7808,623;   18,963;23277,133;33,49214
 620,42; 7820,294;   31,165;23313,506;33,45509
 621,00; 7788,694;   28,865;23209,607;33,47533
 621,58; 7738,783;   38,760;23216,406;33,22177
 622,16; 7719,414;   49,270;23335,164;32,93901
 622,74; 7724,358;   47,066;23327,742;32,97710
 623,32; 7593,855;   42,166;23291,223;32,48170
 623,90; 7553,117;   66,971;23311,484;32,20608
 624,48; 7442,258;   32,662;23196,598;31,98764
 625,05; 7376,558;   34,562;23105,098;31,82412
 625,63; 7321,358;   52,962;23188,799;31,41618
 626,21; 7225,816;   38,262;23117,596;31,14281
 626,79; 7216,071;   53,967;23219,719;30,91678
 627,37; 7187,461;   28,162;23090,717;31,04296
 627,95; 7180,930;   72,768;23200,215;30,73475
 628,53; 7143,294;   49,365;23176,607;30,67348
 629,11; 7080,773;   48,259;23043,449;30,58255
 629,69; 7112,791;   53,369;23256,932;30,42387
 630,27; 7189,723;   80,763;23105,434;30,87540
 630,84; 7143,358;   43,862;23021,197;30,89782
 631,42; 7200,878;   54,367;23319,656;30,71748
 632,00; 7205,077;   45,459;23125,768;31,02046
 632,58; 7295,429;   50,263;23105,172;31,42570
 633,16; 7304,663;   49,870;23096,906;31,47820
 633,74; 7316,391;   56,264;23018,488;31,61770
 634,32; 7284,548;   45,661;23007,842;31,52526
 634,90; 7337,811;   51,970;23195,746;31,48078
 635,47; 7322,290;   38,860;23035,645;31,67151
 636,05; 7228,948;   37,461;22989,342;31,33289
 636,63; 7208,194;   45,965;23104,807;31,06066
 637,21; 7230,939;   67,464;23150,529;31,03346
 637,79; 7191,052;   71,465;23192,904;30,79214
 638,37; 7051,028;   54,055;23070,883;30,39938
 638,94; 6962,648;   33,265;23100,686;30,03970
 639,52; 6899,249;   41,665;23195,285;29,61776
 640,10; 6813,303;   64,264;23215,900;29,15146
 640,68; 6722,654;   54,164;23175,334;28,84149
 641,26; 6638,305;   35,864;23250,268;28,44114
 641,84; 6531,756;   39,164;23235,002;27,99033
 642,41; 6468,007;   28,264;23192,936;27,79985
 642,99; 6404,658;   48,464;23145,568;27,51944
 643,57; 6375,709;   22,064;23158,402;27,46176
 644,15; 6323,960;   27,064;23178,035;27,19927
 644,73; 6340,511;   37,564;23277,568;27,12111
 645,30; 6357,762;   55,264;23230,303;27,19520
 645,88; 6364,712;   44,964;23362,635;27,10283
 646,46; 6384,963;   59,264;23447,568;27,04642
 647,04; 6464,814;   51,864;23367,902;27,50446
 647,61; 6499,766;   46,564;23396,336;27,63711
 648,19; 6579,116;   61,664;23433,369;27,88608
 648,77; 6670,267;   26,264;23442,002;28,37409
 649,35; 6750,818;   51,064;23590,137;28,46227
 649,92; 6825,069;   42,464;23596,070;28,79646
 650,50; 6795,420;   30,064;23551,104;28,76300
 651,08; 6870,971;   39,964;23450,537;29,17915
 651,66; 6968,522;   21,864;23534,770;29,54402
 652,23; 6971,673;   39,064;23561,004;29,47295
 652,81; 7004,524;   36,464;23644,137;29,51608
 653,39; 7013,274;   56,164;23647,170;29,49052
 653,97; 6990,326;   37,065;23882,504;29,15971
 654,54; 6916,477;   23,565;23823,137;28,96234
 655,12; 6917,627;   30,965;23831,971;28,93434
 655,70; 6891,678;   42,065;23962,805;28,63462
 656,28; 6837,529;   32,765;23947,037;28,45483
 656,85; 6769,580;   44,065;24051,070;28,01480
 657,43; 6610,931;   -1,035;23831,305;27,74367
 658,01; 6565,182;   21,465;24078,539;27,20080
 658,58; 6574,533;   55,165;24234,371;26,96270
 659,16; 6484,684;   51,965;24154,105;26,68941
 659,74; 6475,135;   59,465;24338,039;26,42523
 660,32; 6447,186;   71,665;24327,672;26,28430
 660,89; 6376,737;   34,265;24347,305;26,08671
 661,47; 6438,288;   51,665;24464,939;26,16045
 662,05; 6474,539;   25,365;24587,373;26,25670
 662,62; 6559,489;   59,665;24584,006;26,50356
 663,20; 6643,541;   80,665;24740,139;26,61401
 663,78; 6675,791;   47,965;24902,773;26,66617
 664,35; 6822,742;   52,465;24921,006;27,22426
 664,93; 6932,793;   64,465;25123,539;27,40855
 665,51; 7007,744;   49,565;25170,973;27,69821
 666,08; 7126,595;   30,165;25185,707;28,21020
 666,66; 7284,346;   47,465;25667,539;28,24692
 667,23; 7405,497;   51,765;25732,773;28,63490
 667,81; 7531,948;   65,865;25889,307;28,91204
 668,39; 7610,999;   43,265;26047,141;29,10233
 668,96; 7728,149;   54,665;26309,074;29,22741
 669,54; 7748,900;   38,765;26408,408;29,23868
 670,12; 7867,251;   51,165;26808,740;29,21074
 670,69; 7931,502;   64,165;26950,674;29,26128
 671,27; 7892,253;   25,565;27096,008;29,06006
 671,84; 7849,704;   40,665;27105,240;28,85336
 672,42; 7874,355;   66,265;27253,875;28,71929
 673,00; 7806,706;   57,165;27531,408;28,20657
 673,57; 7721,357;   59,965;27276,441;28,14983
 674,15; 7672,108;   64,065;27613,475;27,61599
 674,72; 7569,359;   58,565;27536,209;27,33420
 675,30; 7513,010;   69,466;27513,541;27,12259
 675,88; 7444,960;   36,266;27573,176;26,90460
 676,45; 7379,412;   59,466;27677,309;26,50441
 677,03; 7293,862;   67,866;27525,043;26,31733
 677,60; 7247,113;   41,466;27770,576;25,98586
 678,18; 7251,064;   59,466;27877,510;25,85228
 678,76; 7171,015;   40,766;27809,143;25,67759
 679,33; 7248,966;   57,666;27813,176;25,90945
 679,91; 7231,017;   44,266;27813,311;25,88044
 680,48; 7261,468;   28,766;27740,242;26,10002
 681,06; 7317,819;   50,866;27735,176;26,24936
 681,63; 7372,470;   37,566;27736,209;26,48109
 682,21; 7471,021;   67,966;27797,543;26,69732
 682,78; 7432,972;   20,566;27459,576;27,01412
 683,36; 7610,922;   46,966;27565,510;27,48676
 683,93; 7605,374;   30,466;27450,645;27,62530
 684,51; 7714,725;   26,166;27477,277;28,00819
 685,08; 7920,976;   38,966;27733,711;28,46031
 685,66; 7958,226;   53,066;27694,045;28,59942
 686,24; 8084,877;   33,766;27796,578;28,99963
 686,81; 8174,628;   57,666;27899,910;29,15340
 687,39; 8184,179;   38,866;27807,844;29,33242
 687,96; 8221,630;   54,166;27850,479;29,38326
 688,54; 8258,480;   30,866;27984,811;29,43275
 689,11; 8274,332;   26,966;28043,545;29,43745
 689,69; 8280,982;   29,666;28019,279;29,47992
 690,26; 8342,733;   59,466;28289,313;29,34223
 690,84; 8238,885;   50,066;28239,846;29,04889
 691,41; 8253,436;   35,966;28403,879;28,96748
 691,98; 8154,386;   31,466;28427,912;28,60541
 692,56; 8091,938;   32,866;28437,445;28,37244
 693,13; 8085,888;   64,866;28655,080;28,05513
 693,71; 8016,539;   24,466;28657,912;27,91167
 694,28; 7937,990;   41,966;28715,945;27,53725
 694,86; 7952,741;   47,266;28928,879;27,37200
 695,43; 7873,992;   61,366;29100,912;26,90340
 696,01; 7898,743;   36,266;29145,547;27,01020
 696,58; 7850,894;   42,167;29083,879;26,88797
 697,16; 7826,545;   38,067;29126,414;26,77525
 697,73; 7933,295;   63,467;29338,246;26,88262
 698,30; 7907,947;   51,867;29223,980;26,93010
 698,88; 8007,498;   40,467;29558,613;26,99028
 699,45; 8125,448;   35,367;29765,848;27,21140
 700,03; 8142,399;   56,067;29750,980;27,23137
 700,60; 8263,851;   56,267;29850,613;27,54745
 701,18; 8326,201;   61,867;29963,947;27,63799
 701,75; 8504,952;   74,367;30094,682;28,08293
 702,32; 8526,803;   50,367;29901,914;28,39530
 702,90; 8700,954;   52,467;30254,148;28,63578
 703,47; 8857,705;   51,367;30428,881;28,98966
 704,05; 8950,456;   67,767;30546,715;29,14369
 704,62; 9074,106;   39,867;30587,848;29,57393
 705,19; 9187,558;   43,667;30586,982;29,93745
 705,77; 9278,009;   29,967;30618,314;30,23387
 706,34; 9336,560;   61,667;30627,049;30,34444
 706,91; 9425,110;   46,367;30673,883;30,62195
 707,49; 9493,562;   57,267;30976,316;30,51936
 708,06; 9553,212;   66,367;31089,049;30,58035
 708,64; 9528,763;   25,767;31093,582;30,58791
 709,21; 9488,614;   58,167;31179,316;30,30237
 709,78; 9475,265;   41,367;31281,150;30,19834
 710,36; 9498,516;   61,667;31419,684;30,09389
 710,93; 9484,667;   50,567;31562,416;29,93826
 711,50; 9478,418;   44,467;31506,049;29,98562
 712,08; 9441,068;   76,567;31925,383;29,40298
 712,65; 9332,819;   73,667;31775,916;29,20661
 713,22; 9287,570;   69,067;31900,250;28,96060
 713,80; 9299,422;   84,167;31966,883;28,90361
 714,37; 9213,272;   55,767;31827,018;28,82324
 714,94; 9165,123;   53,967;31727,551;28,76579
 715,52; 9130,774;   47,867;31732,984;28,66616
 716,09; 9134,625;   65,467;31891,918;28,49566
 716,66; 9095,977;   73,467;31935,051;28,31783
 717,23; 9173,527;   66,867;31908,484;28,59987
 717,81; 9172,878;   50,168;31812,018;28,72223
 718,38; 9125,629;   47,468;31671,252;28,70675
 718,95; 9186,779;   59,068;31618,984;28,92185
 719,53; 9224,730;   56,568;31661,418;29,00872
 720,10; 9326,182;   59,968;31481,252;29,49025
 720,67; 9359,532;   35,768;31355,984;29,76916
 721,24; 9380,384;   59,468;31256,020;29,87803
 721,82; 9453,834;   49,968;31236,053;30,15405
 722,39; 9595,886;   64,068;31235,885;30,57832
 722,96; 9750,836;   64,968;31261,420;31,04798
 723,53; 9875,987;   88,268;31151,953;31,50856
 724,11; 9989,938;   61,568;31207,486;31,87696
 724,68;10037,989;   71,568;31242,020;31,97394
 725,25;10120,439;   72,768;31399,953;32,07333
 725,82;10254,690;   96,068;31564,387;32,28206
 726,40;10385,542;   62,668;31714,820;32,61350
 726,97;10378,893;   62,168;31875,354;32,42908
 727,54;10474,243;   46,968;31801,486;32,83714
 728,11;10539,095;   49,568;32045,820;32,78361
 728,69;10577,546;   39,568;31938,953;33,03505
 729,26;10577,896;   53,568;32105,088;32,83566
 729,83;10613,247;   53,268;32264,621;32,78341
 730,40;10628,198;   66,768;32291,754;32,77404
 730,97;10674,449;   44,268;32590,588;32,66170
 731,55;10659,900;   41,468;32755,820;32,45802
 732,12;10655,751;   86,268;32841,656;32,26792
 732,69;10609,502;   66,968;32889,988;32,11933
 733,26;10559,153;   55,168;32930,520;31,95094
 733,83;10558,704;   41,168;32979,055;31,93142
 734,41;10584,154;   65,468;32991,590;31,94633
 734,98;10639,905;   51,368;33155,621;31,98543
 735,55;10689,856;   43,168;33183,656;32,12592
 736,12;10754,008;   65,968;33377,289;32,08531
 736,69;10771,559;   76,968;33377,922;32,11497
 737,26;10797,909;   57,468;33552,254;32,06601
 737,84;10867,660;   70,768;33487,188;32,31014
 738,41;10970,812;   63,168;33492,422;32,62904
 738,98;10998,462;   63,569;33375,055;32,82619
 739,55;11098,813;   49,669;33377,789;33,15262
 740,12;11290,563;   62,969;33678,023;33,40050
 740,69;11428,215;   70,569;33575,656;33,89827
 741,26;11466,366;   56,269;33557,391;34,05885
 741,83;11518,816;   53,869;33719,523;34,05532
 742,41;11697,367;   56,169;33833,055;34,46498
 742,98;11849,318;   91,469;33874,590;34,80392
 743,55;11948,270;   53,569;33836,824;35,20886
 744,12;12057,420;   50,469;33859,855;35,51366
 744,69;12165,171;   59,569;33848,492;35,82713
 745,26;12259,723;   42,169;33677,723;36,32333
 745,83;12365,573;   58,769;33854,355;36,41542
 746,40;12421,524;   57,969;33844,789;36,59284
 746,97;12448,075;   44,769;33828,125;36,71425
 747,55;12497,626;   62,269;33966,957;36,67740
 748,12;12585,877;   57,869;33910,191;37,00782
 748,69;12557,628;   68,769;33877,625;36,93961
 749,26;12690,679;   65,069;33958,559;37,25084
 749,83;12714,329;   42,569;33911,992;37,41357
 750,40;12775,780;   89,669;34158,824;37,23635
 750,97;12815,831;   96,269;34144,160;37,35786
 751,54;12773,383;   40,569;33980,793;37,51541
 752,11;12723,434;   52,969;33874,727;37,46247
 752,68;12786,884;   87,869;33912,859;37,54329
 753,25;12690,135;   60,269;33774,594;37,46142
 753,82;12710,986;   65,069;33810,527;37,47443
 754,39;12734,537;   75,169;33727,160;37,61848
 754,96;12609,088;   60,069;33616,395;37,39688
 755,53;12666,938;   29,469;33796,527;37,42544
 756,10;12693,689;   64,169;33720,961;37,52443
 756,67;12813,341;   73,369;33813,395;37,75922
 757,24;12800,792;   72,769;33740,426;37,80490
 757,81;12721,043;   16,469;33677,762;37,74238
 758,38;12870,993;   54,569;33822,695;37,95421
 758,95;12981,645;   79,469;33743,426;38,32638
 759,52;12990,295;   57,469;33615,859;38,53828
 760,09;13011,646;   68,570;33306,992;38,94011
 760,66;12998,197;   59,570;33309,727;38,91298
 761,23;13076,048;   91,070;33353,961;39,03743
 761,80;13126,599;   56,270;33295,793;39,32165
 762,37;13224,250;   68,970;33167,727;39,74554
 762,94;13213,201;   70,970;33187,461;39,68485
 763,51;13324,852;   36,070;32949,793;40,37459
 764,08;13375,203;   66,270;32998,527;40,41306
 764,65;13289,653;   69,570;32798,961;40,39209
 765,22;13411,904;   54,670;32804,496;40,78567
 765,79;13457,056;   77,370;32691,928;41,02366
 766,36;13539,106;   73,170;32743,063;41,21818
 766,93;13533,257;   68,970;32551,295;41,45112
 767,50;13557,008;   89,470;32828,328;41,13625
 768,07;13642,060;   63,870;32699,262;41,60572
 768,64;13605,510;   86,470;32572,596;41,61481
 769,21;13492,661;   57,970;32359,729;41,59121
 769,78;13430,712;   78,770;32244,963;41,50924
 770,34;13438,263;   45,570;32031,195;41,87097
 770,91;13429,214;   58,470;31921,430;41,96328
 771,48;13441,265;   62,370;31836,863;42,10577
 772,05;13353,115;   66,470;31610,697;42,12069
 772,62;13202,566;   42,670;31443,029;41,91002
 773,19;13325,917;   59,370;31579,764;42,08877
 773,76;13290,769;   71,070;31506,297;42,05377
 774,33;13186,619;   74,170;31447,330;41,79512
 774,90;13080,771;   52,870;31206,064;41,81883
 775,47;13069,521;   59,970;30957,498;42,10548
 776,03;13140,872;   73,470;30984,330;42,27447
 776,60;13098,022;   55,970;30757,863;42,47964
 777,17;13110,574;   65,470;30698,098;42,58565
 777,74;12991,024;   30,870;30522,031;42,50463
 778,31;13095,476;   68,970;30582,064;42,69153
 778,88;13054,526;   30,470;30366,898;42,93207
 779,45;13047,478;   75,770;30358,131;42,83585
 780,01;13005,528;   58,370;30299,664;42,81284
 780,58;13027,579;   60,570;30177,998;43,05483
 781,15;12980,130;   38,771;29979,432;43,22336
 781,72;12963,381;   66,771;29962,266;43,13898
 782,29;12906,832;   51,771;29667,100;43,40678
 782,86;12976,583;   55,571;29617,732;43,70794
 783,42;12971,234;   56,171;29598,166;43,71764
 783,99;13063,685;   66,671;29482,100;44,18434
 784,56;13108,436;   55,171;29320,232;44,60358
 785,13;13010,587;   40,271;29247,266;44,40825
 785,70;12897,938;   49,071;29060,299;44,28929
 786,26;12878,188;   51,671;28910,732;44,44537
 786,83;12892,439;   84,371;28889,166;44,46506
 787,40;12873,490;   57,171;28783,500;44,61524
 787,97;12779,642;   43,971;28581,133;44,62837
 788,54;12801,992;   70,371;28515,268;44,75889
 789,10;12678,043;   57,971;28344,400;44,61529
 789,67;12720,094;   70,371;28245,334;44,89703
 790,24;12652,445;   51,071;28193,768;44,77671
 790,81;12447,996;   88,271;27914,400;44,41769
 791,37;12489,146;   73,671;27872,135;44,66245
 791,94;12415,298;   70,771;27886,367;44,37988
 792,51;12313,148;   46,271;27539,201;44,61830
 793,08;12332,600;   69,771;27555,234;44,61569
 793,64;12270,650;   71,271;27455,168;44,54946
 794,21;12180,302;   69,671;27250,602;44,55561
 794,78;12092,753;   53,071;27147,035;44,43677
 795,35;12018,203;   73,471;27007,969;44,34734
 795,91;11960,055;   48,071;26789,301;44,54538
 796,48;11903,306;   55,771;26710,734;44,44776
 797,05;11836,756;   57,671;26624,369;44,33778
 797,62;11818,307;   41,971;26600,701;44,34073
 798,18;11800,258;   57,471;26410,736;44,55913
 798,75;11738,609;   56,571;26279,770;44,54849
 799,32;11767,160;   60,771;26209,102;44,76916
 799,88;11685,311;   55,971;26051,535;44,73586
 800,45;11591,861;   33,971;25945,270;44,60560
 801,02;11611,213;   65,271;25880,104;44,72600
 801,58;11587,063;   90,872;25660,436;44,96045
 802,15;11529,414;   72,872;25615,270;44,85304
 802,72;11418,466;   66,172;25404,703;44,80249
 803,28;11433,216;   49,172;25288,938;45,10360
 803,85;11398,567;   41,972;25144,871;45,24018
 804,42;11349,418;   77,772;24948,004;45,32184
 804,98;11399,770;  100,672;24935,537;45,49692
 805,55;11339,120;   56,972;24702,371;45,77791
 806,12;11324,871;   83,572;24611,004;45,83154
 806,68;11232,722;   66,472;24493,738;45,71224
 807,25;11248,772;   74,972;24436,271;45,86701
 807,82;11237,424;   86,872;24407,805;45,84755
 808,38;11143,274;   73,672;24367,037;45,56636
 808,95;11075,926;   62,972;24166,971;45,68932
 809,52;11089,576;   50,272;24162,004;45,78395
 810,08;11191,127;   55,172;23994,938;46,51656
 810,65;11140,679;   77,172;24169,672;45,92096
 811,21;11106,829;   69,972;24123,404;45,88475
 811,78;11168,680;   92,472;24337,539;45,68438
 812,35;11086,931;   64,972;24173,871;45,71739
 812,91;11237,182;   90,072;24239,705;46,15851
 813,48;11104,433;   68,172;24202,738;45,72803
 814,04;11143,184;   64,172;24088,373;46,11605
 814,61;11088,835;   77,572;24176,006;45,69286
 815,18;11031,786;   67,772;23892,539;46,01940
 815,74;10977,736;   69,772;23709,172;46,14315
 816,31;10868,588;   83,372;23614,406;45,83401
 816,87;10683,639;   43,272;23489,641;45,38173
 817,44;10684,689;   76,972;23452,273;45,38002
 818,00;10594,141;   43,272;23159,506;45,64268
 818,57;10589,892;   71,872;23076,340;45,72164
 819,14;10560,442;   82,872;22924,273;45,87096
 819,70;10406,193;   72,672;22792,707;45,48198
 820,27;10435,344;   62,972;22691,941;45,83669
 820,83;10338,195;   70,072;22541,373;45,69439
 821,40;10266,646;   98,072;22431,908;45,52990
 821,96;10256,896;   75,272;22315,541;45,78013
 822,53;10240,848;   70,973;22257,574;45,83791
 823,09;10244,799;   81,073;22073,309;46,21507
 823,66;10176,949;   68,173;21862,541;46,38252
 824,22;10085,700;   77,173;21851,674;45,96444
 824,79; 9988,251;   75,473;21561,408;46,13613
 825,35;10040,402;   65,173;21648,041;46,21828
 825,92; 9970,854;   75,173;21398,875;46,40695
 826,48; 9934,004;   87,673;21501,309;45,98159
 827,05; 9862,855;   89,573;21448,242;45,75792
 827,61; 9815,406;   75,273;21249,076;46,00087
 828,18; 9711,057;   60,873;21191,209;45,66981
 828,74; 9656,908;   91,673;21053,543;45,63159
 829,31; 9656,659;   83,373;21002,176;45,76403
 829,87; 9671,210;   73,073;20733,709;46,45615
 830,44; 9523,860;   85,173;20631,443;45,93869
 831,00; 9547,012;   91,273;20673,977;45,94022
 831,57; 9602,362;  101,573;20631,609;46,27751
 832,13; 9399,313;   72,073;20323,344;46,05756
 832,69; 9368,564;   58,173;20309,477;45,97428
 833,26; 9318,516;   85,473;20322,711;45,62403
 833,82; 9340,066;   93,073;20197,744;45,99425
 834,39; 9146,017;   78,773;20137,477;45,20354
 834,95; 9154,168;   57,173;19959,410;45,70840
 835,52; 9085,119;   87,873;19851,744;45,52370
 836,08; 9099,069;   95,573;19951,877;45,34326
 836,64; 9045,521;   76,273;19800,711;45,47277
 837,21; 8950,372;   88,673;19552,443;45,52920
 837,77; 8968,423;   91,873;19491,777;45,75564
 838,34; 8912,974;   67,473;19470,012;45,58940
 838,90; 8828,425;   64,473;19306,045;45,54696
 839,46; 8815,575;   83,873;19312,479;45,40996
 840,03; 8740,126;   76,173;19300,811;45,06692
 840,59; 8730,077;   85,873;19175,645;45,28186
 841,16; 8628,128;  105,173;19156,578;44,73662
 841,72; 8511,779;   59,373;18965,512;44,70720
 842,28; 8595,530;   77,873;18857,246;45,35645
 842,85; 8592,781;   95,573;18812,578;45,39833
 843,41; 8590,032;  105,374;18740,813;45,52970
 843,97; 8613,683;   89,174;18686,846;45,83643
 844,54; 8633,434;  104,774;18624,979;46,05057
 845,10; 8498,784;   89,174;18523,713;45,61877
 845,67; 8400,436;   68,774;18413,445;45,41734
 846,23; 8349,887;   78,674;18361,080;45,24138
 846,79; 8306,237;   90,474;18265,613;45,20330
 847,36; 8262,088;   55,774;18179,047;45,28053
 847,92; 8224,939;   84,874;18034,680;45,34905
 848,48; 8269,990;   41,874;18039,213;45,71852
 849,04; 8209,541;   62,374;17949,447;45,54779
 849,61; 8148,892;   56,274;17918,580;45,30556
 850,17; 8147,243;   68,174;17819,514;45,51245
 850,73; 8101,194;   71,474;17764,848;45,38264
 851,30; 8062,845;   46,074;17669,881;45,48830
 851,86; 8033,795;   75,874;17597,914;45,41664
 852,42; 7994,046;   51,174;17568,348;45,34334
 852,99; 8056,998;   79,274;17583,082;45,57707
 853,55; 8000,548;   83,174;17542,514;45,34750
 854,11; 7929,099;   70,074;17432,049;45,26573
 854,67; 7915,750;   85,474;17420,881;45,16927
 855,24; 7855,201;   51,874;17213,414;45,46985
 855,80; 7826,252;   76,874;17244,848;45,13857
 856,36; 7811,403;   80,574;17175,881;45,22194
 856,92; 7730,754;   54,474;17027,215;45,22711
 857,49; 7703,305;   81,274;17048,248;44,92275
 858,05; 7685,956;   67,274;16968,482;45,07773
 858,61; 7704,106;   65,774;17003,316;45,09705
 859,17; 7704,958;   77,374;16904,250;45,32977
 859,74; 7620,409;   82,074;16836,883;44,99207
 860,30; 7563,859;   93,074;16663,016;45,08637
 860,86; 7566,811;   72,074;16692,350;45,09394
 861,42; 7500,562;   74,674;16545,883;45,08405
 861,99; 7446,712;   54,674;16506,717;44,93082
 862,55; 7426,863;   66,374;16393,051;45,08259
 863,11; 7431,314;   75,174;16437,283;44,95838
 863,67; 7385,265;   61,274;16290,117;45,12947
 864,23; 7349,916;   80,175;16199,351;45,09996
 864,80; 7249,667;   69,175;16081,384;44,84386
 865,36; 7311,618;   71,875;16120,817;45,11041
 865,92; 7298,469;   96,175;16088,751;45,03523
 866,48; 7228,620;   67,375;15987,384;44,98267
 867,04; 7159,971;   60,675;15891,418;44,84500
 867,60; 7211,122;   99,375;15884,451;45,05361
 868,17; 7166,472;   93,675;15884,685;44,79003
 868,73; 7107,423;   82,775;15672,618;45,05914
 869,29; 7119,374;   59,475;15470,151;45,81174
 869,85; 7088,525;  100,475;15369,685;45,76563
 870,41; 6960,876;   80,575;15293,418;45,22692
 870,97; 7011,127;   92,975;15232,252;45,69671
 871,54; 6852,478;   84,175;15178,686;44,83950
 872,10; 6740,329;   84,275;15055,419;44,45922
 872,66; 6741,880;   66,775;14910,652;44,96874
 873,22; 6699,831;   81,975;14890,586;44,68924
 873,78; 6573,981;   65,275;14742,419;44,34587
 874,34; 6611,333;   95,075;14662,652;44,73124
 874,90; 6584,533;  109,775;14536,053;44,88169
 875,46; 6494,632;   96,375;14412,952;44,69125
 876,03; 6457,632;   86,475;14363,353;44,62571
 876,59; 6393,132;   64,475;14153,253;44,91985
 877,15; 6367,632;  101,475;14166,853;44,55022
 877,71; 6314,033;   78,275;14064,652;44,58451
 878,27; 6311,632;   95,675;13910,553;44,99466
 878,83; 6305,232;  114,275;13971,753;44,67593
 879,39; 6221,833;   91,075;14082,753;43,81717
 879,95; 6221,333;   86,275;13964,253;44,20714
 880,51; 6213,732;   75,175;13927,253;44,31507
 881,07; 6195,333;   82,375;13978,753;43,98957
 881,63; 6208,132;   92,575;13971,253;44,06441
 882,19; 6205,732;   82,675;13921,553;44,24533
 882,75; 6254,933;   86,275;14019,553;44,27284
 883,31; 6384,632;   95,575;14187,853;44,62769
 883,88; 6347,232;   96,375;14174,353;44,40167
 884,44; 6335,933;   76,175;14175,753;44,39677
 885,00; 6424,232;  106,075;14266,952;44,61699
 885,56; 6427,433;  101,675;14299,452;44,55456
 886,12; 6486,933;  109,875;14421,152;44,55967
 886,68; 6460,333;   90,775;14436,753;44,39960
 887,24; 6554,033;  102,475;14574,952;44,57812
 887,80; 6541,033;   86,975;14671,753;44,25201
 888,36; 6573,732;  106,275;14715,652;44,26922
 888,92; 6588,232;   98,975;14773,353;44,22169
 889,48; 6707,833;   99,575;14973,853;44,42742
 890,04; 6685,232;   95,275;14803,053;44,80594
 890,60; 6733,533;  117,475;15014,652;44,41149
 891,16; 6781,033;   99,875;15075,853;44,61250
 891,72; 6772,632;  113,275;15058,452;44,55857
 892,28; 6747,533;  112,475;15126,053;44,19371
 892,84; 6706,732;   93,775;15039,853;44,24544
 893,39; 6728,333;  117,575;15112,952;44,08530
 893,95; 6688,033;  112,975;15044,753;44,03399
 894,51; 6602,433;   66,375;14891,253;44,08844
 895,07; 6596,033;  127,375;14906,353;43,76932
 895,63; 6458,732;   74,275;14689,952;43,68226
 896,19; 6470,933;   90,375;14601,952;43,96874
 896,75; 6386,632;  105,175;14460,152;43,75804
 897,31; 6352,433;   82,775;14295,853;44,11189
 897,87; 6298,033;   98,175;14146,853;44,13126
 898,43; 6282,833;   87,775;14075,753;44,28844
 898,99; 6165,132;  109,175;14002,753;43,58818
 899,55; 6150,433;  109,475;13940,652;43,67638
 900,11; 6081,533;  104,975;13747,553;43,80813
 900,67; 5976,033;   91,375;13658,652;43,37390
 901,22; 5998,833;  108,375;13601,952;43,65379
 901,78; 5907,632;   91,275;13560,053;43,18400
 902,34; 5843,732;  103,075;13451,152;43,00737
 902,90; 5787,533;   73,575;13350,652;43,03626
 903,46; 5803,033;   95,775;13236,353;43,43232
 904,02; 5734,833;   88,075;13091,553;43,42498
 904,58; 5684,232;   67,075;12918,152;43,70962
 905,14; 5690,333;   63,975;12874,553;43,91962
 905,70; 5668,333;   66,775;12696,053;44,35374
 906,25; 5629,933;   84,375;12708,452;43,92842
 906,81; 5640,732;   87,675;12732,152;43,91686
 907,37; 5553,132;   79,275;12616,152;43,66205
 907,93; 5468,333;   74,775;12588,152;43,10233
 908,49; 5518,533;  101,875;12497,652;43,69760
 909,05; 5456,232;   89,675;12425,553;43,50365
 909,60; 5389,732;   86,575;12340,452;43,27738
 910,16; 5298,732;   67,675;12291,853;42,79271
 910,72; 5288,833;  100,475;12207,753;42,85321
 911,28; 5220,933;   90,875;12156,053;42,51954
 911,84; 5205,033;   79,575;12106,753;42,61563
 912,39; 5163,533;   73,475;12049,353;42,50259
 912,95; 5185,132;  104,475;12001,452;42,70545
 913,51; 5089,632;   85,375;11945,253;42,19485
 914,07; 5049,933;   83,775;11813,452;42,33840
 914,63; 5074,933;   64,775;11748,053;42,88315
 915,18; 4986,533;   77,475;11617,853;42,53810
 915,74; 4959,833;   63,975;11632,652;42,31994
 916,30; 4880,533;   61,475;11588,553;41,80641
 916,86; 4817,732;   83,575;11514,652;41,41480
 917,42; 4836,933;   82,275;11425,152;41,91756
 917,97; 4798,533;   75,375;11265,452;42,20845
 918,53; 4752,732;   67,775;11196,253;42,09882
 919,09; 4721,833;   88,975;11223,753;41,60709
 919,65; 4664,232;   83,375;11083,452;41,64387
 920,20; 4628,833;   61,875;10983,053;41,81745
 920,76; 4530,232;   65,475;10849,452;41,40177
 921,32; 4521,333;   82,675;10770,952;41,52828
 921,87; 4507,833;   97,475;10670,253;41,71427
 922,43; 4425,232;   64,675;10561,353;41,54226
 922,99; 4393,433;   61,875;10406,753;41,87152
 923,55; 4339,433;   63,775;10357,353;41,53714
 924,10; 4293,732;   73,575;10282,853;41,33649
 924,66; 4297,933;   78,675;10170,152;41,81011
 925,22; 4203,433;   43,275;10093,952;41,39181
 925,77; 4129,433;   66,075; 9927,053;41,20644
 926,33; 4129,232;   90,375; 9903,253;41,15875
 926,89; 4013,833;   71,975; 9692,753;40,97234
 927,44; 3990,532;   52,175; 9580,553;41,33293
 928,00; 3954,732;   66,875; 9533,753;41,06800
 928,56; 3905,633;   80,375; 9372,253;41,16776
 929,12; 3838,032;   72,775; 9275,152;40,91614
 929,67; 3705,532;   67,575; 9091,053;40,31658
 930,23; 3668,833;   50,975; 8915,253;40,81390
 930,78; 3651,232;  100,675; 8842,553;40,61550
 931,34; 3578,732;   61,975; 8632,152;41,03483
 931,90; 3449,933;   61,675; 8494,353;40,18009
 932,45; 3380,933;   78,775; 8290,753;40,21148
 933,01; 3264,833;   52,975; 8024,453;40,29187
 933,57; 3137,732;   72,175; 7753,252;39,91051
 934,12; 3007,232;   70,475; 7399,553;40,06995
 934,68; 2841,232;   59,075; 7020,252;39,96676
 935,24; 2691,333;   67,875; 6614,752;40,07189
 935,79; 2487,232;   72,975; 6254,853;39,05379
 936,35; 2370,133;   91,375; 5812,252;39,83231
 936,90; 2191,333;   80,275; 5348,752;40,06959
 937,46; 2007,833;   72,775; 4956,953;39,61890
 938,02; 1851,733;   63,375; 4549,152;39,86728
 938,57; 1757,532;   73,175; 4265,053;40,18146
 939,13; 1615,632;   70,575; 3986,752;39,45320
 939,68; 1483,132;   57,375; 3713,452;38,99692
 940,24; 1457,132;   68,775; 3504,052;40,41471
 940,79; 1407,432;   91,875; 3391,052;39,87532
 941,35; 1351,532;   79,675; 3217,552;40,53241
 941,91; 1283,833;   71,375; 3122,252;39,74127
 942,46; 1254,233;   75,075; 3063,552;39,45680
 943,02; 1244,432;   65,375; 3050,752;39,49442
 943,57; 1216,233;   61,275; 2982,452;39,53740
 944,13; 1222,733;   67,375; 2974,452;39,74292
 944,68; 1226,132;   65,975; 3041,752;38,98670
 945,24; 1249,532;   82,275; 3060,052;39,19895
 945,79; 1248,432;   68,775; 3104,052;38,86490
 946,35; 1268,333;   51,775; 3194,752;38,70717
 946,90; 1321,032;   98,575; 3283,552;38,38198
 947,46; 1328,632;   52,175; 3311,052;39,16862
 948,01; 1345,632;   51,575; 3390,052;38,76190
 948,57; 1422,132;   86,775; 3552,952;38,52536
 949,12; 1406,632;   65,875; 3613,353;37,79467
 949,68; 1468,233;   76,275; 3732,653;38,06931
 950,23; 1469,632;   70,075; 3833,252;37,19084
 950,79; 1502,833;   75,775; 3933,452;36,99266
 951,34; 1527,432;   83,275; 4070,952;36,21550
 951,90; 1562,032;   57,475; 4140,853;36,84591
 952,45; 1607,032;   81,075; 4292,152;36,23675
 953,01; 1598,632;   65,975; 4364,252;35,65748
 953,56; 1669,833;   87,975; 4500,853;35,84640
 954,12; 1648,932;   42,075; 4567,553;35,50691
 954,67; 1676,432;   70,875; 4720,453;34,53125
 955,23; 1727,333;   61,975; 4804,553;35,11503
 955,78; 1749,233;   67,175; 4882,953;34,92806
 956,33; 1707,932;   58,575; 4947,252;33,73832
 956,89; 1733,932;   53,475; 5038,553;33,70976
 957,44; 1805,532;   53,675; 5170,752;34,23551
 958,00; 1819,132;   49,475; 5238,353;34,10482
 958,55; 1870,032;   70,475; 5313,953;34,31992
 959,10; 1827,532;   52,375; 5370,252;33,38094
 959,66; 1881,032;   74,275; 5488,752;33,36901
 960,21; 1886,132;   78,475; 5567,453;32,93250
 960,77; 1883,733;   54,275; 5606,152;32,95205
 961,32; 1885,632;   48,375; 5663,453;32,72007
 961,87; 1920,632;   79,775; 5738,752;32,52986
 962,43; 1938,932;   68,975; 5780,652;32,73920
 962,98; 1954,833;   76,175; 5828,652;32,65823
 963,54; 1938,233;   27,075; 5820,652;32,98752
 964,09; 1930,432;   56,275; 5873,953;32,21487
 964,64; 1964,233;   64,975; 5901,053;32,54339
 965,20; 1953,032;   44,375; 5966,652;32,22844
 965,75; 1952,632;   66,575; 5976,353;31,91419
 966,30; 1961,333;   75,275; 6068,553;31,46955
 966,86; 1977,833;   62,975; 6121,953;31,60364
 967,41; 1954,532;   81,075; 6084,453;31,20672
 967,96; 1935,733;   75,175; 6108,953;30,83570
 968,52; 1939,733;   81,775; 6126,353;30,73759
 969,07; 1909,032;   72,975; 6120,152;30,36222
 969,62; 1900,132;   77,175; 6134,953;30,09284
 970,18; 1886,833;   57,575; 6147,652;30,03669
 970,73; 1863,333;   66,475; 6203,553;29,27872
 971,28; 1879,233;   95,775; 6197,053;29,23089
 971,84; 1849,532;   55,075; 6118,752;29,59355
 972,39; 1852,333;   95,875; 6148,652;29,01903
 972,94; 1822,833;   54,975; 6140,652;29,04948
 973,49; 1786,833;   64,575; 6141,252;28,34209
 974,05; 1768,932;   64,375; 6178,053;27,88105
 974,60; 1781,833;   88,575; 6213,252;27,64648
 975,15; 1753,032;   77,675; 6231,553;27,22442
 975,71; 1719,233;   62,375; 6121,453;27,34505
 976,26; 1723,333;   77,575; 6110,252;27,28071
 976,81; 1693,233;   90,675; 6134,152;26,51714
 977,36; 1687,833;   84,775; 6156,953;26,40004
 977,92; 1699,833;   90,175; 6209,353;26,30513
 978,47; 1664,733;   77,175; 6060,252;26,53413
 979,02; 1656,833;   95,475; 6085,652;26,06530
 979,57; 1631,532;   86,775; 6058,453;25,86807
 980,13; 1617,233;   76,175; 6038,752;25,84549
 980,68; 1602,532;   77,075; 6010,553;25,70933
 981,23; 1618,333;   89,175; 6054,652;25,63345
 981,78; 1577,032;   82,075; 5974,152;25,37233
 982,33; 1572,932;   79,275; 5893,252;25,69080
 982,89; 1580,733;   94,375; 5938,152;25,43488
 983,44; 1519,932;   65,675; 5935,853;24,77365
 983,99; 1548,333;  104,775; 5949,453;24,69867
 984,54; 1510,032;   81,475; 5900,053;24,55166
 985,09; 1513,833;   87,275; 5873,752;24,65330
 985,65; 1472,333;   69,375; 5811,853;24,43122
 986,20; 1491,632;  106,575; 5791,152;24,36518
 986,75; 1464,632;   95,875; 5823,953;23,89558
 987,30; 1440,233;   97,175; 5726,053;23,86013
 987,85; 1406,932;   92,475; 5721,353;23,35204
 988,40; 1402,733;   96,675; 5693,953;23,33380
 988,96; 1402,032;  114,875; 5666,553;23,18502
 989,51; 1374,233;  108,875; 5644,053;22,86029
 990,06; 1344,333;  128,275; 5680,853;21,90078
 990,61; 1315,333;   93,575; 5569,053;22,31326
 991,16; 1314,032;  104,375; 5558,053;22,18058
 991,71; 1258,333;   79,875; 5505,853;21,71881
 992,26; 1226,932;   93,475; 5457,252;21,13170
 992,81; 1184,932;   75,075; 5427,053;20,73733
 993,37; 1210,233;  113,475; 5390,553;20,78343
 993,92; 1173,233;  108,375; 5368,953;20,24222
 994,47; 1173,833;  117,475; 5329,652;20,26711
 995,02; 1145,632;  118,475; 5313,252;19,77289
 995,57; 1099,333;   90,875; 5274,652;19,45411
 996,12; 1117,632;  133,575; 5247,553;19,24251
 996,67; 1104,532;  132,375; 5191,652;19,21534
 997,22; 1048,932;   99,875; 5128,652;18,87253
 997,77; 1051,432;  115,275; 5110,553;18,74085
 998,32; 1039,233;  103,775; 5015,652;19,04481
 998,87; 1020,833;  114,275; 5018,752;18,48428
 999,42; 1011,333;  101,675; 4972,553;18,67543
 999,97;  987,133;  109,975; 4956,353;18,09924
1000,53; 1005,333;  123,475; 4993,752;18,10693
1001,08;  968,432;   98,375; 4879,053;18,19946
1001,63;  969,333;  144,475; 4878,053;17,42567
1002,18;  911,232;   85,075; 4777,453;17,60637
1002,73;  971,732;  131,375; 4813,853;17,94686
1003,28;  928,032;  103,575; 4811,953;17,51044
1003,83;  915,432;  119,075; 4691,752;17,41556
1004,38;  948,633;  137,775; 4703,152;17,76102
1004,93;  906,532;  114,375; 4680,953;17,34685
1005,48;  881,932;  104,075; 4573,053;17,40571
1006,03;  873,133;  112,775; 4525,652;17,23042
1006,58;  855,333;  111,475; 4486,553;17,00216
1007,13;  836,032;   94,475; 4466,252;16,96238
1007,68;  841,932;  104,975; 4462,453;16,91248
1008,23;  826,633;  114,575; 4425,853;16,51616
1008,78;  800,532;  107,375; 4384,152;16,20747
1009,33;  807,232;  121,875; 4307,752;16,37309
1009,88;  761,833;   84,775; 4329,553;15,95036
1010,43;  769,532;  118,875; 4320,752;15,48492
1010,98;  743,532;  100,675; 4310,053;15,27203
1011,52;  723,333;   97,075; 4264,953;15,02581
1012,07;  732,932;  144,475; 4319,252;14,09554
1012,62;  707,932;  103,875; 4259,152;14,53712
1013,17;  690,932;   97,175; 4172,053;14,57117
1013,72;  666,032;   94,575; 4143,453;14,11397
1014,27;  668,133;  100,275; 4105,853;14,17667
1014,82;  632,932;   86,875; 4042,952;13,80300
1015,37;  602,333;   84,375; 3964,853;13,34778
1015,92;  609,833;  109,475; 3894,252;13,22026
1016,47;  587,133;   90,275; 3819,452;13,32351
1017,02;  553,732;   81,075; 3732,153;12,94570
1017,57;  562,133;   96,475; 3718,853;12,85502
1018,11;  531,732;   77,275; 3656,252;12,69797
1018,66;  556,633;  120,175; 3636,552;12,41213
1019,21;  524,133;  109,675; 3579,552;11,94444
1019,76;  499,832;   77,675; 3497,353;12,34495
1020,31;  487,133;   71,975; 3446,452;12,30287
1020,86;  494,932;   96,175; 3448,052;11,89654
1021,41;  476,332;   80,175; 3387,052;11,97981
1021,96;  469,033;   83,675; 3385,853;11,66980
1022,50;  497,633;  105,975; 3332,952;12,13698
1023,05;  474,133;   94,675; 3288,052;11,88264
1023,60;  469,133;   97,975; 3251,353;11,77016
1024,15;  455,633;   81,075; 3184,853;12,06779
1024,70;  471,033;   95,075; 3176,252;12,20175
1025,25;  430,033;   81,175; 3127,452;11,45193
1025,79;  450,332;  101,175; 3110,752;11,60155
1026,34;  455,832;   83,475; 3044,653;12,57464
1026,89;  433,832;  102,175; 3039,052;11,29286
1027,44;  439,533;   95,875; 2952,952;12,02829
1027,99;  426,733;   93,475; 2944,552;11,68883
1028,53;  414,033;   89,675; 2900,052;11,54142
1029,08;  429,033;  114,775; 2876,653;11,37840
1029,63;  414,133;  114,875; 2854,952;10,92150
1030,18;  392,033;   92,075; 2788,552;11,12405
1030,73;  368,533;   91,175; 2739,552;10,47273
1031,27;  362,832;   85,875; 2715,252;10,53320
1031,82;  371,332;   81,875; 2686,452;11,11341
1032,37;  373,332;   98,875; 2688,853;10,59691
1032,92;  359,832;  100,575; 2675,452;10,06873
1033,46;  357,133;   99,775; 2599,252;10,29645
1034,01;  336,133;   78,375; 2582,952;10,29146
1034,56;  343,932;   98,875; 2559,252; 9,96016
1035,11;  329,233;   92,375; 2523,552; 9,74250
1035,65;  315,533;   87,575; 2478,052; 9,53607
1036,20;  312,633;   99,375; 2454,452; 9,05522
1036,75;  329,332;  118,675; 2446,353; 9,05011
1037,29;  299,533;   90,275; 2398,252; 9,06670
1037,84;  275,733;   78,375; 2347,252; 8,69847
1038,39;  290,033;   91,075; 2329,952; 8,88649
1038,94;  261,832;   73,075; 2277,153; 8,56401
1039,48;  286,633;   83,575; 2278,552; 9,25101
1040,03;  284,332;  102,875; 2245,252; 8,46991
1040,58;  292,832;  101,175; 2194,552; 9,15542
1041,12;  277,533;   91,375; 2191,653; 8,86347
1041,67;  270,033;  101,075; 2166,752; 8,17928
1042,22;  291,633;  118,475; 2145,252; 8,54349
1042,76;  257,533;   99,275; 2118,452; 7,83772
1043,31;  267,533;   90,675; 2060,653; 8,97764
1043,86;  274,533;   98,875; 2044,252; 9,02948
1044,40;  271,432;   92,975; 2018,052; 9,27015
1044,95;  256,432;   94,175; 1988,552; 8,56521
1045,50;  240,232;   75,375; 1934,353; 8,86818
1046,04;  270,832;  114,375; 1930,453; 8,61513
1046,59;  250,333;   96,175; 1878,353; 8,64995
1047,13;  268,932;  121,075; 1879,453; 8,40875
1047,68;  259,033;  115,675; 1860,052; 8,21826
1048,23;  258,733;  118,775; 1866,752; 8,00683
1048,77;  231,533;   90,175; 1784,953; 8,34077
1049,32;  245,833;  104,175; 1785,953; 8,42308
1049,86;  240,732;   92,675; 1760,552; 8,87700
1050,41;  228,333;   82,475; 1735,552; 8,82339
1050,96;  229,533;  100,875; 1698,652; 8,05228
1051,50;  223,533;  101,675; 1663,252; 7,80349
1052,05;  234,732;   94,675; 1664,052; 8,92440
1052,59;  222,432;   82,975; 1624,152; 9,04876
1053,14;  204,133;   84,475; 1582,652; 7,98687
1053,69;  219,732;   98,475; 1571,453; 8,23214
1054,23;  233,033;  104,575; 1569,052; 8,77156
1054,78;  205,833;  100,775; 1550,152; 7,24846
1055,32;  230,533;  123,075; 1550,453; 7,52832
1055,87;  195,732;   68,875; 1491,752; 8,91556
1056,41;  192,932;   78,775; 1469,552; 8,20818
1056,96;  208,133;   96,775; 1451,052; 8,22265
1057,50;  224,333;  113,375; 1470,853; 8,17380
1058,05;  179,633;   82,075; 1401,953; 7,39141
1058,59;  194,333;   95,875; 1396,552; 7,56971
1059,14;  208,732;  103,575; 1370,453; 8,30053
1059,68;  163,633;   75,975; 1329,353; 6,99370
1060,23;  219,033;  126,875; 1383,752; 7,33226
1060,77;  194,833;   97,375; 1317,052; 7,99043
1061,32;  207,432;  108,575; 1320,652; 8,15604
1061,86;  188,633;  111,175; 1289,752; 6,57212
1062,41;  183,033;   93,975; 1242,953; 7,75102
1062,95;  181,333;  109,575; 1230,853; 6,39962
1063,50;  192,833;  111,075; 1230,052; 7,30645
1064,04;  170,633;   90,475; 1197,453; 7,24111
1064,59;  190,333;  114,775; 1210,052; 6,89848
1065,13;  190,833;  103,475; 1170,552; 8,18661
1065,68;  188,033;  107,275; 1161,353; 7,66144
1066,22;  190,633;  115,875; 1166,453; 7,11585
1066,76;  194,533;  130,175; 1145,252; 6,34016
1067,31;  167,033;   99,875; 1110,552; 6,64480
1067,85;  165,732;  100,975; 1090,252; 6,54594
1068,40;  176,133;  110,275; 1095,353; 6,68551
1068,94;  178,432;   99,175; 1079,353; 8,08603
1069,49;  169,633;   98,175; 1041,652; 7,57384
1070,03;  174,932;  111,175; 1034,353; 6,90631
1070,57;  153,633;   88,775; 1012,852; 7,01862
1071,12;  151,833;   75,875;  987,153; 8,33528
1071,66;  194,232;  131,775; 1039,953; 6,87724
1072,21;  189,333;  112,475; 1011,352; 8,55039
1072,75;  160,932;  104,475;  978,552; 6,45910
1073,29;  151,232;   77,075;  942,453; 8,56938
1073,84;  167,633;   95,975;  941,153; 8,47840
1074,38;  153,232;   93,875;  928,253; 7,11399
1074,92;  172,732;  107,275;  940,153; 7,85920
1075,47;  173,432;  112,775;  938,852; 7,34283
1076,01;  192,432;  121,775;  926,253; 8,78303
1076,56;  154,432;   97,275;  891,953; 7,19254
1077,10;  140,432;   86,075;  865,253; 6,97627
1077,64;  170,033;   97,875;  884,453; 9,17360
1078,19;  188,333;  123,175;  887,753; 8,52203
1078,73;  160,932;   98,775;  853,852; 8,23194
1079,27;  183,232;  121,075;  875,552; 8,23848
1079,81;  174,732;  121,375;  860,953; 7,21459
1080,36;  168,033;  105,975;  836,052; 8,50013
1080,90;  155,033;   96,375;  819,753; 8,10884
1081,44;  137,333;   82,475;  789,552; 7,75834
1081,99;  129,833;   70,375;  771,753; 8,47725
1082,53;  163,833;  113,075;  798,653; 7,40361
1083,07;  162,833;  104,175;  791,453; 8,53476
1083,62;  156,533;  101,275;  772,552; 8,23169
1084,16;  147,533;   98,975;  782,453; 7,10448
1084,70;  149,333;  107,475;  767,153; 6,34515
1085,24;  161,633;  108,775;  750,653; 8,23483
1085,79;  145,732;  109,175;  747,552; 5,72663
1086,33;  139,533;   99,075;  711,453; 6,60663
1086,87;  148,333;  102,075;  714,852; 7,54883
1087,41;  142,432;   84,475;  686,852; 9,62146
1087,96;  159,033;  124,575;  732,552; 5,66756
1088,50;  148,533;  112,075;  696,953; 6,23336
1089,04;  165,633;  121,775;  715,153; 7,39116
1089,58;  128,033;   82,375;  655,953; 7,96013
1090,13;  134,533;  102,975;  653,153; 5,73588
1090,67;  142,533;  101,775;  678,753; 7,06397
1091,21;  142,633;   92,075;  651,852; 9,03172
1091,75;  142,232;  106,875;  647,153; 6,54432
1092,29;  149,732;  105,875;  642,552; 8,17204
1092,84;  143,833;  105,975;  628,352; 7,24716
1093,38;  166,833;  128,175;  662,753; 7,23141
1093,92;  170,232;  113,475;  640,052;10,77857
1094,46;  167,232;  128,175;  638,852; 7,64817
1095,00;  138,533;   93,975;  602,052; 8,76982
1095,54;  138,732;   89,975;  591,352; 9,72471
1096,09;  156,133;  114,975;  597,352; 8,53222
1096,63;  163,732;  117,175;  598,453; 9,67373
1097,17;  130,533;  102,575;  573,052; 5,94237
1097,71;  171,633;  122,875;  582,453;10,60920
1098,25;  140,833;  103,275;  553,653; 8,33912
1098,79;  154,932;  104,775;  568,753;10,81033
1099,33;  146,533;  111,975;  572,052; 7,51124
1099,88;  143,932;  110,775;  562,253; 7,34422
1100,42;  113,033;   83,275;  521,253; 6,79430

