0129 ELITRO
Integration time [ms]:   8,000
Averaging Nr. [scans]: 10
Smoothing Nr. [pixels]: 0
Data measured with spectrometer [name]: 7314920SP
Wave   ;Sample   ;Dark     ;Reference;Reflectance
[nm]   ;[counts] ;[counts] ;[counts] ;[%]

 199,42;   96,291;   63,873;  150,055;37,61631
 200,02;  114,004;   92,669;  145,732;40,20815
 200,62;   62,196;   67,563;   88,793;-25,27839
 201,22;  110,656;   86,969;  138,011;46,40774
 201,82;   93,847;   66,174;  141,790;36,59623
 202,42;  116,787;  101,668;  154,973;28,36312
 203,03;   78,801;   60,168;   91,775;58,95161
 203,63;   83,632;   69,967;  109,037;34,97453
 204,23;   80,815;   70,671;  129,903;17,12630
 204,83;   87,797;   74,567;  123,718;26,91746
 205,43;   82,791;   56,673;  123,555;39,05160
 206,03;   74,880;   50,167;   90,459;61,33527
 206,63;   78,204;   68,865;  100,007;29,98833
 207,24;  107,985;   74,675;  162,566;37,89889
 207,84;   56,863;   39,967;   83,699;38,63486
 208,44;   64,556;   50,669;   95,011;31,31880
 209,04;   60,121;   47,365;   85,066;33,83457
 209,64;   91,888;   69,972;  127,998;37,76884
 210,24;   61,397;   45,367;   97,218;30,91588
 210,84;   75,173;   51,469;  101,970;46,93850
 211,44;   97,343;   86,470;  122,908;29,83919
 212,05;   76,221;   60,865;   99,266;39,98838
 212,65;   87,201;   66,368;  112,975;44,69905
 213,25;  103,687;   93,768;  142,073;20,53390
 213,85;   86,990;   84,465;  114,904; 8,29422
 214,45;   63,797;   53,367;  100,418;22,16789
 215,05;   60,073;   39,369;  100,070;34,10884
 215,65;   69,291;   55,169;  105,630;27,98539
 216,25;   55,997;   40,267;   82,518;37,23030
 216,85;   49,439;   34,069;   89,651;27,65294
 217,45;   62,901;   49,068;   97,375;28,63551
 218,05;   74,394;   58,270;  112,886;29,52281
 218,66;   46,322;   28,769;   75,692;37,40817
 219,26;   36,732;   26,567;   79,337;19,26197
 219,86;   60,281;   36,771;   81,584;52,46212
 220,46;   74,977;   54,270;  104,127;41,53307
 221,06;   72,015;   51,871;  115,903;31,45967
 221,66;   76,867;   43,471;  103,481;55,65010
 222,26;   62,088;   39,772;  102,398;35,63334
 222,86;   80,753;   67,268;  118,954;26,08947
 223,46;   71,797;   51,767;   88,918;53,91547
 224,06;   91,298;   64,971;  120,343;47,54538
 224,66;   92,529;   57,570;  105,805;72,47529
 225,26;   77,525;   48,169;  113,748;44,76399
 225,86;   74,440;   42,173;  112,376;45,96198
 226,46;   74,970;   49,968;  102,913;47,22199
 227,06;   50,429;   27,670;   87,705;37,90874
 227,66;   54,173;   37,665;   74,845;44,39947
 228,27;   50,777;   29,270;   96,227;32,12084
 228,87;  102,712;   89,170;  143,046;25,13456
 229,47;   57,005;   29,172;   92,357;44,04962
 230,07;   28,425;   11,169;   59,648;35,59433
 230,67;   50,739;   38,169;   84,651;27,04286
 231,27;   54,277;   27,670;   76,327;54,68304
 231,87;   64,839;   43,169;  100,751;37,63334
 232,47;   77,850;   43,775;  132,047;38,60266
 233,07;   51,386;   42,965;   75,547;25,84762
 233,67;   82,701;   53,768;   94,275;71,42662
 234,27;   33,480;    0,567;   53,259;62,46338
 234,87;   53,281;   34,771;  106,084;25,95588
 235,47;   38,225;   16,169;   74,148;38,04097
 236,07;   43,459;   30,266;   72,042;31,58054
 236,67;   55,328;   49,966;   85,180;15,22625
 237,27;   68,326;   28,873;  109,074;49,19257
 237,87;   58,029;   25,370;   99,805;43,87520
 238,47;   37,104;   14,269;   68,032;42,47463
 239,07;   48,071;   33,272;   95,738;23,69033
 239,67;   79,075;   43,477;  131,421;40,47827
 240,27;   74,040;   46,773;  119,176;37,65969
 240,87;   76,443;   50,773;  119,533;37,33255
 241,47;   46,266;   39,164;   76,131;19,21145
 242,07;   56,135;   39,968;   92,894;30,54698
 242,67;   29,409;  -11,027;   77,914;45,46327
 243,27;   23,397;    7,767;   46,418;40,43924
 243,87;   69,798;   48,671;  108,343;35,40505
 244,47;   54,815;   22,371;   99,703;41,95451
 245,07;   19,873;    2,669;   55,770;32,39939
 245,67;   52,301;   31,068;   85,575;38,95447
 246,27;   48,004;   34,965;   69,007;38,30253
 246,87;   38,453;   26,668;   63,154;32,29907
 247,46;   14,096;   19,663;   23,793;-134,78717
 248,06;   37,194;   20,470;   69,786;33,91224
 248,66;   59,888;   31,072;  105,898;38,51034
 249,26;   43,659;   32,366;   70,742;29,42748
 249,86;   62,240;   42,873;  102,176;32,65732
 250,46;   38,368;   16,775;   93,507;28,14036
 251,06;   36,601;   22,168;   65,375;33,40416
 251,66;   35,063;   20,771;   64,724;32,51782
 252,26;   36,094;   38,866;   70,261;-8,83106
 252,86;   38,373;   35,969;   89,070; 4,52795
 253,46;    2,897;   -8,033;   22,118;36,25146
 254,06;   40,942;   31,766;   79,483;19,23020
 254,66;   46,591;   34,973;  100,155;17,82459
 255,26;   70,157;   39,073;  118,836;38,97060
 255,86;   57,866;   37,464;   55,631;112,30027
 256,46;   34,543;   19,870;   70,208;29,14857
 257,05;   36,046;   23,570;   59,565;34,66004
 257,65;   69,281;   38,071;   97,684;52,35411
 258,25;   61,605;   37,372;  101,457;37,81345
 258,85;   43,673;   15,669;   51,770;77,57243
 259,45;   18,339;    6,869;   42,951;31,78883
 260,05;   41,197;   46,667;   85,818;-13,97078
 260,65;   42,994;   45,066;   83,561;-5,38386
 261,25;   48,098;   29,371;   85,943;33,10279
 261,85;   31,950;   -0,129;   47,622;67,17918
 262,45;   64,973;   46,169;  109,270;29,80048
 263,04;   66,974;   53,073;  116,295;21,98786
 263,64;   50,849;   33,767;   77,097;39,42289
 264,24;   64,532;   37,671;   89,062;52,26833
 264,84;   91,512;   58,974;  138,671;40,82742
 265,44;   37,484;   26,368;   67,716;26,88383
 266,04;   51,307;   48,865;   71,464;10,80529
 266,64;   51,728;   39,866;   86,780;25,28412
 267,24;   47,528;   40,166;   68,980;25,54935
 267,84;   42,987;   24,668;   76,573;35,29336
 268,43;   60,918;   48,368;   95,935;26,38439
 269,03;   63,722;   46,969;   87,892;40,93795
 269,63;   66,776;   58,566;   92,402;24,26529
 270,23;   22,473;   10,765;   39,045;41,39926
 270,83;   59,094;   55,266;   83,161;13,72097
 271,43;   34,866;   23,967;   58,856;31,23879
 272,03;   66,984;   64,168;   99,116; 8,05749
 272,62;   28,891;   23,269;   68,730;12,36578
 273,22;   35,012;   11,970;   61,046;46,95072
 273,82;   31,151;   17,460;   26,403;153,09349
 274,42;   27,383;   25,164;   46,890;10,21366
 275,02;   28,969;   34,864;   60,388;-23,09734
 275,62;   73,205;   31,972;  100,457;60,20702
 276,21;   40,860;   22,770;   69,267;38,90522
 276,81;   47,663;   46,767;   71,099; 3,68233
 277,41;   53,784;   22,971;   96,341;41,99677
 278,01;   15,169;   21,364;   42,788;-28,91802
 278,61;   51,156;   38,869;   83,811;27,34050
 279,20;   82,740;   65,473;  119,076;32,21233
 279,80;   -7,993;    6,762;   11,539;-308,87745
 280,40;   55,159;   36,866;   79,742;42,66499
 281,00;    7,856;   -4,331;   33,311;32,37710
 281,60;   42,595;   20,774;   74,812;40,38128
 282,20;   46,943;   36,670;   70,108;30,72193
 282,79;   36,718;   29,568;   70,135;17,62576
 283,39;   19,476;   17,466;   44,702; 7,38127
 283,99;    9,686;   23,165;   34,347;-120,52523
 284,59;   30,508;   16,869;   45,289;47,99019
 285,19;   28,680;   27,067;   57,759; 5,25592
 285,78;   43,443;   23,270;   63,808;49,76251
 286,38;   51,804;   39,665;   59,207;62,11702
 286,98;   44,718;   35,168;   73,535;24,89187
 287,58;   18,615;    4,771;   61,403;24,44599
 288,17;   38,757;    8,973;   80,336;41,73608
 288,77;   52,754;   19,976;   92,504;45,19368
 289,37;   23,673;   11,269;   57,670;26,73304
 289,97;   43,786;   48,965;   66,647;-29,28332
 290,57;   59,419;   46,672;   93,260;27,36115
 291,16;   69,184;   63,868;  102,616;13,71923
 291,76;   23,512;    5,570;   47,346;42,94698
 292,36;   47,132;   34,367;   58,137;53,70026
 292,96;   30,022;   -3,127;   60,117;52,41558
 293,55;   31,263;   24,267;   65,399;17,00845
 294,15;   40,260;   26,870;   62,567;37,50952
 294,75;   46,004;   42,065;   66,207;16,31592
 295,35;   21,484;   21,068;   52,016; 1,34397
 295,94;   46,245;   42,967;   66,740;13,79233
 296,54;   39,570;   30,768;   70,613;22,08968
 297,14;   42,267;   29,971;   76,881;26,21111
 297,73;   19,655;   12,165;   40,085;26,82789
 298,33;   50,242;   28,066;   57,583;75,12975
 298,93;   53,153;   41,968;   82,554;27,55780
 299,53;   33,053;   24,872;   69,079;18,50688
 300,12;   17,767;  -12,229;   59,481;41,82908
 300,72;   64,149;   41,567;   91,197;45,50066
 301,32;   58,481;   25,771;   99,584;44,31451
 301,92;   14,100;    3,664;   33,050;35,51422
 302,51;   26,414;   11,567;   49,978;38,65443
 303,11;   16,180;   14,667;   48,759; 4,43841
 303,71;   42,304;   21,369;   82,132;34,45465
 304,30;   22,225;    5,466;   38,423;50,84990
 304,90;   26,742;   19,666;   44,283;28,74465
 305,50;   30,173;   18,565;   64,345;25,35529
 306,09;   31,759;   15,466;   49,042;48,52579
 306,69;   53,032;   34,171;   90,262;33,62620
 307,29;   18,634;   18,760;   33,144;-0,87843
 307,88;   63,608;   43,269;   72,489;69,60602
 308,48;   19,377;    0,070;   49,727;38,88101
 309,08;    1,962;   -4,437;   11,774;39,47377
 309,68;   18,155;   22,365;   39,585;-24,44555
 310,27;   20,291;   20,169;   49,830; 0,40972
 310,87;   30,270;   23,468;   54,813;21,69926
 311,47;   52,097;   54,967;   92,918;-7,56163
 312,06;   59,738;   47,865;   68,426;57,74691
 312,66;   72,484;   51,168;  100,016;43,63725
 313,26;   80,163;   48,571;   96,224;66,29647
 313,85;   49,380;   38,267;   65,959;40,13139
 314,45;   59,156;   42,969;   86,611;37,09134
 315,04;   56,738;   52,165;   81,826;15,41855
 315,64;   36,249;   21,267;   47,897;56,26006
 316,24;   57,877;   40,770;   85,627;38,13707
 316,83;   47,159;   40,366;   76,742;18,67477
 317,43;   48,766;   35,167;   68,156;41,22263
 318,03;   48,531;   39,063;   70,012;30,59166
 318,62;   77,472;   73,061;   94,820;20,27144
 319,22;   34,987;    7,668;   66,973;46,06543
 319,82;   55,384;   40,768;   93,516;27,70896
 320,41;   80,004;   59,069;   98,732;52,78365
 321,01;   93,273;   80,465;  115,945;36,09835
 321,60;   79,783;   81,164;  102,790;-6,38519
 322,20;   86,691;   67,673;  132,855;29,17748
 322,80;   72,249;   54,567;   91,797;47,49393
 323,39;   65,752;   65,764;   94,828;-0,04260
 323,99;   76,994;   61,766;  102,661;37,23545
 324,59;   70,131;   73,063;   97,512;-11,99378
 325,18;   74,514;   40,967;   92,178;65,50870
 325,78;   83,955;   76,365;  108,885;23,34058
 326,37;   89,601;   74,868;  108,075;44,36682
 326,97;   74,549;   63,267;  111,497;23,39172
 327,57;   51,296;   42,263;   76,493;26,39046
 328,16;   63,166;   60,864;   93,631; 7,02517
 328,76;   68,245;   50,467;  110,140;29,79375
 329,35;   91,581;   56,871;  137,484;43,05742
 329,95;   64,743;   27,470;   91,308;58,38638
 330,54;   62,997;   52,167;   94,018;25,87800
 331,14;   48,963;   26,967;   82,599;39,53803
 331,74;   74,773;   54,165;   96,145;49,08943
 332,33;   62,777;   35,370;  108,127;37,66943
 332,93;   55,200;   43,764;   79,250;32,22740
 333,52;   62,776;   42,466;   93,102;40,11068
 334,12;  101,622;   72,069;  140,392;43,25489
 334,71;   55,859;   50,666;   87,942;13,93162
 335,31;   87,180;   63,267;  119,859;42,25542
 335,90;   28,393;   32,362;   53,836;-18,48473
 336,50;   42,504;   30,665;   77,207;25,43718
 337,10;   74,591;   38,769;  121,530;43,28345
 337,69;   64,404;   51,765;   93,707;30,13439
 338,29;   50,932;   30,467;  101,037;28,99893
 338,88;   45,353;   22,468;   99,854;29,57205
 339,48;   81,976;   57,862;  111,677;44,80864
 340,07;   62,211;   48,566;  107,321;23,22310
 340,67;   55,781;   31,171;  124,784;26,28899
 341,26;   62,059;   48,466;   98,942;26,92983
 341,86;   84,825;   61,469;  138,348;30,37992
 342,45;   75,108;   45,669;  142,689;30,34298
 343,05;   71,808;   27,269;  115,689;50,37188
 343,64;   74,328;   47,366;  122,480;35,89452
 344,24;   47,904;   28,765;   92,107;30,21528
 344,83;   74,586;   71,365;  121,747; 6,39481
 345,43;   57,845;   29,667;  114,240;33,31893
 346,02;   69,139;   41,469;  124,351;33,38487
 346,62;   83,663;   40,971;  140,424;42,92727
 347,21;   79,455;   42,165;  131,985;41,51671
 347,81;   60,519;   26,172;  140,560;30,02676
 348,40;   49,166;   29,064;  100,731;28,04899
 349,00;   76,831;   49,163;  137,712;31,24577
 349,59;   97,112;   65,870;  177,846;27,90017
 350,19;   70,663;   32,571;  139,424;35,64947
 350,78;   53,180;   55,467;  140,759;-2,68122
 351,38;   44,839;   15,869;  140,951;23,16086
 351,97;   59,545;   26,767;  136,040;29,99718
 352,57;   69,177;   42,570;  155,827;23,49273
 353,16;   53,752;   30,564;  134,328;22,34648
 353,76;   73,412;   38,770;  169,846;26,42856
 354,35;   65,025;   27,669;  160,148;28,19751
 354,95;   77,060;   43,970;  182,067;23,96133
 355,54;   76,987;   38,368;  163,973;30,74637
 356,14;   78,125;   40,069;  164,749;30,52300
 356,73;   57,376;   29,162;  145,176;24,31897
 357,32;   62,904;   13,769;  164,432;32,61298
 357,92;   78,136;   17,772;  181,419;36,88672
 358,51;   97,853;   43,372;  214,179;31,89645
 359,11;   84,019;   36,772;  212,360;26,90788
 359,70;   66,246;   28,470;  189,965;23,39133
 360,30;   93,807;   54,562;  188,039;29,40205
 360,89;   70,053;   31,168;  188,054;24,78525
 361,48;  107,260;   55,570;  216,467;32,12603
 362,08;   76,766;   19,867;  187,156;34,01234
 362,67;   96,196;   39,763;  192,693;36,90150
 363,27;  128,314;   60,767;  247,678;36,13888
 363,86;  111,373;   35,765;  215,745;42,00895
 364,46;  129,166;   44,664;  257,231;39,75303
 365,05;  136,844;   64,659;  254,989;37,92624
 365,64;  128,165;   50,960;  269,706;35,29442
 366,24;  158,240;   38,558;  309,432;44,18374
 366,83;  174,578;   43,255;  335,383;44,95382
 367,43;  183,931;   51,545;  352,843;43,93865
 368,02;  198,638;   34,646;  399,757;44,91571
 368,61;  248,671;   62,239;  475,425;45,12068
 369,21;  208,868;   32,419;  445,299;42,73601
 369,80;  265,827;   43,007;  526,947;46,04297
 370,39;  312,489;   62,006;  604,971;46,13249
 370,99;  317,296;   42,089;  615,416;48,00185
 371,58;  320,263;   22,974;  630,953;48,89786
 372,18;  350,761;   37,166;  701,603;47,19716
 372,77;  352,037;   42,449;  679,385;48,60583
 373,36;  382,275;   42,747;  690,836;52,38909
 373,96;  346,242;   35,135;  639,498;51,47674
 374,55;  343,347;   29,844;  621,406;52,99578
 375,14;  324,120;   42,849;  573,826;52,97237
 375,74;  335,322;   69,157;  543,276;56,13873
 376,33;  271,454;   45,964;  464,589;53,86443
 376,92;  248,298;   33,278;  447,997;51,84710
 377,52;  354,796;   86,103;  548,460;58,11365
 378,11;  315,992;   46,703;  457,203;65,60028
 378,71;  319,614;   73,011;  514,270;55,88629
 379,30;  329,257;   59,517;  553,928;54,55781
 379,89;  333,356;   59,813;  556,103;55,11760
 380,49;  341,060;   31,018;  568,185;57,71808
 381,08;  368,724;   70,306;  570,990;59,60198
 381,67;  372,483;   55,008;  555,483;63,43473
 382,26;  362,824;   41,706;  539,390;64,52238
 382,86;  383,161;   54,003;  516,041;71,24047
 383,45;  392,570;   50,412;  562,105;66,86771
 384,04;  371,435;   38,712;  553,886;64,58457
 384,64;  383,160;   49,014;  566,760;64,53857
 385,23;  414,258;   64,406;  560,509;70,52003
 385,82;  409,467;   59,615;  592,774;65,61869
 386,42;  452,655;   61,024;  659,022;65,49034
 387,01;  414,825;   55,414;  580,541;68,44277
 387,60;  459,586;   69,009;  590,140;74,94808
 388,20;  439,770;   37,712;  590,805;72,69255
 388,79;  484,512;   72,418;  665,563;69,47607
 389,38;  429,524;   32,106;  564,890;74,59261
 389,97;  486,332;   45,415;  640,955;74,03659
 390,57;  524,411;   71,114;  654,038;77,76266
 391,16;  521,511;   62,514;  655,838;77,36030
 391,75;  507,173;   52,713;  638,562;77,57290
 392,34;  541,640;   60,821;  696,694;75,61565
 392,94;  551,047;   44,718;  689,683;78,50488
 393,53;  577,336;   41,016;  666,612;85,72950
 394,12;  603,934;   53,023;  719,105;82,70913
 394,72;  593,791;   54,213;  706,122;82,76887
 395,31;  584,767;   42,115;  694,874;83,13208
 395,90;  626,772;   42,924;  732,881;84,62091
 396,49;  666,138;   58,028;  779,187;84,32397
 397,09;  637,074;   47,417;  749,188;84,02420
 397,68;  682,441;   44,025;  800,719;84,36912
 398,27;  683,183;   54,626;  809,652;83,24967
 398,86;  698,110;   43,125;  807,657;85,67136
 399,45;  746,201;   56,630;  844,037;87,57491
 400,05;  705,202;   23,820;  799,518;87,84118
 400,64;  750,281;   56,419;  831,001;89,57888
 401,23;  762,071;   53,920;  859,956;87,85604
 401,82;  785,171;   67,220;  868,256;89,62785
 402,42;  787,058;   62,921;  873,953;89,28579
 403,01;  833,041;   81,525;  912,919;90,39228
 403,60;  839,139;   68,532;  940,513;88,37432
 404,19;  862,707;   76,024;  931,900;91,91546
 404,78;  826,996;   57,522;  909,929;90,27067
 405,38;  895,625;   68,332;  984,210;90,32787
 405,97;  858,248;   63,226;  953,933;89,25743
 406,56;  901,890;   71,528; 1004,366;89,01461
 407,15;  913,628;   68,829;  989,442;91,76487
 407,74;  930,549;   80,730; 1026,758;89,83018
 408,34;  897,560;   50,933; 1018,629;87,48892
 408,93;  944,987;   59,531; 1016,234;92,55285
 409,52;  934,488;   51,435; 1041,359;89,20407
 410,11;  981,822;   84,931; 1090,453;89,19651
 410,70;  951,734;   54,727; 1027,230;92,23696
 411,29;  958,855;   58,628; 1030,847;92,59514
 411,89;  997,240;   60,535; 1093,938;90,64274
 412,48;  971,673;   48,228; 1051,606;92,03355
 413,07; 1022,481;   65,033; 1101,446;92,38093
 413,66; 1022,605;   78,135; 1102,119;92,23486
 414,25; 1022,464;   63,337; 1142,311;88,89249
 414,84; 1017,387;   69,431; 1102,434;91,76700
 415,44; 1062,214;   91,530; 1155,939;91,19466
 416,03; 1049,395;   76,637; 1161,173;89,69346
 416,62; 1053,302;   76,138; 1168,687;89,43892
 417,21; 1060,867;   75,334; 1158,843;90,95752
 417,80; 1065,581;   65,037; 1162,871;91,13805
 418,39; 1056,609;   78,440; 1179,201;88,86301
 418,98; 1048,298;   55,634; 1143,405;91,25669
 419,58; 1051,629;   64,033; 1142,067;91,61082
 420,17; 1065,953;   52,735; 1164,540;91,13270
 420,76; 1079,795;   72,537; 1192,873;89,90676
 421,35; 1059,757;   60,236; 1155,197;91,28367
 421,94; 1098,509;   88,340; 1223,501;88,98908
 422,53; 1095,344;   61,540; 1195,320;91,18206
 423,12; 1105,854;   64,039; 1190,766;92,46387
 423,71; 1064,740;   60,835; 1162,138;91,15609
 424,30; 1103,843;   85,236; 1210,695;90,50594
 424,90; 1082,650;   39,438; 1163,809;92,78190
 425,49; 1120,792;   70,140; 1216,242;91,67182
 426,08; 1119,092;   80,240; 1209,641;91,98254
 426,67; 1100,474;   57,436; 1168,257;93,89796
 427,26; 1142,955;   60,343; 1230,391;92,52713
 427,85; 1134,368;   63,238; 1209,968;93,40730
 428,44; 1160,568;   68,442; 1218,093;94,99631
 429,03; 1194,399;   85,341; 1233,155;96,62349
 429,62; 1167,982;   78,941; 1240,296;93,77332
 430,21; 1190,576;   81,443; 1277,807;92,70860
 430,80; 1183,600;   70,445; 1235,381;95,55507
 431,39; 1176,410;   53,344; 1246,926;94,09206
 431,99; 1194,340;   78,535; 1206,838;98,89230
 432,58; 1220,854;   82,639; 1251,166;97,40600
 433,17; 1192,805;   69,735; 1238,319;96,10522
 433,76; 1272,642;   71,347; 1288,314;98,71222
 434,35; 1256,666;   88,245; 1292,462;97,02743
 434,94; 1275,066;   70,849; 1318,887;96,48883
 435,53; 1241,707;   78,643; 1278,669;96,91984
 436,12; 1254,193;   70,044; 1294,267;96,72659
 436,71; 1287,078;   87,740; 1303,239;98,67046
 437,30; 1267,148;   76,941; 1299,177;97,37944
 437,89; 1308,948;   76,245; 1320,802;99,04754
 438,48; 1301,437;   65,942; 1305,731;99,65366
 439,07; 1315,619;   95,238; 1347,147;97,48167
 439,66; 1355,328;   83,648; 1375,711;98,42246
 440,25; 1342,693;   85,844; 1390,567;96,33072
 440,84; 1358,953;   79,850; 1387,984;97,78067
 441,43; 1352,991;   78,054; 1440,985;93,54377
 442,02; 1374,522;   79,650; 1411,022;97,25841
 442,61; 1378,910;   93,344; 1397,226;98,59526
 443,20; 1383,635;   94,249; 1446,625;95,34230
 443,79; 1381,538;   74,546; 1412,957;97,65256
 444,38; 1397,980;   84,248; 1461,789;95,36787
 444,97; 1408,752;   84,146; 1466,359;95,83224
 445,56; 1445,504;  101,846; 1477,038;97,70694
 446,15; 1429,943;   81,651; 1522,539;93,57366
 446,74; 1408,527;   58,644; 1462,286;96,17008
 447,33; 1458,838;   82,646; 1538,357;94,53748
 447,92; 1476,508;   78,151; 1570,720;93,68794
 448,51; 1494,969;   89,746; 1586,019;93,91491
 449,10; 1514,617;   92,045; 1608,840;93,78803
 449,69; 1504,056;   73,950; 1627,741;92,03978
 450,28; 1529,911;   66,948; 1608,251;94,91725
 450,87; 1555,176;   78,647; 1656,333;93,58831
 451,46; 1589,214;   96,048; 1702,208;92,96496
 452,05; 1597,253;   70,950; 1715,384;92,81627
 452,64; 1636,739;   70,850; 1725,182;94,65385
 453,23; 1688,429;  113,752; 1794,936;93,66475
 453,82; 1692,891;   83,451; 1800,660;93,72415
 454,40; 1676,539;   65,450; 1786,682;93,60092
 454,99; 1766,119;  101,253; 1871,891;94,02634
 455,58; 1748,407;   69,747; 1832,095;95,25137
 456,17; 1801,915;   63,852; 1873,634;96,03717
 456,76; 1807,508;   67,751; 1918,820;93,98662
 457,35; 1863,980;   78,348; 1930,490;96,40904
 457,94; 1899,588;   66,954; 1978,929;95,85032
 458,53; 1924,773;   67,350; 2010,101;95,60791
 459,12; 1981,020;   82,657; 2111,116;93,58644
 459,71; 1974,645;   58,148; 2060,071;95,73284
 460,30; 2027,128;   84,448; 2087,511;96,98547
 460,89; 2059,408;   57,551; 2129,920;96,59753
 461,48; 2089,388;   75,954; 2173,829;95,97494
 462,06; 2128,387;   68,050; 2187,303;97,21995
 462,65; 2098,349;   48,249; 2176,527;96,32668
 463,24; 2205,564;   87,456; 2288,680;96,22408
 463,83; 2181,587;   54,450; 2229,803;97,78352
 464,42; 2258,166;   88,349; 2333,687;96,63655
 465,01; 2293,439;   73,050; 2336,482;98,09833
 465,60; 2298,322;   64,050; 2384,322;96,29351
 466,19; 2325,388;   73,354; 2462,829;94,24808
 466,77; 2349,143;   81,551; 2462,939;95,22144
 467,36; 2379,602;   69,457; 2459,256;96,66691
 467,95; 2395,160;   79,551; 2466,098;97,02756
 468,54; 2445,057;   71,954; 2513,866;97,18214
 469,13; 2439,812;   69,452; 2535,977;96,10118
 469,72; 2483,260;   67,555; 2582,723;96,04548
 470,31; 2510,795;   87,855; 2629,242;95,33926
 470,90; 2543,570;   76,750; 2652,044;95,78789
 471,48; 2525,737;   32,057; 2671,875;94,46407
 472,07; 2604,625;  125,747; 2686,454;96,80441
 472,66; 2615,467;   67,853; 2748,412;95,04040
 473,25; 2610,542;   68,351; 2723,339;95,75153
 473,84; 2619,109;   55,955; 2766,545;94,56073
 474,43; 2659,861;   55,459; 2843,049;93,42846
 475,01; 2699,274;   69,254; 2885,926;93,37332
 475,60; 2691,143;   49,755; 2882,364;93,24931
 476,19; 2764,440;   74,158; 2956,932;93,32268
 476,78; 2744,802;   71,057; 2964,456;92,40844
 477,37; 2738,743;   59,355; 2945,364;92,84060
 477,95; 2802,830;   75,656; 3018,661;92,66628
 478,54; 2802,019;   63,253; 3023,691;92,51219
 479,13; 2847,119;   56,253; 3070,291;92,59558
 479,72; 2878,222;   81,154; 3090,147;92,95695
 480,31; 2896,496;   63,459; 3167,468;91,27026
 480,89; 2877,774;   60,254; 3171,026;90,57302
 481,48; 2941,917;   46,260; 3214,084;91,40837
 482,07; 2951,557;   61,654; 3233,866;91,10055
 482,66; 2961,536;   52,853; 3253,650;90,87371
 483,25; 3062,617;   78,960; 3319,884;92,06191
 483,83; 3055,091;   59,954; 3325,385;91,72256
 484,42; 3057,788;   54,354; 3355,129;90,99179
 485,01; 3108,206;   65,958; 3400,413;91,23672
 485,60; 3198,583;   73,764; 3490,590;91,45384
 486,18; 3186,030;   66,956; 3490,761;91,09961
 486,77; 3184,629;   67,252; 3519,736;90,29373
 487,36; 3230,900;   58,464; 3561,750;90,55601
 487,95; 3281,403;   59,161; 3640,781;89,96603
 488,53; 3307,086;   54,461; 3642,522;90,65132
 489,12; 3285,314;   50,563; 3722,252;88,09979
 489,71; 3266,441;   38,062; 3680,357;88,63584
 490,30; 3364,051;   61,460; 3742,503;89,71889
 490,88; 3414,020;   87,561; 3859,141;88,19803
 491,47; 3412,931;   60,663; 3867,512;88,05886
 492,06; 3406,345;   62,563; 3920,615;86,67022
 492,65; 3408,555;   59,161; 3947,060;86,14919
 493,23; 3461,099;   54,860; 3982,825;86,71767
 493,82; 3430,802;   65,853; 4018,031;85,14162
 494,41; 3436,489;   51,361; 4066,179;84,31586
 494,99; 3477,009;   73,655; 4126,945;83,96522
 495,58; 3501,751;   86,060; 4224,403;82,53765
 496,17; 3489,164;   56,356; 4198,681;82,87154
 496,76; 3489,929;   65,356; 4276,761;81,31665
 497,34; 3488,654;   54,557; 4305,235;80,78940
 497,93; 3493,937;   66,057; 4350,675;80,00432
 498,52; 3529,630;   60,059; 4454,387;78,95568
 499,10; 3524,858;   75,862; 4533,217;77,37765
 499,69; 3492,165;   55,360; 4537,006;76,68622
 500,28; 3505,796;   37,959; 4592,068;76,14742
 500,86; 3542,906;   62,862; 4698,539;75,07091
 501,45; 3517,906;   53,462; 4730,438;74,07445
 502,04; 3544,741;   53,362; 4813,958;73,33912
 502,62; 3566,364;   70,956; 4856,181;73,04585
 503,21; 3567,699;   57,856; 4939,699;71,89585
 503,80; 3623,476;   69,662; 5015,577;71,85352
 504,38; 3650,899;   58,460; 5081,425;71,52030
 504,97; 3643,276;   49,962; 5122,776;70,83472
 505,56; 3684,744;   70,859; 5194,989;70,52680
 506,14; 3735,917;   64,064; 5263,709;70,61738
 506,73; 3715,704;   23,565; 5292,507;70,07363
 507,32; 3790,573;   62,865; 5376,045;70,15964
 507,90; 3861,617;   70,860; 5443,284;70,55952
 508,49; 3889,821;   58,865; 5500,366;70,40256
 509,08; 3972,466;   67,264; 5571,931;70,94347
 509,66; 3972,834;   69,960; 5677,644;69,59868
 510,25; 4034,038;   63,561; 5737,400;69,97866
 510,83; 4109,404;   45,165; 5855,607;69,94716
 511,42; 4195,470;   61,968; 5895,913;70,85260
 512,01; 4196,752;   59,164; 5980,328;69,87795
 512,59; 4297,775;   46,562; 6041,676;70,91130
 513,18; 4346,389;   59,961; 6114,379;70,79835
 513,77; 4423,085;   42,257; 6171,797;71,47075
 514,35; 4451,828;   37,763; 6190,255;71,74434
 514,94; 4513,258;   58,662; 6323,517;71,10454
 515,52; 4554,959;   48,166; 6358,342;71,42103
 516,11; 4602,287;   80,665; 6474,047;70,72347
 516,69; 4638,613;   41,959; 6446,727;71,76925
 517,28; 4698,123;   83,358; 6541,973;71,45131
 517,87; 4680,289;   45,558; 6604,054;70,66759
 518,45; 4774,658;   74,858; 6626,192;71,73806
 519,04; 4775,109;   54,258; 6707,970;70,95064
 519,62; 4833,645;   55,863; 6774,114;71,11645
 520,21; 4838,576;   24,466; 6828,002;70,75894
 520,79; 4889,201;   52,068; 7000,875;69,61098
 521,38; 4930,369;   52,960; 6995,363;70,25534
 521,97; 4996,353;   43,068; 7141,554;69,77945
 522,55; 4995,427;   67,759; 7195,230;69,13627
 523,14; 5031,144;   26,759; 7180,289;69,95686
 523,72; 5117,286;   77,561; 7383,422;68,98194
 524,31; 5106,004;   71,665; 7406,107;68,63970
 524,89; 5148,883;   48,468; 7526,815;68,20244
 525,48; 5196,928;   21,666; 7603,580;68,25799
 526,06; 5181,152;   56,264; 7633,128;67,63864
 526,65; 5285,429;   72,370; 7803,105;67,43289
 527,23; 5268,510;   46,262; 7840,596;67,00057
 527,82; 5376,515;   37,967; 7905,978;67,85130
 528,41; 5395,111;   67,366; 8041,021;66,81685
 528,99; 5445,221;   66,365; 8108,167;66,88620
 529,58; 5464,193;   42,562; 8168,736;66,71812
 530,16; 5522,989;   49,461; 8315,379;66,21803
 530,75; 5627,435;   73,964; 8417,069;66,56359
 531,33; 5653,228;   45,566; 8440,980;66,79434
 531,92; 5681,934;   48,560; 8567,344;66,12885
 532,50; 5802,760;   87,770; 8706,468;66,30920
 533,09; 5822,990;   65,665; 8807,204;65,86169
 533,67; 5896,892;   63,458; 8952,011;65,62861
 534,26; 5929,182;   65,760; 9007,665;65,57240
 534,84; 5975,455;   68,461; 9127,061;65,20868
 535,42; 6070,135;   61,564; 9205,969;65,70762
 536,01; 6125,544;   79,263; 9330,215;65,35848
 536,59; 6220,276;   43,366; 9482,202;65,44144
 537,18; 6230,565;   77,360; 9568,605;64,83032
 537,76; 6297,501;   56,972; 9764,700;64,28414
 538,35; 6351,535;   59,368; 9892,694;63,98819
 538,93; 6424,552;   72,664; 9941,828;64,36095
 539,52; 6486,929;   57,370;10111,405;63,95003
 540,10; 6586,891;   63,269;10309,029;63,67142
 540,69; 6578,048;   68,763;10444,071;62,73823
 541,27; 6665,058;   58,262;10514,917;63,18269
 541,85; 6702,142;   47,366;10658,783;62,71335
 542,44; 6793,917;   56,460;10765,484;62,91382
 543,02; 6836,291;   80,369;10952,729;62,13850
 543,61; 6952,197;   77,067;11102,218;62,35861
 544,19; 6983,424;   55,066;11264,023;61,81091
 544,78; 6995,293;   62,766;11296,562;61,71135
 545,36; 7089,556;   77,469;11521,011;61,27550
 545,94; 7084,834;   54,564;11563,069;61,08761
 546,53; 7147,467;   52,771;11724,882;60,78331
 547,11; 7241,187;   90,668;11879,873;60,65310
 547,70; 7305,565;   75,860;11954,706;60,86201
 548,28; 7358,121;   47,965;12093,066;60,68987
 548,86; 7388,221;   81,365;12327,767;59,66533
 549,45; 7437,453;   33,768;12364,953;60,04033
 550,03; 7560,332;   76,467;12507,537;60,20290
 550,62; 7623,359;   63,566;12662,842;60,00181
 551,20; 7705,297;   61,467;12808,418;59,96595
 551,78; 7765,700;   61,164;12952,850;59,76361
 552,37; 7835,334;   55,864;13112,469;59,58264
 552,95; 7917,187;   56,765;13214,547;59,73972
 553,54; 8015,804;   49,965;13393,207;59,69943
 554,12; 8094,549;   67,167;13498,797;59,76476
 554,70; 8265,787;   67,568;13736,973;59,97495
 555,29; 8242,756;   61,965;13856,285;59,30550
 555,87; 8348,395;   60,170;13987,786;59,50928
 556,45; 8415,541;   57,162;14154,058;59,29234
 557,04; 8447,663;   43,667;14376,600;58,63417
 557,62; 8570,663;   68,867;14525,499;58,80897
 558,20; 8711,784;   42,671;14799,940;58,74470
 558,79; 8827,201;  100,368;14905,875;58,94316
 559,37; 8843,397;   49,867;15000,418;58,81743
 559,95; 8889,422;   46,669;15169,691;58,47213
 560,54; 8956,770;   71,768;15324,613;58,25144
 561,12; 9056,493;   50,866;15485,562;58,34665
 561,70; 9141,239;   50,369;15679,551;58,16600
 562,29; 9204,835;   61,768;15810,994;58,05407
 562,87; 9310,952;   73,168;16023,953;57,91429
 563,45; 9361,652;   71,068;16194,754;57,62072
 564,04; 9357,510;   54,362;16227,195;57,52330
 564,62; 9507,305;   37,769;16438,332;57,73909
 565,20; 9566,207;   59,962;16715,838;57,07442
 565,78; 9698,639;   70,765;16797,326;57,56039
 566,37; 9742,142;   71,066;17011,283;57,08944
 566,95; 9778,991;   52,969;17124,330;56,97274
 567,53; 9891,741;   67,262;17308,857;56,98127
 568,12; 9912,521;   62,265;17367,766;56,91980
 568,70;10027,270;   85,264;17565,889;56,87443
 569,28;10076,739;   61,069;17745,252;56,63632
 569,86;10135,780;   67,767;17910,758;56,42559
 570,45;10271,908;   78,569;18124,689;56,48493
 571,03;10262,624;   53,962;18259,898;56,07326
 571,61;10361,163;   46,571;18424,824;56,12390
 572,19;10364,862;   54,263;18395,773;56,21456
 572,78;10492,400;   70,668;18668,975;56,03592
 573,36;10580,234;   84,264;18797,668;56,08798
 573,94;10616,100;   44,064;18892,750;56,08898
 574,52;10609,096;   54,559;19030,768;55,61984
 575,11;10687,166;   37,264;19159,830;55,69285
 575,69;10772,428;   53,566;19268,680;55,78349
 576,27;10766,203;   47,161;19391,381;55,41212
 576,85;10850,135;   43,264;19549,668;55,40166
 577,44;10872,141;   30,262;19814,158;54,80153
 578,02;10876,330;   32,159;19753,887;54,98591
 578,60;10974,083;   50,464;20073,791;54,55447
 579,18;10948,214;   51,963;20160,752;54,18651
 579,76;10927,952;   40,264;20300,129;53,74018
 580,35;11001,742;   60,170;20436,707;53,69692
 580,93;11033,666;   59,667;20641,557;53,31871
 581,51;11012,760;   24,770;20697,168;53,15295
 582,09;11021,627;   58,663;20755,756;52,96862
 582,67;11028,697;   49,567;20971,318;52,47711
 583,26;10996,270;   28,568;21227,014;51,73823
 583,84;10994,518;   14,164;21413,709;51,31115
 584,42;11028,469;   48,064;21513,287;51,15439
 585,00;11090,828;   81,366;21772,180;50,75633
 585,58;11057,263;   25,167;21912,299;50,40448
 586,17;11020,186;   46,761;21948,521;50,10293
 586,75;10956,677;    6,666;22026,902;49,72704
 587,33;11002,114;   47,767;22191,678;49,46889
 587,91;10984,576;   74,866;22390,201;48,88885
 588,49;10941,441;   63,962;22349,758;48,80902
 589,07;10902,684;   45,468;22403,215;48,56131
 589,65;10830,745;   28,267;22444,439;48,19056
 590,24;10765,124;   42,562;22447,799;47,85739
 590,82;10682,455;   28,261;22484,160;47,44497
 591,40;10657,317;   41,464;22520,209;47,22618
 591,98;10638,413;   45,759;22558,227;47,05239
 592,56;10614,154;   61,161;22699,961;46,61463
 593,14;10563,613;   43,359;22728,928;46,37421
 593,72;10656,104;   29,765;22889,107;46,48576
 594,30;10531,630;   36,759;22797,486;46,10956
 594,89;10613,352;   41,364;22862,428;46,32557
 595,47;10623,985;   38,961;22922,623;46,25582
 596,05;10614,163;   30,267;23003,799;46,06996
 596,63;10660,963;   31,167;23056,199;46,16626
 597,21;10655,459;   36,766;23145,441;45,95111
 597,79;10666,646;   35,467;23166,039;45,96159
 598,37;10752,625;   36,669;23222,748;46,21720
 598,95;10699,376;   50,766;23305,301;45,79154
 599,53;10681,685;   46,757;23207,996;45,91692
 600,11;10773,387;   48,665;23341,947;46,04212
 600,70;10713,531;   57,363;23315,111;45,81771
 601,28;10709,617;   38,564;23424,809;45,62961
 601,86;10757,477;   61,766;23355,102;45,91747
 602,44;10701,055;   23,661;23449,660;45,57925
 603,02;10720,547;   38,656;23576,521;45,38173
 603,60;10775,540;   54,858;23663,232;45,41051
 604,18;10683,680;   69,263;23594,734;45,11883
 604,76;10638,527;   59,263;23642,154;44,85991
 605,34;10555,207;   27,565;23530,764;44,79238
 605,92;10479,272;   59,561;23453,719;44,53980
 606,50;10437,624;   17,662;23498,998;44,37551
 607,08;10436,328;   31,666;23394,881;44,53438
 607,66;10418,859;   39,266;23561,643;44,12647
 608,24;10419,080;   46,067;23522,059;44,18562
 608,82;10341,466;   26,164;23532,031;43,88395
 609,40;10268,111;   46,466;23471,021;43,63645
 609,98;10271,152;   18,864;23505,928;43,65079
 610,56;10206,168;   43,861;23497,662;43,32904
 611,14;10200,155;   30,765;23481,086;43,36568
 611,72;10224,321;   42,665;23572,467;43,27132
 612,30;10199,010;   24,962;23468,496;43,39810
 612,88;10100,227;   60,659;23517,730;42,79975
 613,46;10012,724;   21,862;23505,697;42,54357
 614,04;10008,487;   30,068;23461,873;42,58494
 614,62; 9998,403;   41,561;23489,982;42,46274
 615,20; 9867,983;   52,768;23402,416;42,03582
 615,78; 9744,190;   25,569;23463,430;41,46548
 616,36; 9722,200;   41,364;23400,150;41,44409
 616,94; 9604,959;    7,666;23272,242;41,25282
 617,52; 9572,066;   24,067;23373,656;40,89151
 618,10; 9665,578;   63,559;23336,107;41,25899
 618,68; 9540,342;   17,966;23253,184;40,98251
 619,26; 9524,018;   39,268;23398,834;40,60328
 619,84; 9438,579;   18,963;23277,133;40,50025
 620,42; 9432,204;   31,165;23313,506;40,37841
 621,00; 9386,204;   28,865;23209,607;40,36687
 621,58; 9429,064;   38,760;23216,406;40,51449
 622,16; 9399,946;   49,270;23335,164;40,15597
 622,74; 9426,159;   47,066;23327,742;40,28703
 623,32; 9413,225;   42,166;23291,223;40,30726
 623,90; 9352,381;   66,971;23311,484;39,94667
 624,48; 9336,924;   32,662;23196,598;40,16702
 625,05; 9372,424;   34,562;23105,098;40,47527
 625,63; 9357,324;   52,962;23188,799;40,21623
 626,21; 9334,311;   38,262;23117,596;40,27867
 626,79; 9346,197;   53,967;23219,719;40,11193
 627,37; 9268,158;   28,162;23090,717;40,06493
 627,95; 9361,684;   72,768;23200,215;40,16403
 628,53; 9223,403;   49,365;23176,607;39,66767
 629,11; 9117,062;   48,259;23043,449;39,43782
 629,69; 9160,305;   53,369;23256,932;39,24801
 630,27; 9086,479;   80,763;23105,434;39,11334
 630,84; 8982,023;   43,862;23021,197;38,89991
 631,42; 9005,366;   54,367;23319,656;38,47362
 632,00; 8913,195;   45,459;23125,768;38,42122
 632,58; 8859,948;   50,263;23105,172;38,21175
 633,16; 8922,729;   49,870;23096,906;38,49891
 633,74; 8929,169;   56,264;23018,488;38,64131
 634,32; 8827,220;   45,661;23007,842;38,24357
 634,90; 8903,712;   51,970;23195,746;38,24675
 635,47; 8818,434;   38,860;23035,645;38,17740
 636,05; 8862,720;   37,461;22989,342;38,45114
 636,63; 8850,004;   45,965;23104,807;38,18075
 637,21; 8916,452;   67,464;23150,529;38,33541
 637,79; 8924,190;   71,465;23192,904;38,28795
 638,37; 8877,678;   54,055;23070,883;38,33553
 638,94; 8911,556;   33,265;23100,686;38,48844
 639,52; 8912,355;   41,665;23195,285;38,31233
 640,10; 8990,125;   64,264;23215,900;38,55391
 640,68; 8951,188;   54,164;23175,334;38,47999
 641,26; 8918,253;   35,864;23250,268;38,26240
 641,84; 8929,117;   39,164;23235,002;38,32564
 642,41; 8910,581;   28,264;23192,936;38,34424
 642,99; 8879,646;   48,464;23145,568;38,23502
 643,57; 8828,210;   22,064;23158,402;38,06197
 644,15; 8882,774;   27,064;23178,035;38,25200
 644,73; 8854,038;   37,564;23277,568;37,93663
 645,30; 8809,702;   55,264;23230,303;37,77529
 645,88; 8803,267;   44,964;23362,635;37,56080
 646,46; 8788,431;   59,264;23447,568;37,32279
 647,04; 8784,396;   51,864;23367,902;37,45290
 647,61; 8756,060;   46,564;23396,336;37,30013
 648,19; 8792,924;   61,664;23433,369;37,35825
 648,77; 8746,188;   26,264;23442,002;37,23958
 649,35; 8790,052;   51,064;23590,137;37,12545
 649,92; 8833,516;   42,464;23596,070;37,32359
 650,50; 8835,880;   30,064;23551,104;37,43804
 651,08; 8808,545;   39,964;23450,537;37,45564
 651,66; 8944,209;   21,864;23534,770;37,94659
 652,23; 8958,473;   39,064;23561,004;37,91953
 652,81; 8964,737;   36,464;23644,137;37,81937
 653,39; 9025,602;   56,164;23647,170;38,02058
 653,97; 9129,266;   37,065;23882,504;38,12973
 654,54; 9096,529;   23,565;23823,137;38,12239
 655,12; 9146,794;   30,965;23831,971;38,30018
 655,70; 9212,059;   42,065;23962,805;38,33491
 656,28; 9245,022;   32,765;23947,037;38,52201
 656,85; 9231,187;   44,065;24051,070;38,26850
 657,43; 9175,051;   -1,035;23831,305;38,50267
 658,01; 9210,415;   21,465;24078,539;38,19646
 658,58; 9310,479;   55,165;24234,371;38,27799
 659,16; 9208,644;   51,965;24154,105;37,99114
 659,74; 9221,607;   59,465;24338,039;37,73756
 660,32; 9286,771;   71,665;24327,672;37,99103
 660,89; 9223,936;   34,265;24347,305;37,79729
 661,47; 9188,900;   51,665;24464,939;37,42732
 662,05; 9180,564;   25,365;24587,373;37,27382
 662,62; 9331,828;   59,665;24584,006;37,80800
 663,20; 9362,993;   80,665;24740,139;37,64204
 663,78; 9447,857;   47,965;24902,773;37,81921
 664,35; 9526,721;   52,465;24921,006;38,09735
 664,93; 9543,686;   64,465;25123,539;37,82750
 665,51; 9664,750;   49,565;25170,973;38,27487
 666,08; 9684,014;   30,165;25185,707;38,37663
 666,66; 9878,878;   47,465;25667,539;38,37387
 667,23; 9913,742;   51,765;25732,773;38,40183
 667,81;10129,007;   65,865;25889,307;38,96902
 668,39;10195,671;   43,265;26047,141;39,04189
 668,96;10310,035;   54,665;26309,074;39,06152
 669,54;10423,399;   38,765;26408,408;39,38102
 670,12;10620,264;   51,165;26808,740;39,49946
 670,69;10738,728;   64,165;26950,674;39,70230
 671,27;10843,092;   25,565;27096,008;39,96066
 671,84;10853,256;   40,665;27105,240;39,95108
 672,42;10893,521;   66,265;27253,875;39,82423
 673,00;10923,084;   57,165;27531,408;39,54947
 673,57;10940,948;   59,965;27276,441;39,97940
 674,15;10993,013;   64,065;27613,475;39,67035
 674,72;10914,377;   58,565;27536,209;39,50780
 675,30;10936,941;   69,466;27513,541;39,59862
 675,88;10918,205;   36,266;27573,176;39,51765
 676,45;10934,270;   59,466;27677,309;39,37601
 677,03;10890,334;   67,866;27525,043;39,41581
 677,60;10829,198;   41,466;27770,576;38,90400
 678,18;11000,262;   59,466;27877,510;39,32985
 678,76;10865,727;   40,766;27809,143;38,98305
 679,33;10931,891;   57,666;27813,176;39,17862
 679,91;10915,955;   44,266;27813,311;39,15039
 680,48;10948,419;   28,766;27740,242;39,40480
 681,06;11009,283;   50,866;27735,176;39,58349
 681,63;11025,047;   37,566;27736,209;39,66794
 682,21;11118,012;   67,966;27797,543;39,84931
 682,78;10984,476;   20,566;27459,576;39,95738
 683,36;11133,240;   46,966;27565,510;40,28656
 683,93;11137,304;   30,466;27450,645;40,50607
 684,51;11219,668;   26,166;27477,277;40,77613
 685,08;11326,532;   38,966;27733,711;40,75707
 685,66;11372,196;   53,066;27694,045;40,95054
 686,24;11401,561;   33,766;27796,578;40,94612
 686,81;11506,226;   57,666;27899,910;41,11938
 687,39;11552,890;   38,866;27807,844;41,46362
 687,96;11589,254;   54,166;27850,479;41,49863
 688,54;11744,518;   30,866;27984,811;41,90339
 689,11;11752,482;   26,966;28043,545;41,85206
 689,69;11709,646;   29,666;28019,279;41,72970
 690,26;11835,511;   59,466;28289,313;41,71487
 690,84;11734,375;   50,066;28239,846;41,44874
 691,41;11806,239;   35,966;28403,879;41,49150
 691,98;11859,803;   31,466;28427,912;41,65428
 692,56;11884,067;   32,866;28437,445;41,72285
 693,13;11954,932;   64,866;28655,080;41,58789
 693,71;11962,096;   24,466;28657,912;41,69121
 694,28;11977,660;   41,966;28715,945;41,62552
 694,86;12026,024;   47,266;28928,879;41,47538
 695,43;12113,889;   61,366;29100,912;41,50383
 696,01;12208,152;   36,266;29145,547;41,81445
 696,58;12281,316;   42,167;29083,879;42,14335
 697,16;12343,081;   38,067;29126,414;42,30221
 697,73;12470,245;   63,467;29338,246;42,38043
 698,30;12544,509;   51,867;29223,980;42,82392
 698,88;12676,974;   40,467;29558,613;42,80928
 699,45;12734,438;   35,367;29765,848;42,71398
 700,03;12849,901;   56,067;29750,980;43,08426
 700,60;12991,366;   56,267;29850,613;43,41461
 701,18;13167,630;   61,867;29963,947;43,82893
 701,75;13311,795;   74,367;30094,682;44,09490
 702,32;13270,059;   50,367;29901,914;44,28478
 702,90;13452,123;   52,467;30254,148;44,36725
 703,47;13487,688;   51,367;30428,881;44,23114
 704,05;13572,451;   67,767;30546,715;44,30824
 704,62;13700,815;   39,867;30587,848;44,71964
 705,19;13699,680;   43,667;30586,982;44,71032
 705,77;13752,744;   29,967;30618,314;44,86276
 706,34;13839,208;   61,667;30627,049;45,07564
 706,91;13851,172;   46,367;30673,883;45,07321
 707,49;13975,937;   57,267;30976,316;45,01649
 708,06;14016,900;   66,367;31089,049;44,96882
 708,64;13966,865;   25,767;31093,582;44,87312
 709,21;14046,729;   58,167;31179,316;44,94873
 709,78;14077,894;   41,367;31281,150;44,93157
 710,36;14160,657;   61,667;31419,684;44,96136
 710,93;14193,622;   50,567;31562,416;44,88170
 711,50;14314,386;   44,467;31506,049;45,35665
 712,08;14489,950;   76,567;31925,383;45,25563
 712,65;14493,414;   73,667;31775,916;45,48493
 713,22;14534,278;   69,067;31900,250;45,44352
 713,80;14596,743;   84,167;31966,883;45,51863
 714,37;14709,307;   55,767;31827,018;46,12201
 714,94;14786,171;   53,967;31727,551;46,51259
 715,52;14870,835;   47,867;31732,984;46,78211
 716,09;14977,100;   65,467;31891,918;46,85295
 716,66;15056,464;   73,467;31935,051;47,02527
 717,23;15077,028;   66,867;31908,484;47,14007
 717,81;15119,592;   50,168;31812,018;47,44505
 718,38;15116,156;   47,468;31671,252;47,64986
 718,95;15135,120;   59,068;31618,984;47,76962
 719,53;15326,484;   56,568;31661,418;48,31511
 720,10;15333,449;   59,968;31481,252;48,60871
 720,67;15282,014;   35,768;31355,984;48,67861
 721,24;15169,877;   59,468;31256,020;48,43615
 721,82;15238,241;   49,968;31236,053;48,70208
 722,39;15411,906;   64,068;31235,885;49,23627
 722,96;15296,770;   64,968;31261,420;48,82543
 723,53;15332,734;   88,268;31151,953;49,07488
 724,11;15391,198;   61,568;31207,486;49,21875
 724,68;15440,463;   71,568;31242,020;49,30597
 725,25;15510,427;   72,768;31399,953;49,27879
 725,82;15586,791;   96,068;31564,387;49,22641
 726,40;15540,155;   62,668;31714,820;48,89869
 726,97;15584,319;   62,168;31875,354;48,79157
 727,54;15542,584;   46,968;31801,486;48,79815
 728,11;15706,848;   49,568;32045,820;48,93473
 728,69;15704,813;   39,568;31938,953;49,10830
 729,26;15760,576;   53,568;32105,088;49,00550
 729,83;15896,740;   53,268;32264,621;49,18599
 730,40;15929,505;   66,768;32291,754;49,22496
 730,97;16120,769;   44,268;32590,588;49,39576
 731,55;16052,033;   41,468;32755,820;48,94049
 732,12;16252,697;   86,268;32841,656;49,35502
 732,69;16280,361;   66,968;32889,988;49,39641
 733,26;16412,826;   55,168;32930,520;49,75660
 733,83;16435,990;   41,168;32979,055;49,77497
 734,41;16536,453;   65,468;32991,590;50,02407
 734,98;16749,418;   51,368;33155,621;50,44080
 735,55;16959,883;   43,168;33183,656;51,04546
 736,12;16998,348;   65,968;33377,289;50,83071
 736,69;17111,611;   76,968;33377,922;51,15362
 737,26;17130,676;   57,468;33552,254;50,97273
 737,84;17346,939;   70,768;33487,188;51,69965
 738,41;17374,104;   63,168;33492,422;51,78379
 738,98;17361,068;   63,569;33375,055;51,92653
 739,55;17433,932;   49,669;33377,789;52,16095
 740,12;17558,297;   62,969;33678,023;52,04611
 740,69;17560,859;   70,569;33575,656;52,20190
 741,26;17523,924;   56,269;33557,391;52,14051
 741,83;17512,889;   53,869;33719,523;51,86003
 742,41;17562,652;   56,169;33833,055;51,82977
 742,98;17704,316;   91,469;33874,590;52,13505
 743,55;17640,082;   53,569;33836,824;52,05689
 744,12;17549,445;   50,469;33859,855;51,75775
 744,69;17685,410;   59,569;33848,492;52,16455
 745,26;17599,674;   42,169;33677,723;52,19924
 745,83;17563,938;   58,769;33854,355;51,79720
 746,40;17613,102;   57,969;33844,789;51,95852
 746,97;17672,367;   44,769;33828,125;52,17835
 747,55;17727,730;   62,269;33966,957;52,10330
 748,12;17768,695;   57,869;33910,191;52,31791
 748,69;17635,160;   68,769;33877,625;51,95796
 749,26;17862,924;   65,069;33958,559;52,51113
 749,83;17819,588;   42,569;33911,992;52,48693
 750,40;17977,451;   89,669;34158,824;52,50433
 750,97;18060,615;   96,269;34144,160;52,76199
 751,54;17995,180;   40,569;33980,793;52,90068
 752,11;18106,244;   52,969;33874,727;53,37770
 752,68;18024,309;   87,869;33912,859;53,02718
 753,25;18055,572;   60,269;33774,594;53,37584
 753,82;18150,637;   65,069;33810,527;53,59408
 754,39;18126,502;   75,169;33727,160;53,64120
 754,96;18107,166;   60,069;33616,395;53,78150
 755,53;18213,230;   29,469;33796,527;53,85059
 756,10;18358,693;   64,169;33720,961;54,35611
 756,67;18368,158;   73,369;33813,395;54,22281
 757,24;18192,922;   72,769;33740,426;53,82065
 757,81;18230,086;   16,469;33677,762;54,10849
 758,38;18294,250;   54,569;33822,695;54,01449
 758,95;18233,516;   79,469;33743,426;53,92725
 759,52;18047,779;   57,469;33615,859;53,60898
 760,09;18035,943;   68,570;33306,992;54,05604
 760,66;17920,207;   59,570;33309,727;53,71595
 761,23;17909,871;   91,070;33353,961;53,56961
 761,80;17823,137;   56,270;33295,793;53,45103
 762,37;17743,699;   68,970;33167,727;53,39998
 762,94;17743,764;   70,970;33187,461;53,36554
 763,51;17770,428;   36,070;32949,793;53,88135
 764,08;17764,992;   66,270;32998,527;53,74282
 764,65;17664,457;   69,570;32798,961;53,75868
 765,22;17580,621;   54,670;32804,496;53,51464
 765,79;17512,785;   77,370;32691,928;53,45900
 766,36;17534,250;   73,170;32743,063;53,44701
 766,93;17568,113;   68,970;32551,295;53,87282
 767,50;17536,377;   89,470;32828,328;53,29113
 768,07;17560,842;   63,870;32699,262;53,61349
 768,64;17532,506;   86,470;32572,596;53,70304
 769,21;17441,170;   57,970;32359,729;53,81503
 769,78;17384,334;   78,770;32244,963;53,80047
 770,34;17231,299;   45,570;32031,195;53,72954
 770,91;17330,063;   58,470;31921,430;54,20586
 771,48;17222,227;   62,370;31836,863;54,00513
 772,05;17102,992;   66,470;31610,697;54,00837
 772,62;17066,455;   42,670;31443,029;54,21526
 773,19;17164,520;   59,370;31579,764;54,26693
 773,76;17155,385;   71,070;31506,297;54,34767
 774,33;17175,549;   74,170;31447,330;54,50958
 774,90;17067,313;   52,870;31206,064;54,61540
 775,47;17010,576;   59,970;30957,498;54,86072
 776,03;16943,441;   73,470;30984,330;54,57620
 776,60;16922,105;   55,970;30757,863;54,93516
 777,17;16906,770;   65,470;30698,098;54,97830
 777,74;16706,734;   30,870;30522,031;54,69081
 778,31;16606,398;   68,970;30582,064;54,19781
 778,88;16599,662;   30,470;30366,898;54,61814
 779,45;16543,627;   75,770;30358,131;54,38102
 780,01;16469,590;   58,370;30299,664;54,26758
 780,58;16300,854;   60,570;30177,998;53,92321
 781,15;16249,318;   38,771;29979,432;54,14225
 781,72;16202,983;   66,771;29962,266;53,97540
 782,29;16061,147;   51,771;29667,100;54,05774
 782,86;15996,111;   55,571;29617,732;53,92211
 783,42;15927,275;   56,171;29598,166;53,72388
 783,99;15767,740;   66,671;29482,100;53,37699
 784,56;15652,204;   55,171;29320,232;53,29575
 785,13;15726,168;   40,271;29247,266;53,70596
 785,70;15730,532;   49,071;29060,299;54,05308
 786,26;15690,497;   51,671;28910,732;54,19035
 786,83;15706,261;   84,371;28889,166;54,23364
 787,40;15589,425;   57,171;28783,500;54,06975
 787,97;15529,890;   43,971;28581,133;54,26580
 788,54;15468,453;   70,371;28515,268;54,13302
 789,10;15529,618;   57,971;28344,400;54,69636
 789,67;15490,282;   70,371;28245,334;54,72913
 790,24;15451,246;   51,071;28193,768;54,72175
 790,81;15348,511;   88,271;27914,400;54,84140
 791,37;15247,574;   73,671;27872,135;54,58540
 791,94;15255,238;   70,771;27886,367;54,58976
 792,51;15211,603;   46,271;27539,201;55,16084
 793,08;15186,867;   69,771;27555,234;55,00033
 793,64;15148,432;   71,271;27455,168;55,05849
 794,21;15019,396;   69,671;27250,602;55,00078
 794,78;14915,960;   53,071;27147,035;54,85683
 795,35;14884,124;   73,471;27007,969;54,98767
 795,91;14777,288;   48,071;26789,301;55,08055
 796,48;14524,652;   55,771;26710,734;54,28213
 797,05;14494,417;   57,671;26624,369;54,34151
 797,62;14469,480;   41,971;26600,701;54,32304
 798,18;14292,645;   57,471;26410,736;54,01673
 798,75;14271,409;   56,571;26279,770;54,20711
 799,32;14293,273;   60,771;26209,102;54,42987
 799,88;14143,537;   55,971;26051,535;54,19219
 800,45;13936,102;   33,971;25945,270;53,65277
 801,02;13926,566;   65,271;25880,104;53,69508
 801,58;13845,630;   90,872;25660,436;53,79348
 802,15;13777,494;   72,872;25615,270;53,65441
 802,72;13710,158;   66,172;25404,703;53,84679
 803,28;13616,522;   49,172;25288,938;53,75387
 803,85;13498,787;   41,972;25144,871;53,60662
 804,42;13422,151;   77,772;24948,004;53,65603
 804,98;13430,115;  100,672;24935,537;53,67230
 805,55;13325,979;   56,972;24702,371;53,83969
 806,12;13304,544;   83,572;24611,004;53,90280
 806,68;13119,008;   66,472;24493,738;53,43429
 807,25;13161,973;   74,972;24436,271;53,72045
 807,82;13177,437;   86,872;24407,805;53,82427
 808,38;13011,301;   73,672;24367,037;53,25581
 808,95;12929,365;   62,972;24166,971;53,37867
 809,52;12976,429;   50,272;24162,004;53,60941
 810,08;12998,993;   55,172;23994,938;54,06829
 810,65;12985,058;   77,172;24169,672;53,57636
 811,21;12896,922;   69,972;24123,404;53,32690
 811,78;13040,386;   92,472;24337,539;53,40432
 812,35;12991,550;   64,972;24173,871;53,61745
 812,91;12905,414;   90,072;24239,705;53,06640
 813,48;12874,679;   68,172;24202,738;53,06292
 814,04;12777,343;   64,172;24088,373;52,91818
 814,61;12750,907;   77,572;24176,006;52,58987
 815,18;12698,571;   67,772;23892,539;53,01542
 815,74;12594,136;   69,772;23709,172;52,98089
 816,31;12485,800;   83,372;23614,406;52,70668
 816,87;12315,964;   43,272;23489,641;52,34368
 817,44;12243,828;   76,972;23452,273;52,05005
 818,00;12139,893;   43,272;23159,506;52,32955
 818,57;12038,956;   71,872;23076,340;52,02069
 819,14;11971,721;   82,872;22924,273;52,04956
 819,70;11819,885;   72,672;22792,707;51,70420
 820,27;11695,849;   62,972;22691,941;51,40701
 820,83;11600,113;   70,072;22541,373;51,31007
 821,40;11517,077;   98,072;22431,908;51,12872
 821,96;11469,142;   75,272;22315,541;51,23081
 822,53;11343,905;   70,973;22257,574;50,80964
 823,09;11346,370;   81,073;22073,309;51,22398
 823,66;11183,034;   68,173;21862,541;50,99878
 824,22;11100,599;   77,173;21851,674;50,62539
 824,79;11102,763;   75,473;21561,408;51,32329
 825,35;11094,827;   65,173;21648,041;51,10375
 825,92;10930,891;   75,173;21398,875;50,90916
 826,48;10915,455;   87,673;21501,309;50,56489
 827,05;10801,220;   89,573;21448,242;50,15128
 827,61;10805,283;   75,273;21249,076;50,67588
 828,18;10784,248;   60,873;21191,209;50,74872
 828,74;10674,212;   91,673;21053,543;50,48471
 829,31;10564,576;   83,373;21002,176;50,10422
 829,87;10513,740;   73,073;20733,709;50,53410
 830,44;10463,404;   85,173;20631,443;50,51151
 831,00;10418,969;   91,273;20673,977;50,17658
 831,57;10305,933;  101,573;20631,609;49,70454
 832,13;10229,897;   72,073;20323,344;50,15895
 832,69;10171,062;   58,173;20309,477;49,93698
 833,26;10157,825;   85,473;20322,711;49,77138
 833,82;10103,490;   93,073;20197,744;49,79150
 834,39; 9946,654;   78,773;20137,477;49,19501
 834,95; 9942,818;   57,173;19959,410;49,67103
 835,52; 9887,782;   87,873;19851,744;49,58497
 836,08; 9853,047;   95,573;19951,877;49,14043
 836,64; 9734,711;   76,273;19800,711;48,96686
 837,21; 9604,275;   88,673;19552,443;48,88879
 837,77; 9557,339;   91,873;19491,777;48,79130
 838,34; 9547,903;   67,473;19470,012;48,86180
 838,90; 9364,367;   64,473;19306,045;48,33230
 839,46; 9416,731;   83,873;19312,479;48,53632
 840,03; 9411,196;   76,173;19300,811;48,55760
 840,59; 9334,660;   85,873;19175,645;48,44891
 841,16; 9273,324;  105,173;19156,578;48,12323
 841,72; 9237,488;   59,373;18965,512;48,54569
 842,28; 9232,953;   77,873;18857,246;48,75072
 842,85; 9193,917;   95,573;18812,578;48,61004
 843,41; 9143,581;  105,374;18740,813;48,50011
 843,97; 9125,445;   89,174;18686,846;48,58819
 844,54; 9065,810;  104,774;18624,979;48,38519
 845,10; 9091,674;   89,174;18523,713;48,83496
 845,67; 8946,738;   68,774;18413,445;48,39533
 846,23; 8940,502;   78,674;18361,080;48,47189
 846,79; 8960,166;   90,474;18265,613;48,80123
 847,36; 8890,030;   55,774;18179,047;48,74537
 847,92; 8860,195;   84,874;18034,680;48,88811
 848,48; 8795,159;   41,874;18039,213;48,63655
 849,04; 8710,123;   62,374;17949,447;48,34636
 849,61; 8712,787;   56,274;17918,580;48,46246
 850,17; 8683,852;   68,174;17819,514;48,53537
 850,73; 8705,016;   71,474;17764,848;48,79534
 851,30; 8613,580;   46,074;17669,881;48,61325
 851,86; 8507,944;   75,874;17597,914;48,12265
 852,42; 8451,509;   51,174;17568,348;47,95485
 852,99; 8459,772;   79,274;17583,082;47,87814
 853,55; 8426,937;   83,174;17542,514;47,78968
 854,11; 8353,901;   70,074;17432,049;47,71247
 854,67; 8344,766;   85,474;17420,881;47,64406
 855,24; 8255,130;   51,874;17213,414;47,80023
 855,80; 8217,894;   76,874;17244,848;47,41980
 856,36; 8252,758;   80,574;17175,881;47,80367
 856,92; 8167,022;   54,474;17027,215;47,79751
 857,49; 8190,287;   81,274;17048,248;47,79292
 858,05; 8061,951;   67,274;16968,482;47,30240
 858,61; 8072,015;   65,774;17003,316;47,26920
 859,17; 8013,079;   77,374;16904,250;47,16089
 859,74; 8015,143;   82,074;16836,883;47,34801
 860,30; 8011,407;   93,074;16663,016;47,78733
 860,86; 7951,372;   72,074;16692,350;47,40774
 861,42; 7924,936;   74,674;16545,883;47,66051
 861,99; 7878,900;   54,674;16506,717;47,55778
 862,55; 7868,664;   66,374;16393,051;47,78860
 863,11; 7844,928;   75,174;16437,283;47,48626
 863,67; 7862,493;   61,274;16290,117;48,07008
 864,23; 7861,257;   80,175;16199,351;48,27221
 864,80; 7824,121;   69,175;16081,384;48,43146
 865,36; 7779,085;   71,875;16120,817;48,02317
 865,92; 7766,949;   96,175;16088,751;47,96460
 866,48; 7775,414;   67,375;15987,384;48,41730
 867,04; 7666,878;   60,675;15891,418;48,04704
 867,60; 7667,342;   99,375;15884,451;47,94381
 868,17; 7643,606;   93,675;15884,685;47,81158
 868,73; 7549,471;   82,775;15672,618;47,89462
 869,29; 7480,035;   59,475;15470,151;48,15207
 869,85; 7474,399;  100,475;15369,685;48,29277
 870,41; 7366,463;   80,575;15293,418;47,89301
 870,97; 7365,927;   92,975;15232,252;48,04029
 871,54; 7252,992;   84,175;15178,686;47,49287
 872,10; 7183,656;   84,275;15055,419;47,42043
 872,66; 7082,920;   66,775;14910,652;47,26626
 873,22; 7094,684;   81,975;14890,586;47,35562
 873,78; 6977,249;   65,275;14742,419;47,09345
 874,34; 6951,612;   95,075;14662,652;47,06711
 874,90; 6999,013;  109,775;14536,053;47,75478
 875,46; 6944,513;   96,375;14412,952;47,83362
 876,03; 6812,513;   86,475;14363,353;47,11141
 876,59; 6772,712;   64,475;14153,253;47,61405
 877,15; 6735,712;  101,475;14166,853;47,16715
 877,71; 6699,913;   78,275;14064,652;47,34348
 878,27; 6712,612;   95,675;13910,553;47,89718
 878,83; 6675,612;  114,275;13971,753;47,34871
 879,39; 6698,112;   91,075;14082,753;47,22119
 879,95; 6617,712;   86,275;13964,253;47,06332
 880,51; 6643,112;   75,175;13927,253;47,41482
 881,07; 6632,513;   82,375;13978,753;47,13558
 881,63; 6662,413;   92,575;13971,253;47,33763
 882,19; 6700,513;   82,675;13921,553;47,82062
 882,75; 6690,913;   86,275;14019,553;47,40189
 883,31; 6791,212;   95,575;14187,853;47,51281
 883,88; 6848,313;   96,375;14174,353;47,96099
 884,44; 6780,513;   76,175;14175,753;47,54992
 885,00; 6828,513;  106,075;14266,952;47,47190
 885,56; 6786,013;  101,675;14299,452;47,08017
 886,12; 6863,712;  109,875;14421,152;47,19242
 886,68; 6860,013;   90,775;14436,753;47,18561
 887,24; 6923,712;  102,475;14574,952;47,13248
 887,80; 6857,112;   86,975;14671,753;46,41920
 888,36; 6983,413;  106,275;14715,652;47,07345
 888,92; 7024,612;   98,975;14773,353;47,19544
 889,48; 7081,513;   99,575;14973,853;46,93968
 890,04; 7055,112;   95,275;14803,053;47,32079
 890,60; 7111,212;  117,475;15014,652;46,94673
 891,16; 7132,413;   99,875;15075,853;46,95879
 891,72; 7125,313;  113,275;15058,452;46,91840
 892,28; 7153,212;  112,475;15126,053;46,89580
 892,84; 7071,612;   93,775;15039,853;46,68675
 893,39; 7090,313;  117,575;15112,952;46,49925
 893,95; 7027,612;  112,975;15044,753;46,30820
 894,51; 6926,712;   66,375;14891,253;46,27584
 895,07; 7046,712;  127,375;14906,353;46,81878
 895,63; 6903,313;   74,275;14689,952;46,72406
 896,19; 6892,712;   90,375;14601,952;46,87525
 896,75; 6806,913;  105,175;14460,152;46,68581
 897,31; 6748,013;   82,775;14295,853;46,89511
 897,87; 6679,612;   98,175;14146,853;46,84738
 898,43; 6676,313;   87,775;14075,753;47,10143
 898,99; 6621,612;  109,175;14002,753;46,87372
 899,55; 6580,612;  109,475;13940,652;46,78660
 900,11; 6515,112;  104,975;13747,553;46,98626
 900,67; 6446,913;   91,375;13658,652;46,84461
 901,22; 6428,612;  108,375;13601,952;46,83886
 901,78; 6277,513;   91,275;13560,053;45,93021
 902,34; 6312,413;  103,075;13451,152;46,51859
 902,90; 6291,313;   73,575;13350,652;46,83062
 903,46; 6246,813;   95,775;13236,353;46,80949
 904,02; 6130,913;   88,075;13091,553;46,47093
 904,58; 6046,712;   67,075;12918,152;46,53024
 905,14; 5998,513;   63,975;12874,553;46,32529
 905,70; 5913,313;   66,775;12696,053;46,29352
 906,25; 5909,313;   84,375;12708,452;46,14149
 906,81; 5854,813;   87,675;12732,152;45,60993
 907,37; 5835,313;   79,275;12616,152;45,91285
 907,93; 5764,212;   74,775;12588,152;45,46684
 908,49; 5728,313;  101,875;12497,652;45,38995
 909,05; 5748,313;   89,675;12425,553;45,87138
 909,60; 5709,612;   86,575;12340,452;45,88782
 910,16; 5644,013;   67,675;12291,853;45,61728
 910,72; 5628,112;  100,475;12207,753;45,65549
 911,28; 5552,712;   90,875;12156,053;45,26943
 911,84; 5531,513;   79,575;12106,753;45,33015
 912,39; 5467,112;   73,475;12049,353;45,03751
 912,95; 5486,212;  104,475;12001,452;45,23618
 913,51; 5429,513;   85,375;11945,253;45,06065
 914,07; 5374,712;   83,775;11813,452;45,10727
 914,63; 5357,413;   64,775;11748,053;45,30097
 915,18; 5337,013;   77,475;11617,853;45,57509
 915,74; 5271,612;   63,975;11632,652;45,01498
 916,30; 5206,013;   61,475;11588,553;44,63003
 916,86; 5208,913;   83,575;11514,652;44,83687
 917,42; 5145,212;   82,275;11425,152;44,63539
 917,97; 5117,313;   75,375;11265,452;45,05722
 918,53; 5073,112;   67,775;11196,253;44,97773
 919,09; 5085,212;   88,975;11223,753;44,87056
 919,65; 5023,112;   83,375;11083,452;44,90639
 920,20; 4945,013;   61,875;10983,053;44,71256
 920,76; 4929,813;   65,475;10849,452;45,10708
 921,32; 4893,913;   82,675;10770,952;45,01415
 921,87; 4841,513;   97,475;10670,253;44,87030
 922,43; 4735,212;   64,675;10561,353;44,49539
 922,99; 4672,712;   61,875;10406,753;44,57121
 923,55; 4657,612;   63,775;10357,353;44,62819
 924,10; 4583,212;   73,575;10282,853;44,17195
 924,66; 4537,112;   78,675;10170,152;44,18022
 925,22; 4433,413;   43,275;10093,952;43,68002
 925,77; 4416,513;   66,075; 9927,053;44,11771
 926,33; 4394,313;   90,375; 9903,253;43,86009
 926,89; 4344,712;   71,975; 9692,753;44,41156
 927,44; 4250,413;   52,175; 9580,553;44,06036
 928,00; 4200,013;   66,875; 9533,753;43,65893
 928,56; 4139,112;   80,375; 9372,253;43,68048
 929,12; 4056,613;   72,775; 9275,152;43,29140
 929,67; 3945,712;   67,575; 9091,053;42,97830
 930,23; 3881,613;   50,975; 8915,253;43,21432
 930,78; 3875,512;  100,675; 8842,553;43,18108
 931,34; 3757,113;   61,975; 8632,152;43,11623
 931,90; 3700,313;   61,675; 8494,353;43,14925
 932,45; 3635,413;   78,775; 8290,753;43,31036
 933,01; 3479,313;   52,975; 8024,453;42,98246
 933,57; 3408,512;   72,175; 7753,252;43,43580
 934,12; 3271,413;   70,475; 7399,553;43,67449
 934,68; 3059,113;   59,075; 7020,252;43,09670
 935,24; 2914,512;   67,875; 6614,752;43,48084
 935,79; 2739,212;   72,975; 6254,853;43,12990
 936,35; 2602,712;   91,375; 5812,252;43,89777
 936,90; 2397,113;   80,275; 5348,752;43,97547
 937,46; 2211,913;   72,775; 4956,953;43,79729
 938,02; 2054,012;   63,375; 4549,152;44,37664
 938,57; 1916,512;   73,175; 4265,053;43,97403
 939,13; 1784,012;   70,575; 3986,752;43,75280
 939,68; 1647,813;   57,375; 3713,452;43,50120
 940,24; 1580,813;   68,775; 3504,052;44,01500
 940,79; 1516,912;   91,875; 3391,052;43,19372
 941,35; 1474,912;   79,675; 3217,552;44,46437
 941,91; 1405,813;   71,375; 3122,252;43,73947
 942,46; 1368,412;   75,075; 3063,552;43,27747
 943,02; 1337,213;   65,375; 3050,752;42,60224
 943,57; 1300,713;   61,275; 2982,452;42,42938
 944,13; 1315,412;   67,375; 2974,452;42,93100
 944,68; 1341,012;   65,975; 3041,752;42,84720
 945,24; 1385,512;   82,275; 3060,052;43,76544
 945,79; 1352,912;   68,775; 3104,052;42,30709
 946,35; 1394,713;   51,775; 3194,752;42,72819
 946,90; 1434,113;   98,575; 3283,552;41,93240
 947,46; 1408,313;   52,175; 3311,052;41,61364
 948,01; 1434,713;   51,575; 3390,052;41,43019
 948,57; 1498,912;   86,775; 3552,952;40,74048
 949,12; 1523,313;   65,875; 3613,353;41,08377
 949,68; 1584,412;   76,275; 3732,653;41,24677
 950,23; 1608,213;   70,075; 3833,252;40,87337
 950,79; 1647,512;   75,775; 3933,452;40,74310
 951,34; 1687,613;   83,275; 4070,952;40,23238
 951,90; 1734,313;   57,475; 4140,853;41,06496
 952,45; 1781,813;   81,075; 4292,152;40,38723
 953,01; 1795,213;   65,975; 4364,252;40,23094
 953,56; 1854,213;   87,975; 4500,853;40,02462
 954,12; 1856,113;   42,075; 4567,553;40,08500
 954,67; 1900,613;   70,875; 4720,453;39,35277
 955,23; 1947,012;   61,975; 4804,553;39,74711
 955,78; 1963,813;   67,175; 4882,953;39,38383
 956,33; 1994,912;   58,575; 4947,252;39,60862
 956,89; 2002,912;   53,475; 5038,553;39,10546
 957,44; 2060,512;   53,675; 5170,752;39,21843
 958,00; 2046,012;   49,475; 5238,353;38,47725
 958,55; 2089,012;   70,475; 5313,953;38,49616
 959,10; 2103,712;   52,375; 5370,252;38,57436
 959,66; 2132,113;   74,275; 5488,752;38,00621
 960,21; 2164,712;   78,475; 5567,453;38,00776
 960,77; 2149,712;   54,275; 5606,152;37,74286
 961,32; 2181,512;   48,375; 5663,453;37,98946
 961,87; 2199,012;   79,775; 5738,752;37,44912
 962,43; 2167,212;   68,975; 5780,652;36,73592
 962,98; 2191,113;   76,175; 5828,652;36,76568
 963,54; 2143,113;   27,075; 5820,652;36,52385
 964,09; 2166,012;   56,275; 5873,953;36,26425
 964,64; 2174,413;   64,975; 5901,053;36,14478
 965,20; 2151,913;   44,375; 5966,652;35,58661
 965,75; 2191,012;   66,575; 5976,353;35,94784
 966,30; 2182,413;   75,275; 6068,553;35,15835
 966,86; 2192,913;   62,975; 6121,953;35,15342
 967,41; 2204,712;   81,075; 6084,453;35,37404
 967,96; 2198,212;   75,175; 6108,953;35,18587
 968,52; 2220,012;   81,775; 6126,353;35,37447
 969,07; 2165,813;   72,975; 6120,152;34,60850
 969,62; 2156,012;   77,175; 6134,953;34,31683
 970,18; 2175,613;   57,575; 6147,652;34,77850
 970,73; 2147,613;   66,475; 6203,553;33,91089
 971,28; 2166,913;   95,775; 6197,053;33,94596
 971,84; 2105,212;   55,075; 6118,752;33,81013
 972,39; 2131,813;   95,875; 6148,652;33,63642
 972,94; 2125,512;   54,975; 6140,652;34,02312
 973,49; 2121,512;   64,575; 6141,252;33,84971
 974,05; 2089,012;   64,375; 6178,053;33,11652
 974,60; 2117,613;   88,575; 6213,252;33,12889
 975,15; 2104,113;   77,675; 6231,553;32,92944
 975,71; 2052,613;   62,375; 6121,453;32,84720
 976,26; 2083,712;   77,575; 6110,252;33,25451
 976,81; 2098,012;   90,675; 6134,152;33,21494
 977,36; 2081,913;   84,775; 6156,953;32,88997
 977,92; 2058,313;   90,175; 6209,353;32,16343
 978,47; 2009,713;   77,175; 6060,252;32,30006
 979,02; 2020,113;   95,475; 6085,652;32,12989
 979,57; 1992,813;   86,775; 6058,453;31,91796
 980,13; 1945,713;   76,175; 6038,752;31,35452
 980,68; 1946,613;   77,075; 6010,553;31,50829
 981,23; 1952,012;   89,175; 6054,652;31,22696
 981,78; 1905,512;   82,075; 5974,152;30,94728
 982,33; 1903,113;   79,275; 5893,252;31,36988
 982,89; 1877,313;   94,375; 5938,152;30,51002
 983,44; 1834,012;   65,675; 5935,853;30,12409
 983,99; 1853,113;  104,775; 5949,453;29,91333
 984,54; 1807,912;   81,475; 5900,053;29,67113
 985,09; 1829,113;   87,275; 5873,752;30,10186
 985,65; 1769,813;   69,375; 5811,853;29,61157
 986,20; 1781,512;  106,575; 5791,152;29,46459
 986,75; 1748,613;   95,875; 5823,953;28,85327
 987,30; 1727,713;   97,175; 5726,053;28,96736
 987,85; 1693,713;   92,475; 5721,353;28,44684
 988,40; 1666,613;   96,675; 5693,953;28,04823
 988,96; 1670,613;  114,875; 5666,553;28,02284
 989,51; 1644,412;  108,875; 5644,053;27,74143
 990,06; 1652,313;  128,275; 5680,853;27,44739
 990,61; 1611,813;   93,575; 5569,053;27,72795
 991,16; 1607,113;  104,375; 5558,053;27,55457
 991,71; 1552,213;   79,875; 5505,853;27,13497
 992,26; 1543,912;   93,475; 5457,252;27,04134
 992,81; 1534,412;   75,075; 5427,053;27,26726
 993,37; 1553,713;  113,475; 5390,553;27,29233
 993,92; 1517,713;  108,375; 5368,953;26,79055
 994,47; 1515,813;  117,475; 5329,652;26,82828
 995,02; 1512,213;  118,475; 5313,252;26,82959
 995,57; 1487,613;   90,875; 5274,652;26,94440
 996,12; 1513,912;  133,575; 5247,553;26,99146
 996,67; 1476,912;  132,375; 5191,652;26,57568
 997,22; 1454,213;   99,875; 5128,652;26,93175
 997,77; 1434,012;  115,275; 5110,553;26,39968
 998,32; 1411,912;  103,775; 5015,652;26,63213
 998,87; 1405,213;  114,275; 5018,752;26,32161
 999,42; 1378,012;  101,675; 4972,553;26,20344
 999,97; 1335,713;  109,975; 4956,353;25,29183
1000,53; 1387,512;  123,475; 4993,752;25,95412
1001,08; 1326,613;   98,375; 4879,053;25,69170
1001,63; 1322,813;  144,475; 4878,053;24,89317
1002,18; 1259,012;   85,075; 4777,453;25,01797
1002,73; 1305,912;  131,375; 4813,853;25,08368
1003,28; 1271,412;  103,575; 4811,953;24,80339
1003,83; 1215,813;  119,075; 4691,752;23,98458
1004,38; 1251,012;  137,775; 4703,152;24,38435
1004,93; 1189,613;  114,375; 4680,953;23,54581
1005,48; 1179,813;  104,075; 4573,053;24,07122
1006,03; 1144,113;  112,775; 4525,652;23,37109
1006,58; 1145,713;  111,475; 4486,553;23,63929
1007,13; 1087,813;   94,475; 4466,252;22,72159
1007,68; 1069,813;  104,975; 4462,453;22,14211
1008,23; 1085,613;  114,575; 4425,853;22,52320
1008,78; 1055,813;  107,375; 4384,152;22,17645
1009,33; 1058,912;  121,875; 4307,752;22,38569
1009,88; 1018,013;   84,775; 4329,553;21,98554
1010,43; 1047,113;  118,875; 4320,752;22,09102
1010,98; 1009,112;  100,675; 4310,053;21,58128
1011,52; 1001,112;   97,075; 4264,953;21,69060
1012,07; 1026,313;  144,475; 4319,252;21,12298
1012,62;  985,612;  103,875; 4259,152;21,21970
1013,17;  975,713;   97,175; 4172,053;21,55985
1013,72;  947,813;   94,575; 4143,453;21,07343
1014,27;  945,612;  100,275; 4105,853;21,10401
1014,82;  911,213;   86,875; 4042,952;20,83724
1015,37;  877,513;   84,375; 3964,853;20,43917
1015,92;  894,912;  109,475; 3894,252;20,75254
1016,47;  849,213;   90,275; 3819,452;20,35134
1017,02;  841,513;   81,075; 3732,153;20,82776
1017,57;  852,513;   96,475; 3718,853;20,87131
1018,11;  819,612;   77,275; 3656,252;20,74161
1018,66;  837,412;  120,175; 3636,552;20,39706
1019,21;  816,313;  109,675; 3579,552;20,36491
1019,76;  783,612;   77,675; 3497,353;20,64339
1020,31;  769,013;   71,975; 3446,452;20,65616
1020,86;  753,513;   96,175; 3448,052;19,61102
1021,41;  746,612;   80,175; 3387,052;20,15307
1021,96;  731,513;   83,675; 3385,853;19,61849
1022,50;  748,213;  105,975; 3332,952;19,90214
1023,05;  715,513;   94,675; 3288,052;19,44141
1023,60;  702,813;   97,975; 3251,353;19,18062
1024,15;  679,313;   81,075; 3184,853;19,27450
1024,70;  692,213;   95,075; 3176,252;19,38017
1025,25;  666,713;   81,175; 3127,452;19,22141
1025,79;  647,412;  101,175; 3110,752;18,14997
1026,34;  632,112;   83,475; 3044,653;18,52768
1026,89;  628,612;  102,175; 3039,052;17,92507
1027,44;  608,213;   95,875; 2952,952;17,93222
1027,99;  615,013;   93,475; 2944,552;18,29265
1028,53;  587,313;   89,675; 2900,052;17,70714
1029,08;  605,713;  114,775; 2876,653;17,77550
1029,63;  591,513;  114,875; 2854,952;17,39504
1030,18;  554,713;   92,075; 2788,552;17,15711
1030,73;  534,013;   91,175; 2739,552;16,72109
1031,27;  534,112;   85,875; 2715,252;17,04729
1031,82;  525,713;   81,875; 2686,452;17,04067
1032,37;  531,313;   98,875; 2688,853;16,69657
1032,92;  523,513;  100,575; 2675,452;16,42554
1033,46;  503,513;   99,775; 2599,252;16,15288
1034,01;  471,413;   78,375; 2582,952;15,69277
1034,56;  489,413;   98,875; 2559,252;15,87307
1035,11;  497,413;   92,375; 2523,552;16,66014
1035,65;  472,413;   87,575; 2478,052;16,09877
1036,20;  473,013;   99,375; 2454,452;15,86519
1036,75;  484,413;  118,675; 2446,353;15,71255
1037,29;  456,813;   90,275; 2398,252;15,88133
1037,84;  424,612;   78,375; 2347,252;15,26030
1038,39;  450,612;   91,075; 2329,952;16,05883
1038,94;  423,612;   73,075; 2277,153;15,90404
1039,48;  429,313;   83,575; 2278,552;15,75130
1040,03;  444,612;  102,875; 2245,252;15,95132
1040,58;  416,813;  101,175; 2194,552;15,07791
1041,12;  424,013;   91,375; 2191,653;15,83779
1041,67;  405,013;  101,075; 2166,752;14,71370
1042,22;  429,913;  118,475; 2145,252;15,36614
1042,76;  401,212;   99,275; 2118,452;14,95349
1043,31;  416,313;   90,675; 2060,653;16,53001
1043,86;  408,712;   98,875; 2044,252;15,92686
1044,40;  397,013;   92,975; 2018,052;15,79352
1044,95;  396,712;   94,175; 1988,552;15,97029
1045,50;  353,712;   75,375; 1934,353;14,97261
1046,04;  387,612;  114,375; 1930,453;15,04547
1046,59;  343,212;   96,175; 1878,353;13,86155
1047,13;  374,612;  121,075; 1879,453;14,41883
1047,68;  361,513;  115,675; 1860,052;14,09314
1048,23;  365,913;  118,775; 1866,752;14,13848
1048,77;  323,913;   90,175; 1784,953;13,79163
1049,32;  338,913;  104,175; 1785,953;13,95770
1049,86;  332,313;   92,675; 1760,552;14,36781
1050,41;  316,712;   82,475; 1735,552;14,16978
1050,96;  329,913;  100,875; 1698,652;14,33476
1051,50;  319,413;  101,675; 1663,252;13,94343
1052,05;  308,712;   94,675; 1664,052;13,63837
1052,59;  291,513;   82,975; 1624,152;13,53105
1053,14;  290,212;   84,475; 1582,652;13,73252
1053,69;  290,112;   98,475; 1571,453;13,01021
1054,23;  299,813;  104,575; 1569,052;13,33155
1054,78;  284,712;  100,775; 1550,152;12,69079
1055,32;  302,612;  123,075; 1550,453;12,57814
1055,87;  247,113;   68,875; 1491,752;12,52655
1056,41;  253,313;   78,775; 1469,552;12,54963
1056,96;  270,712;   96,775; 1451,052;12,84356
1057,50;  300,513;  113,375; 1470,853;13,78568
1058,05;  238,913;   82,075; 1401,953;11,88273
1058,59;  251,413;   95,875; 1396,552;11,95819
1059,14;  269,612;  103,575; 1370,453;13,10604
1059,68;  234,813;   75,975; 1329,353;12,67276
1060,23;  279,612;  126,875; 1383,752;12,15214
1060,77;  258,612;   97,375; 1317,052;13,21968
1061,32;  263,712;  108,575; 1320,652;12,79931
1061,86;  241,913;  111,175; 1289,752;11,09282
1062,41;  246,113;   93,975; 1242,953;13,24112
1062,95;  233,113;  109,575; 1230,853;11,01757
1063,50;  247,813;  111,075; 1230,052;12,21986
1064,04;  231,712;   90,475; 1197,453;12,75884
1064,59;  240,512;  114,775; 1210,052;11,47997
1065,13;  247,712;  103,475; 1170,552;13,51706
1065,68;  239,913;  107,275; 1161,353;12,58328
1066,22;  239,813;  115,875; 1166,453;11,79708
1066,76;  254,613;  130,175; 1145,252;12,25892
1067,31;  228,813;   99,875; 1110,552;12,75753
1067,85;  224,813;  100,975; 1090,252;12,51797
1068,40;  233,313;  110,275; 1095,353;12,49013
1068,94;  223,813;   99,175; 1079,353;12,71581
1069,49;  214,913;   98,175; 1041,652;12,37311
1070,03;  217,512;  111,175; 1034,353;11,51864
1070,57;  207,212;   88,775; 1012,852;12,81684
1071,12;  188,613;   75,875;  987,153;12,37137
1071,66;  250,613;  131,775; 1039,953;13,08527
1072,21;  223,313;  112,475; 1011,352;12,33066
1072,75;  199,913;  104,475;  978,552;10,91866
1073,29;  190,613;   77,075;  942,453;13,12000
1073,84;  204,212;   95,975;  941,153;12,80648
1074,38;  196,012;   93,875;  928,253;12,24116
1074,92;  208,712;  107,275;  940,153;12,17916
1075,47;  220,413;  112,775;  938,852;13,02995
1076,01;  205,512;  121,775;  926,253;10,40893
1076,56;  189,113;   97,275;  891,953;11,55657
1077,10;  189,813;   86,075;  865,253;13,31372
1077,64;  184,313;   97,875;  884,453;10,98906
1078,19;  214,413;  123,175;  887,753;11,93306
1078,73;  195,012;   98,775;  853,852;12,74538
1079,27;  195,012;  121,075;  875,552; 9,79983
1079,81;  205,113;  121,375;  860,953;11,32234
1080,36;  196,813;  105,975;  836,052;12,44217
1080,90;  187,913;   96,375;  819,753;12,65418
1081,44;  159,813;   82,475;  789,552;10,93763
1081,99;  144,512;   70,375;  771,753;10,57027
1082,53;  192,512;  113,075;  798,653;11,58695
1083,07;  174,413;  104,175;  791,453;10,21967
1083,62;  187,012;  101,275;  772,552;12,77229
1084,16;  175,212;   98,975;  782,453;11,15435
1084,70;  192,413;  107,475;  767,153;12,87561
1085,24;  189,113;  108,775;  750,653;12,51602
1085,79;  177,413;  109,175;  747,552;10,68921
1086,33;  161,813;   99,075;  711,453;10,24491
1086,87;  176,212;  102,075;  714,852;12,09860
1087,41;  161,913;   84,475;  686,852;12,85531
1087,96;  192,212;  124,575;  732,552;11,12500
1088,50;  168,113;  112,075;  696,953; 9,58107
1089,04;  193,313;  121,775;  715,153;12,05598
1089,58;  147,512;   82,375;  655,953;11,35635
1090,13;  150,813;  102,975;  653,153; 8,69492
1090,67;  172,313;  101,775;  678,753;12,22535
1091,21;  150,613;   92,075;  651,852;10,45728
1091,75;  166,212;  106,875;  647,153;10,98278
1092,29;  160,313;  105,875;  642,552;10,14343
1092,84;  168,012;  105,975;  628,352;11,87599
1093,38;  200,012;  128,175;  662,753;13,43818
1093,92;  184,413;  113,475;  640,052;13,47143
1094,46;  184,913;  128,175;  638,852;11,11024
1095,00;  157,913;   93,975;  602,052;12,58420
1095,54;  148,413;   89,975;  591,352;11,65539
1096,09;  167,813;  114,975;  597,352;10,95356
1096,63;  173,712;  117,175;  598,453;11,74738
1097,17;  152,813;  102,575;  573,052;10,67798
1097,71;  177,313;  122,875;  582,453;11,84512
1098,25;  152,913;  103,275;  553,653;11,02131
1098,79;  171,813;  104,775;  568,753;14,44844
1099,33;  156,012;  111,975;  572,052; 9,57176
1099,88;  156,313;  110,775;  562,253;10,08633
1100,42;  126,412;   83,275;  521,253; 9,84925

