0016 elitro 
Integration time [ms]:   8,000
Averaging Nr. [scans]: 10
Smoothing Nr. [pixels]: 0
Data measured with spectrometer [name]: 7314920SP
Wave   ;Sample   ;Dark     ;Reference;Reflectance
[nm]   ;[counts] ;[counts] ;[counts] ;[%]

 199,42;  101,695;   63,873;  150,055;43,88616
 200,02;  123,766;   92,669;  145,732;58,60404
 200,62;   75,434;   67,563;   88,793;37,07431
 201,22;  109,524;   86,969;  138,011;44,19025
 201,82;  101,770;   66,174;  141,790;47,07468
 202,42;  111,980;  101,668;  154,973;19,34437
 203,03;   67,749;   60,168;   91,775;23,98584
 203,63;   83,604;   69,967;  109,037;34,90466
 204,23;  103,417;   70,671;  129,903;55,28368
 204,83;   89,832;   74,567;  123,718;31,05762
 205,43;   86,195;   56,673;  123,555;44,14037
 206,03;   66,946;   50,167;   90,459;41,64412
 206,63;   77,568;   68,865;  100,007;27,94600
 207,24;  112,959;   74,675;  162,566;43,55867
 207,84;   55,060;   39,967;   83,699;34,51250
 208,44;   73,324;   50,669;   95,011;51,09291
 209,04;   57,354;   47,365;   85,066;26,49496
 209,64;   99,878;   69,972;  127,998;51,53893
 210,24;   60,932;   45,367;   97,218;30,01898
 210,84;   67,710;   51,469;  101,970;32,16062
 211,44;   92,855;   86,470;  122,908;17,52403
 212,05;   67,254;   60,865;   99,266;16,63738
 212,65;   79,949;   66,368;  112,975;29,13978
 213,25;   92,780;   93,768;  142,073;-2,04670
 213,85;   90,198;   84,465;  114,904;18,83460
 214,45;   68,032;   53,367;  100,418;31,16860
 215,05;   52,010;   39,369;  100,070;20,82574
 215,65;   69,097;   55,169;  105,630;27,60076
 216,25;   64,932;   40,267;   82,518;58,37749
 216,85;   43,538;   34,069;   89,651;17,03673
 217,45;   70,249;   49,068;   97,375;43,84690
 218,05;   88,914;   58,270;  112,886;56,10675
 218,66;   49,052;   28,769;   75,692;43,22707
 219,26;   53,304;   26,567;   79,337;50,66754
 219,86;   54,944;   36,771;   81,584;40,55405
 220,46;   87,527;   54,270;  104,127;66,70565
 221,06;   75,717;   51,871;  115,903;37,24016
 221,66;   72,175;   43,471;  103,481;47,83141
 222,26;   55,778;   39,772;  102,398;25,55784
 222,86;   84,107;   67,268;  118,954;32,58040
 223,46;   71,232;   51,767;   88,918;52,39451
 224,06;   84,030;   64,971;  120,343;34,42062
 224,66;   74,586;   57,570;  105,805;35,27621
 225,26;   81,869;   48,169;  113,748;51,38756
 225,86;   81,736;   42,173;  112,376;56,35577
 226,46;   68,094;   49,968;  102,913;34,23441
 227,06;   43,486;   27,670;   87,705;26,34379
 227,66;   56,212;   37,665;   74,845;49,88500
 228,27;   55,827;   29,270;   96,227;39,66346
 228,87;  108,000;   89,170;  143,046;34,94987
 229,47;   58,364;   29,172;   92,357;46,20053
 230,07;   39,069;   11,169;   59,648;57,54955
 230,67;   56,638;   38,169;   84,651;39,73431
 231,27;   50,827;   27,670;   76,327;47,59327
 231,87;   60,738;   43,169;  100,751;30,51184
 232,47;   94,787;   43,775;  132,047;57,78956
 233,07;   57,381;   42,965;   75,547;44,24718
 233,67;   61,149;   53,768;   94,275;18,22209
 234,27;   29,246;    0,567;   53,259;54,42811
 234,87;   56,744;   34,771;  106,084;30,81276
 235,47;   46,069;   16,169;   74,148;51,56944
 236,07;   44,843;   30,266;   72,042;34,89318
 236,67;   59,888;   49,966;   85,180;28,17407
 237,27;   57,267;   28,873;  109,074;35,40362
 237,87;   50,186;   25,370;   99,805;33,33846
 238,47;   35,366;   14,269;   68,032;39,24105
 239,07;   43,192;   33,272;   95,738;15,88015
 239,67;   85,107;   43,477;  131,421;47,33733
 240,27;   66,336;   46,773;  119,176;27,02045
 240,87;   74,853;   50,773;  119,533;35,02028
 241,47;   48,478;   39,164;   76,131;25,19763
 242,07;   43,621;   39,968;   92,894; 6,90268
 242,67;   24,481;  -11,027;   77,914;39,92289
 243,27;   25,032;    7,767;   46,418;44,66923
 243,87;   66,730;   48,671;  108,343;30,26447
 244,47;   65,217;   22,371;   99,703;55,40479
 245,07;   26,610;    2,669;   55,770;45,08661
 245,67;   39,549;   31,068;   85,575;15,55990
 246,27;   38,868;   34,965;   69,007;11,46518
 246,87;   44,807;   26,668;   63,154;49,71661
 247,46;   13,834;   19,663;   23,793;-141,14548
 248,06;   40,714;   20,470;   69,786;41,04819
 248,66;   54,178;   31,072;  105,898;30,87948
 249,26;   34,043;   32,366;   70,742; 4,37016
 249,86;   62,536;   42,873;  102,176;33,15781
 250,46;   40,573;   16,775;   93,507;31,01472
 251,06;   28,349;   22,168;   65,375;14,30611
 251,66;   28,958;   20,771;   64,724;18,62763
 252,26;   37,115;   38,866;   70,261;-5,57685
 252,86;   48,810;   35,969;   89,070;24,18304
 253,46;   -4,368;   -8,033;   22,118;12,15609
 254,06;   51,157;   31,766;   79,483;40,63769
 254,66;   44,395;   34,973;  100,155;14,45470
 255,26;   72,223;   39,073;  118,836;41,56038
 255,86;   50,978;   37,464;   55,631;74,39118
 256,46;   39,855;   19,870;   70,208;39,70226
 257,05;   37,672;   23,570;   59,565;39,17694
 257,65;   59,944;   38,071;   97,684;36,69249
 258,25;   68,664;   37,372;  101,457;48,82860
 258,85;   28,910;   15,669;   51,770;36,67887
 259,45;   26,638;    6,869;   42,951;54,78983
 260,05;   53,132;   46,667;   85,818;16,51342
 260,65;   52,115;   45,066;   83,561;18,31178
 261,25;   44,030;   29,371;   85,943;25,91289
 261,85;   19,389;   -0,129;   47,622;40,87405
 262,45;   53,310;   46,169;  109,270;11,31746
 263,04;   84,109;   53,073;  116,295;49,08995
 263,64;   50,291;   33,767;   77,097;38,13413
 264,24;   55,503;   37,671;   89,062;34,69773
 264,84;   91,698;   58,974;  138,671;41,06032
 265,44;   39,363;   26,368;   67,716;31,42902
 266,04;   54,985;   48,865;   71,464;27,07756
 266,64;   52,588;   39,866;   86,780;27,11603
 267,24;   42,888;   40,166;   68,980; 9,44396
 267,84;   39,080;   24,668;   76,573;27,76532
 268,43;   68,735;   48,368;   95,935;42,81838
 269,03;   56,052;   46,969;   87,892;22,19635
 269,63;   71,629;   58,566;   92,402;38,60747
 270,23;   13,212;   10,765;   39,045; 8,65305
 270,83;   66,415;   55,266;   83,161;39,96808
 271,43;   29,877;   23,967;   58,856;16,93749
 272,03;   67,263;   64,168;   99,116; 8,85680
 272,62;   34,297;   23,269;   68,730;24,25728
 273,22;   30,200;   11,970;   61,046;37,14565
 273,82;   23,011;   17,460;   26,403;62,06782
 274,42;   27,165;   25,164;   46,890; 9,20942
 275,02;   36,595;   34,864;   60,388; 6,78188
 275,62;   72,564;   31,972;  100,457;59,27111
 276,21;   34,641;   22,770;   69,267;25,53133
 276,81;   60,760;   46,767;   71,099;57,50815
 277,41;   48,561;   22,971;   96,341;34,87785
 278,01;   20,795;   21,364;   42,788;-2,65611
 278,61;   70,724;   38,869;   83,811;70,88178
 279,20;   84,136;   65,473;  119,076;34,81815
 279,80;    1,286;    6,762;   11,539;-114,61838
 280,40;   57,343;   36,866;   79,742;47,75847
 281,00;   10,424;   -4,331;   33,311;39,19975
 281,60;   44,812;   20,774;   74,812;44,48347
 282,20;   50,555;   36,670;   70,108;41,52556
 282,79;   45,435;   29,568;   70,135;39,11408
 283,39;   22,929;   17,466;   44,702;20,05866
 283,99;   23,581;   23,165;   34,347; 3,72875
 284,59;   23,583;   16,869;   45,289;23,62255
 285,19;   28,746;   27,067;   57,759; 5,47117
 285,78;   41,755;   23,270;   63,808;45,59993
 286,38;   35,668;   39,665;   59,207;-20,45322
 286,98;   47,935;   35,168;   73,535;33,27702
 287,58;   22,517;    4,771;   61,403;31,33497
 288,17;   30,023;    8,973;   80,336;29,49680
 288,77;   47,304;   19,976;   92,504;37,67928
 289,37;   18,510;   11,269;   57,670;15,60619
 289,97;   54,881;   48,965;   66,647;33,46173
 290,57;   54,033;   46,672;   93,260;15,80164
 291,16;   73,563;   63,868;  102,616;25,02135
 291,76;   33,500;    5,570;   47,346;66,85574
 292,36;   41,104;   34,367;   58,137;28,34351
 292,96;   18,050;   -3,127;   60,117;33,48568
 293,55;   32,960;   24,267;   65,399;21,13458
 294,15;   33,841;   26,870;   62,567;19,52921
 294,75;   57,268;   42,065;   66,207;62,97275
 295,35;   14,363;   21,068;   52,016;-21,66445
 295,94;   41,774;   42,967;   66,740;-5,01751
 296,54;   35,594;   30,768;   70,613;12,11034
 297,14;   52,275;   29,971;   76,881;47,54559
 297,73;   18,526;   12,165;   40,085;22,78286
 298,33;   43,257;   28,066;   57,583;51,46552
 298,93;   46,207;   41,968;   82,554;10,44545
 299,53;   34,106;   24,872;   69,079;20,88754
 300,12;   22,675;  -12,229;   59,481;48,67332
 300,72;   66,291;   41,567;   91,197;49,81582
 301,32;   52,844;   25,771;   99,584;36,67849
 301,92;   18,951;    3,664;   33,050;52,02101
 302,51;   35,218;   11,567;   49,978;61,57474
 303,11;   32,846;   14,667;   48,759;53,32413
 303,71;   38,766;   21,369;   82,132;28,63127
 304,30;   20,871;    5,466;   38,423;46,74203
 304,90;   21,757;   19,666;   44,283; 8,49453
 305,50;   38,812;   18,565;   64,345;44,22721
 306,09;   42,743;   15,466;   49,042;81,23896
 306,69;   52,503;   34,171;   90,262;32,68174
 307,29;   19,325;   18,760;   33,144; 3,92513
 307,88;   57,783;   43,269;   72,489;49,67013
 308,48;   24,427;    0,070;   49,727;49,05140
 309,08;   -1,938;   -4,437;   11,774;15,41414
 309,68;   30,126;   22,365;   39,585;45,06921
 310,27;   21,897;   20,169;   49,830; 5,82407
 310,87;   36,294;   23,468;   54,813;40,91696
 311,47;   61,832;   54,967;   92,918;18,08956
 312,06;   57,440;   47,865;   68,426;46,56909
 312,66;   70,463;   51,168;  100,016;39,50064
 313,26;   60,058;   48,571;   96,224;24,10625
 313,85;   50,846;   38,267;   65,959;45,42559
 314,45;   50,824;   42,969;   86,611;17,99982
 315,04;   53,340;   52,165;   81,826; 3,96151
 315,64;   33,891;   21,267;   47,897;47,40360
 316,24;   57,927;   40,770;   85,627;38,24924
 316,83;   60,843;   40,366;   76,742;56,29231
 317,43;   36,677;   35,167;   68,156; 4,57510
 318,03;   52,406;   39,063;   70,012;43,11297
 318,62;   81,314;   73,061;   94,820;37,92890
 319,22;   34,580;    7,668;   66,973;45,37852
 319,82;   54,863;   40,768;   93,516;26,72191
 320,41;   78,066;   59,069;   98,732;47,89631
 321,01;   96,412;   80,465;  115,945;44,94708
 321,60;   81,765;   81,164;  102,790; 2,77854
 322,20;   91,795;   67,673;  132,855;37,00706
 322,80;   65,291;   54,567;   91,797;28,80324
 323,39;   66,109;   65,764;   94,828; 1,18688
 323,99;   77,315;   61,766;  102,661;38,02201
 324,59;   72,706;   73,063;   97,512;-1,46078
 325,18;   62,918;   40,967;   92,178;42,86462
 325,78;   89,926;   76,365;  108,885;41,70027
 326,37;   71,749;   74,868;  108,075;-9,39160
 326,97;   89,591;   63,267;  111,497;54,57937
 327,57;   45,334;   42,263;   76,493; 8,97122
 328,16;   81,278;   60,864;   93,631;62,30257
 328,76;   94,174;   50,467;  110,140;73,24426
 329,35;   86,644;   56,871;  137,484;36,93385
 329,95;   58,155;   27,470;   91,308;48,06744
 330,54;   69,832;   52,167;   94,018;42,20952
 331,14;   42,660;   26,967;   82,599;28,20866
 331,74;   81,212;   54,165;   96,145;64,42900
 332,33;   65,527;   35,370;  108,127;41,44956
 332,93;   55,051;   43,764;   79,250;31,80665
 333,52;   43,829;   42,466;   93,102; 2,69202
 334,12;   93,352;   72,069;  140,392;31,15117
 334,71;   57,643;   50,666;   87,942;18,71723
 335,31;   88,246;   63,267;  119,859;44,13920
 335,90;   32,617;   32,362;   53,836; 1,18638
 336,50;   42,268;   30,665;   77,207;24,93006
 337,10;   74,197;   38,769;  121,530;42,80727
 337,69;   74,268;   51,765;   93,707;53,65242
 338,29;   53,104;   30,467;  101,037;32,07773
 338,88;   49,607;   22,468;   99,854;35,07033
 339,48;   91,431;   57,862;  111,677;62,37875
 340,07;   63,001;   48,566;  107,321;24,56860
 340,67;   57,844;   31,171;  124,784;28,49338
 341,26;   73,043;   48,466;   98,942;48,69030
 341,86;   93,669;   61,469;  138,348;41,88329
 342,45;   71,283;   45,669;  142,689;26,40026
 343,05;   60,883;   27,269;  115,689;38,01581
 343,64;   65,788;   47,366;  122,480;24,52433
 344,24;   48,468;   28,765;   92,107;31,10565
 344,83;   70,281;   71,365;  121,747;-2,14959
 345,43;   51,474;   29,667;  114,240;25,78498
 346,02;   58,538;   41,469;  124,351;20,59476
 346,62;   73,558;   40,971;  140,424;32,76651
 347,21;   69,926;   42,165;  131,985;30,90732
 347,81;   55,333;   26,172;  140,560;25,49364
 348,40;   46,478;   29,064;  100,731;24,29962
 349,00;   73,606;   49,163;  137,712;27,60389
 349,59;   97,200;   65,870;  177,846;27,97884
 350,19;   60,058;   32,571;  139,424;25,72444
 350,78;   67,946;   55,467;  140,759;14,63117
 351,38;   49,138;   15,869;  140,951;26,59802
 351,97;   61,974;   26,767;  136,040;32,21941
 352,57;   69,027;   42,570;  155,827;23,36057
 353,16;   56,309;   30,564;  134,328;24,81104
 353,76;   75,000;   38,770;  169,846;27,64013
 354,35;   57,569;   27,669;  160,148;22,56920
 354,95;   76,741;   43,970;  182,067;23,73065
 355,54;   71,780;   38,368;  163,973;26,60052
 356,14;   67,169;   40,069;  164,749;21,73538
 356,73;   57,331;   29,162;  145,176;24,28039
 357,32;   53,166;   13,769;  164,432;26,14924
 357,92;   62,220;   17,772;  181,419;27,16064
 358,51;   93,606;   43,372;  214,179;29,40966
 359,11;   76,033;   36,772;  212,360;22,36011
 359,70;   63,172;   28,470;  189,965;21,48776
 360,30;   81,886;   54,562;  188,039;20,47147
 360,89;   49,207;   31,168;  188,054;11,49841
 361,48;  101,341;   55,570;  216,467;28,44756
 362,08;   59,677;   19,867;  187,156;23,79675
 362,67;   63,334;   39,763;  192,693;15,41284
 363,27;   89,718;   60,767;  247,678;15,48934
 363,86;   84,312;   35,765;  215,745;26,97364
 364,46;  104,578;   44,664;  257,231;28,18631
 365,05;  100,377;   64,659;  254,989;18,76653
 365,64;   99,780;   50,960;  269,706;22,31836
 366,24;  111,060;   38,558;  309,432;26,76605
 366,83;  119,451;   43,255;  335,383;26,08312
 367,43;  142,832;   51,545;  352,843;30,29793
 368,02;  152,366;   34,646;  399,757;32,24210
 368,61;  203,541;   62,239;  475,425;34,19825
 369,21;  162,350;   32,419;  445,299;31,46937
 369,80;  198,066;   43,007;  526,947;32,04098
 370,39;  247,577;   62,006;  604,971;34,17734
 370,99;  249,036;   42,089;  615,416;36,09588
 371,58;  227,388;   22,974;  630,953;33,62188
 372,18;  278,291;   37,166;  701,603;36,29019
 372,77;  264,595;   42,449;  679,385;34,87726
 373,36;  286,286;   42,747;  690,836;37,57807
 373,96;  268,036;   35,135;  639,498;38,53653
 374,55;  249,649;   29,844;  621,406;37,15679
 375,14;  233,809;   42,849;  573,826;35,96388
 375,74;  262,206;   69,157;  543,276;40,71730
 376,33;  190,357;   45,964;  464,589;34,49230
 376,92;  169,858;   33,278;  447,997;32,93323
 377,52;  248,112;   86,103;  548,460;35,03983
 378,11;  204,095;   46,703;  457,203;38,34171
 378,71;  229,695;   73,011;  514,270;35,50837
 379,30;  229,099;   59,517;  553,928;34,29986
 379,89;  223,101;   59,813;  556,103;32,90174
 380,49;  237,216;   31,018;  568,185;38,38626
 381,08;  282,449;   70,306;  570,990;42,37065
 381,67;  262,541;   55,008;  555,483;41,46731
 382,26;  238,649;   41,706;  539,390;39,57192
 382,86;  241,240;   54,003;  516,041;40,52416
 383,45;  254,270;   50,412;  562,105;39,83989
 384,04;  241,998;   38,712;  553,886;39,45964
 384,64;  261,018;   49,014;  566,760;40,94751
 385,23;  274,521;   64,406;  560,509;42,35314
 385,82;  296,852;   59,615;  592,774;44,49640
 386,42;  319,379;   61,024;  659,022;43,20335
 387,01;  305,946;   55,414;  580,541;47,70883
 387,60;  319,558;   69,009;  590,140;48,07804
 388,20;  316,470;   37,712;  590,805;50,39983
 388,79;  366,875;   72,418;  665,563;49,64323
 389,38;  318,549;   32,106;  564,890;53,76344
 389,97;  340,979;   45,415;  640,955;49,62966
 390,57;  362,776;   71,114;  654,038;50,03433
 391,16;  385,576;   62,514;  655,838;54,44953
 391,75;  375,687;   52,713;  638,562;55,12921
 392,34;  408,411;   60,821;  696,694;54,66353
 392,94;  403,947;   44,718;  689,683;55,69744
 393,53;  404,096;   41,016;  666,612;58,03753
 394,12;  445,176;   53,023;  719,105;58,87456
 394,72;  455,273;   54,213;  706,122;61,52090
 395,31;  446,352;   42,115;  694,874;61,92741
 395,90;  482,965;   42,924;  732,881;63,77804
 396,49;  521,491;   58,028;  779,187;64,26640
 397,09;  501,185;   47,417;  749,188;64,66051
 397,68;  540,510;   44,025;  800,719;65,61236
 398,27;  569,016;   54,626;  809,652;68,12873
 398,86;  556,154;   43,125;  807,657;67,10369
 399,45;  620,600;   56,630;  844,037;71,62373
 400,05;  573,722;   23,820;  799,518;70,89130
 400,64;  629,419;   56,419;  831,001;73,97538
 401,23;  642,567;   53,920;  859,956;73,02985
 401,82;  668,667;   67,220;  868,256;75,08363
 402,42;  677,498;   62,921;  873,953;75,77708
 403,01;  724,810;   81,525;  912,919;77,37423
 403,60;  738,389;   68,532;  940,513;76,82023
 404,19;  741,337;   76,024;  931,900;77,73477
 404,78;  741,787;   57,522;  909,929;80,27440
 405,38;  772,520;   68,332;  984,210;76,88666
 405,97;  779,043;   63,226;  953,933;80,36509
 406,56;  809,150;   71,528; 1004,366;79,07286
 407,15;  815,739;   68,829;  989,442;81,13180
 407,74;  853,842;   80,730; 1026,758;81,72184
 408,34;  835,392;   50,933; 1018,629;81,06465
 408,93;  873,831;   59,531; 1016,234;85,11521
 409,52;  881,429;   51,435; 1041,359;83,84420
 410,11;  919,503;   84,931; 1090,453;82,99889
 410,70;  902,574;   54,727; 1027,230;87,18193
 411,29;  933,877;   58,628; 1030,847;90,02595
 411,89;  944,888;   60,535; 1093,938;85,57675
 412,48;  967,563;   48,228; 1051,606;91,62400
 413,07;  976,295;   65,033; 1101,446;87,92467
 413,66;  995,915;   78,135; 1102,119;89,62839
 414,25; 1016,407;   63,337; 1142,311;88,33117
 414,84; 1019,731;   69,431; 1102,434;91,99389
 415,44; 1050,169;   91,530; 1155,939;90,06305
 416,03; 1062,463;   76,637; 1161,173;90,89839
 416,62; 1078,697;   76,138; 1168,687;91,76325
 417,21; 1092,026;   75,334; 1158,843;93,83329
 417,80; 1105,394;   65,037; 1162,871;94,76450
 418,39; 1102,430;   78,440; 1179,201;93,02568
 418,98; 1090,582;   55,634; 1143,405;95,14388
 419,58; 1088,137;   64,033; 1142,067;94,99737
 420,17; 1099,657;   52,735; 1164,540;94,16413
 420,76; 1145,763;   72,537; 1192,873;95,79499
 421,35; 1123,174;   60,236; 1155,197;97,07537
 421,94; 1160,730;   88,340; 1223,501;94,47033
 422,53; 1132,103;   61,540; 1195,320;94,42421
 423,12; 1143,155;   64,039; 1190,766;95,77444
 423,71; 1129,988;   60,835; 1162,138;97,08070
 424,30; 1184,104;   85,236; 1210,695;97,63738
 424,90; 1127,038;   39,438; 1163,809;96,72969
 425,49; 1165,744;   70,140; 1216,242;95,59399
 426,08; 1165,044;   80,240; 1209,641;96,05126
 426,67; 1142,660;   57,436; 1168,257;97,69568
 427,26; 1168,353;   60,343; 1230,391;94,69787
 427,85; 1177,424;   63,238; 1209,968;97,16204
 428,44; 1176,123;   68,442; 1218,093;96,34927
 429,03; 1229,878;   85,341; 1233,155;99,71447
 429,62; 1192,392;   78,941; 1240,296;95,87517
 430,21; 1213,156;   81,443; 1277,807;94,59605
 430,80; 1202,076;   70,445; 1235,381;97,14110
 431,39; 1200,529;   53,344; 1246,926;96,11275
 431,99; 1195,988;   78,535; 1206,838;99,03836
 432,58; 1214,655;   82,639; 1251,166;96,87551
 433,17; 1218,415;   69,735; 1238,319;98,29678
 433,76; 1248,982;   71,347; 1288,314;96,76810
 434,35; 1241,404;   88,245; 1292,462;95,76010
 434,94; 1256,502;   70,849; 1318,887;95,00138
 435,53; 1238,612;   78,643; 1278,669;96,66195
 436,12; 1242,143;   70,044; 1294,267;95,74227
 436,71; 1243,575;   87,740; 1303,239;95,09140
 437,30; 1258,120;   76,941; 1299,177;96,64080
 437,89; 1268,718;   76,245; 1320,802;95,81504
 438,48; 1249,567;   65,942; 1305,731;95,46987
 439,07; 1263,483;   95,238; 1347,147;93,31710
 439,66; 1296,413;   83,648; 1375,711;93,86270
 440,25; 1315,743;   85,844; 1390,567;94,26513
 440,84; 1305,033;   79,850; 1387,984;93,65881
 441,43; 1303,220;   78,054; 1440,985;89,89200
 442,02; 1288,378;   79,650; 1411,022;90,78810
 442,61; 1319,529;   93,344; 1397,226;94,04106
 443,20; 1310,247;   94,249; 1446,625;89,91568
 443,79; 1282,166;   74,546; 1412,957;90,22788
 444,38; 1344,372;   84,248; 1461,789;91,47627
 444,97; 1324,435;   84,146; 1466,359;89,73210
 445,56; 1377,693;  101,846; 1477,038;92,77596
 446,15; 1355,481;   81,651; 1522,539;88,40589
 446,74; 1341,015;   58,644; 1462,286;91,36027
 447,33; 1406,566;   82,646; 1538,357;90,94662
 447,92; 1411,408;   78,151; 1570,720;89,32636
 448,51; 1451,821;   89,746; 1586,019;91,03120
 449,10; 1491,262;   92,045; 1608,840;92,24828
 449,69; 1499,150;   73,950; 1627,741;91,72402
 450,28; 1514,927;   66,948; 1608,251;93,94510
 450,87; 1534,955;   78,647; 1656,333;92,30659
 451,46; 1580,544;   96,048; 1702,208;92,42512
 452,05; 1614,333;   70,950; 1715,384;93,85495
 452,64; 1652,564;   70,850; 1725,182;95,61042
 453,23; 1733,711;  113,752; 1794,936;96,35824
 453,82; 1766,222;   83,451; 1800,660;97,99453
 454,40; 1750,864;   65,450; 1786,682;97,91904
 454,99; 1841,759;  101,253; 1871,891;98,29826
 455,58; 1827,810;   69,747; 1832,095;99,75688
 456,17; 1899,042;   63,852; 1873,634;101,40395
 456,76; 1943,308;   67,751; 1918,820;101,32294
 457,35; 1964,472;   78,348; 1930,490;101,83474
 457,94; 2041,004;   66,954; 1978,929;103,24664
 458,53; 2065,036;   67,350; 2010,101;102,82771
 459,12; 2139,657;   82,657; 2111,116;101,40704
 459,71; 2141,599;   58,148; 2060,071;104,07253
 460,30; 2195,713;   84,448; 2087,511;105,40183
 460,89; 2243,208;   57,551; 2129,920;105,46662
 461,48; 2295,604;   75,954; 2173,829;105,80468
 462,06; 2333,205;   68,050; 2187,303;106,88459
 462,65; 2312,216;   48,249; 2176,527;106,37551
 463,24; 2434,282;   87,456; 2288,680;106,61457
 463,83; 2416,305;   54,450; 2229,803;108,57341
 464,42; 2486,502;   88,349; 2333,687;106,80589
 465,01; 2510,164;   73,050; 2336,482;107,67339
 465,60; 2532,678;   64,050; 2384,322;106,39388
 466,19; 2605,504;   73,354; 2462,829;105,97098
 466,77; 2610,081;   81,551; 2462,939;106,17883
 467,36; 2628,971;   69,457; 2459,256;107,10164
 467,95; 2679,267;   79,551; 2466,098;108,93209
 468,54; 2725,748;   71,954; 2513,866;108,67688
 469,13; 2711,225;   69,452; 2535,977;107,10508
 469,72; 2753,165;   67,555; 2582,723;106,77655
 470,31; 2783,037;   87,855; 2629,242;106,05161
 470,90; 2804,719;   76,750; 2652,044;105,92846
 471,48; 2789,743;   32,057; 2671,875;104,46501
 472,07; 2873,196;  125,747; 2686,454;107,29260
 472,66; 2844,301;   67,853; 2748,412;103,57718
 473,25; 2860,081;   68,351; 2723,339;105,15037
 473,84; 2877,607;   55,955; 2766,545;104,09733
 474,43; 2904,863;   55,459; 2843,049;102,21749
 475,01; 2896,834;   69,254; 2885,926;100,38727
 475,60; 2899,679;   49,755; 2882,364;100,61127
 476,19; 2946,860;   74,158; 2956,932;99,65061
 476,78; 2908,771;   71,057; 2964,456;98,07545
 477,37; 2945,179;   59,355; 2945,364;99,99359
 477,95; 2930,710;   75,656; 3018,661;97,01150
 478,54; 2916,859;   63,253; 3023,691;96,39136
 479,13; 2920,759;   56,253; 3070,291;95,03883
 479,72; 2938,776;   81,154; 3090,147;94,96936
 480,31; 2926,236;   63,459; 3167,468;92,22837
 480,89; 2877,234;   60,254; 3171,026;90,55566
 481,48; 2926,939;   46,260; 3214,084;90,93556
 482,07; 2910,048;   61,654; 3233,866;89,79203
 482,66; 2921,145;   52,853; 3253,650;89,61181
 483,25; 2960,939;   78,960; 3319,884;88,92460
 483,83; 2944,220;   59,954; 3325,385;88,32727
 484,42; 2968,804;   54,354; 3355,129;88,29593
 485,01; 2961,888;   65,958; 3400,413;86,84867
 485,60; 3019,665;   73,764; 3490,590;86,21745
 486,18; 3044,310;   66,956; 3490,761;86,96036
 486,77; 3058,211;   67,252; 3519,736;86,63209
 487,36; 3093,151;   58,464; 3561,750;86,62401
 487,95; 3143,369;   59,161; 3640,781;86,11209
 488,53; 3158,583;   54,461; 3642,522;86,51252
 489,12; 3194,120;   50,563; 3722,252;85,61609
 489,71; 3171,759;   38,062; 3680,357;86,03631
 490,30; 3242,211;   61,460; 3742,503;86,40895
 490,88; 3322,456;   87,561; 3859,141;85,77027
 491,47; 3276,106;   60,663; 3867,512;84,46469
 492,06; 3315,275;   62,563; 3920,615;84,30972
 492,65; 3322,328;   59,161; 3947,060;83,93137
 493,23; 3329,353;   54,860; 3982,825;83,36359
 493,82; 3402,073;   65,853; 4018,031;84,41471
 494,41; 3401,000;   51,361; 4066,179;83,43191
 494,99; 3424,207;   73,655; 4126,945;82,66252
 495,58; 3469,511;   86,060; 4224,403;81,75858
 496,17; 3440,382;   56,356; 4198,681;81,69388
 496,76; 3492,810;   65,356; 4276,761;81,38504
 497,34; 3458,930;   54,557; 4305,235;80,09011
 497,93; 3482,543;   66,057; 4350,675;79,73841
 498,52; 3496,008;   60,059; 4454,387;78,19054
 499,10; 3493,045;   75,862; 4533,217;76,66391
 499,69; 3459,280;   55,360; 4537,006;75,95246
 500,28; 3466,736;   37,959; 4592,068;75,28974
 500,86; 3458,386;   62,862; 4698,539;73,24765
 501,45; 3433,086;   53,462; 4730,438;72,26088
 502,04; 3463,859;   53,362; 4813,958;71,64013
 502,62; 3442,682;   70,956; 4856,181;70,46118
 503,21; 3388,154;   57,856; 4939,699;68,21805
 503,80; 3385,031;   69,662; 5015,577;67,03247
 504,38; 3381,452;   58,460; 5081,425;66,15600
 504,97; 3343,031;   49,962; 5122,776;64,91601
 505,56; 3338,577;   70,859; 5194,989;63,77118
 506,14; 3313,037;   64,064; 5263,709;62,48451
 506,73; 3266,668;   23,565; 5292,507;61,55131
 507,32; 3261,312;   62,865; 5376,045;60,19836
 507,90; 3204,839;   70,860; 5443,284;58,33453
 508,49; 3203,054;   58,865; 5500,366;57,78164
 509,08; 3177,578;   67,264; 5571,931;56,50323
 509,66; 3166,225;   69,960; 5677,644;55,21468
 510,25; 3155,942;   63,561; 5737,400;54,50244
 510,83; 3144,368;   45,165; 5855,607;53,33850
 511,42; 3111,894;   61,968; 5895,913;52,27895
 512,01; 3129,109;   59,164; 5980,328;51,84698
 512,59; 3105,731;   46,562; 6041,676;51,02770
 513,18; 3098,700;   59,961; 6114,379;50,19044
 513,77; 3138,785;   42,257; 6171,797;50,51812
 514,35; 3160,289;   37,763; 6190,255;50,75223
 514,94; 3168,945;   58,662; 6323,517;49,64652
 515,52; 3157,643;   48,166; 6358,342;49,27718
 516,11; 3240,781;   80,665; 6474,047;49,42793
 516,69; 3179,822;   41,959; 6446,727;48,99260
 517,28; 3256,574;   83,358; 6541,973;49,13153
 517,87; 3260,102;   45,558; 6604,054;49,01344
 518,45; 3334,346;   74,858; 6626,192;49,75305
 519,04; 3310,305;   54,258; 6707,970;48,93579
 519,62; 3374,975;   55,863; 6774,114;49,40441
 520,21; 3397,729;   24,466; 6828,002;49,58103
 520,79; 3438,949;   52,068; 7000,875;48,74047
 521,38; 3487,297;   52,960; 6995,363;49,46899
 521,97; 3551,208;   43,068; 7141,554;49,42096
 522,55; 3553,691;   67,759; 7195,230;48,90840
 523,14; 3612,177;   26,759; 7180,289;50,12097
 523,72; 3676,783;   77,561; 7383,422;49,26486
 524,31; 3703,368;   71,665; 7406,107;49,51574
 524,89; 3741,263;   48,468; 7526,815;49,37983
 525,48; 3754,588;   21,666; 7603,580;49,23455
 526,06; 3750,409;   56,264; 7633,128;48,75559
 526,65; 3843,786;   72,370; 7803,105;48,78470
 527,23; 3791,503;   46,262; 7840,596;48,05082
 527,82; 3818,518;   37,967; 7905,978;48,04965
 528,41; 3852,101;   67,366; 8041,021;47,46550
 528,99; 3891,554;   66,365; 8108,167;47,56632
 529,58; 3847,317;   42,562; 8168,736;46,82099
 530,16; 3863,900;   49,461; 8315,379;46,14659
 530,75; 3961,723;   73,964; 8417,069;46,59847
 531,33; 3896,288;   45,566; 8440,980;45,86696
 531,92; 3928,525;   48,560; 8567,344;45,54599
 532,50; 3996,141;   87,770; 8706,468;45,34758
 533,09; 4007,998;   65,665; 8807,204;45,09884
 533,67; 4009,119;   63,458; 8952,011;44,39036
 534,26; 4037,066;   65,760; 9007,665;44,41231
 534,84; 4037,728;   68,461; 9127,061;43,81766
 535,42; 4070,123;   61,564; 9205,969;43,83619
 536,01; 4146,976;   79,263; 9330,215;43,97075
 536,59; 4140,129;   43,366; 9482,202;43,40326
 537,18; 4224,880;   77,360; 9568,605;43,69838
 537,76; 4315,547;   56,972; 9764,700;43,86789
 538,35; 4390,721;   59,368; 9892,694;44,04769
 538,93; 4458,909;   72,664; 9941,828;44,44394
 539,52; 4535,086;   57,370;10111,405;44,53650
 540,10; 4669,697;   63,269;10309,029;44,95935
 540,69; 4762,792;   68,763;10444,071;45,24231
 541,27; 4891,245;   58,262;10514,917;46,21920
 541,85; 5029,257;   47,366;10658,783;46,94840
 542,44; 5182,839;   56,460;10765,484;47,86971
 543,02; 5364,297;   80,369;10952,729;48,59964
 543,61; 5516,132;   77,067;11102,218;49,33325
 544,19; 5639,971;   55,066;11264,023;49,82537
 544,78; 5742,815;   62,766;11296,562;50,56216
 545,36; 5954,424;   77,469;11521,011;51,35609
 545,94; 6029,923;   54,564;11563,069;51,92124
 546,53; 6175,575;   52,771;11724,882;52,45670
 547,11; 6383,380;   90,668;11879,873;53,37690
 547,70; 6460,080;   75,860;11954,706;53,74445
 548,28; 6568,054;   47,965;12093,066;54,13063
 548,86; 6719,854;   81,365;12327,767;54,20767
 549,45; 6761,408;   33,768;12364,953;54,55793
 550,03; 6926,104;   76,467;12507,537;55,10095
 550,62; 7026,443;   63,566;12662,842;55,26410
 551,20; 7131,832;   61,467;12808,418;55,46711
 551,78; 7204,651;   61,164;12952,850;55,41158
 552,37; 7310,523;   55,864;13112,469;55,56313
 552,95; 7375,981;   56,765;13214,547;55,62652
 553,54; 7521,268;   49,965;13393,207;55,99316
 554,12; 7567,690;   67,167;13498,797;55,84224
 554,70; 7711,280;   67,568;13736,973;55,91839
 555,29; 7747,326;   61,965;13856,285;55,71395
 555,87; 7815,713;   60,170;13987,786;55,68464
 556,45; 7828,958;   57,162;14154,058;55,13126
 557,04; 7919,760;   43,667;14376,600;54,95102
 557,62; 8003,060;   68,867;14525,499;54,88272
 558,20; 8132,461;   42,671;14799,940;54,81901
 558,79; 8188,949;  100,368;14905,875;54,63225
 559,37; 8246,532;   49,867;15000,418;54,82517
 559,95; 8339,152;   46,669;15169,691;54,83351
 560,54; 8439,193;   71,768;15324,613;54,85813
 561,12; 8500,915;   50,866;15485,562;54,74711
 561,70; 8587,938;   50,369;15679,551;54,62583
 562,29; 8613,722;   61,768;15810,994;54,30079
 562,87; 8739,808;   73,168;16023,953;54,33362
 563,45; 8868,808;   71,068;16194,754;54,56407
 564,04; 8859,604;   54,362;16227,195;54,44464
 564,62; 8970,866;   37,769;16438,332;54,46824
 565,20; 9015,086;   59,962;16715,838;53,76556
 565,78; 9132,140;   70,765;16797,326;54,17357
 566,37; 9191,057;   71,066;17011,283;53,83633
 566,95; 9309,497;   52,969;17124,330;54,22255
 567,53; 9324,459;   67,262;17308,857;53,69107
 568,12; 9380,554;   62,265;17367,766;53,84582
 568,70; 9534,195;   85,264;17565,889;54,05374
 569,28; 9600,438;   61,069;17745,252;53,94295
 569,86; 9643,046;   67,767;17910,758;53,66409
 570,45; 9776,383;   78,569;18124,689;53,73905
 571,03; 9840,272;   53,962;18259,898;53,75340
 571,61; 9945,958;   46,571;18424,824;53,86468
 572,19; 9959,562;   54,263;18395,773;54,00481
 572,78;10032,349;   70,668;18668,975;53,56230
 573,36;10175,623;   84,264;18797,668;53,92583
 573,94;10196,251;   44,064;18892,750;53,86151
 574,52;10266,436;   54,559;19030,768;53,81410
 575,11;10260,479;   37,264;19159,830;53,46152
 575,69;10318,787;   53,566;19268,680;53,42264
 576,27;10412,270;   47,161;19391,381;53,58246
 576,85;10526,823;   43,264;19549,668;53,74419
 577,44;10535,259;   30,262;19814,158;53,09873
 578,02;10537,408;   32,159;19753,887;53,26739
 578,60;10681,364;   50,464;20073,791;53,09258
 579,18;10782,720;   51,963;20160,752;53,36352
 579,76;10787,109;   40,264;20300,129;53,04500
 580,35;10833,555;   60,170;20436,707;52,87152
 580,93;10996,577;   59,667;20641,557;53,13851
 581,51;10944,341;   24,770;20697,168;52,82198
 582,09;11020,989;   58,663;20755,756;52,96554
 582,67;11086,132;   49,567;20971,318;52,75163
 583,26;11138,794;   28,568;21227,014;52,41057
 583,84;11237,637;   14,164;21413,709;52,44725
 584,42;11377,396;   48,064;21513,287;52,77994
 585,00;11462,987;   81,366;21772,180;52,47208
 585,58;11548,160;   25,167;21912,299;52,64734
 586,17;11598,283;   46,761;21948,521;52,74244
 586,75;11527,929;    6,666;22026,902;52,32125
 587,33;11677,219;   47,767;22191,678;52,51761
 587,91;11748,529;   74,866;22390,201;52,31229
 588,49;11753,559;   63,962;22349,758;52,45313
 589,07;11705,963;   45,468;22403,215;52,15416
 589,65;11741,674;   28,267;22444,439;52,25427
 590,24;11719,772;   42,562;22447,799;52,11822
 590,82;11799,828;   28,261;22484,160;52,42082
 591,40;11789,637;   41,464;22520,209;52,26347
 591,98;11752,222;   45,759;22558,227;51,99991
 592,56;11842,828;   61,161;22699,961;52,04192
 593,14;11791,821;   43,359;22728,928;51,78826
 593,72;11888,367;   29,765;22889,107;51,87639
 594,30;11872,608;   36,759;22797,486;52,00119
 594,89;11850,009;   41,364;22862,428;51,74450
 595,47;11957,783;   38,961;22922,623;52,08442
 596,05;11884,359;   30,267;23003,799;51,59891
 596,63;11996,660;   31,167;23056,199;51,96732
 597,21;11928,143;   36,766;23145,441;51,45850
 597,79;11957,273;   35,467;23166,039;51,54134
 598,37;12002,169;   36,669;23222,748;51,60640
 598,95;11949,629;   50,766;23305,301;51,16792
 599,53;11936,785;   46,757;23207,996;51,33589
 600,11;12028,981;   48,665;23341,947;51,43250
 600,70;11904,406;   57,363;23315,111;50,93805
 601,28;12023,537;   38,564;23424,809;51,24796
 601,86;11940,529;   61,766;23355,102;50,99640
 602,44;11956,228;   23,661;23449,660;50,93728
 603,02;11955,396;   38,656;23576,521;50,62795
 603,60;12061,960;   54,858;23663,232;50,85950
 604,18;12037,947;   69,263;23594,734;50,87543
 604,76;11938,289;   59,263;23642,154;50,37137
 605,34;11948,185;   27,565;23530,764;50,71914
 605,92;11924,714;   59,561;23453,719;50,71844
 606,50;11855,072;   17,662;23498,998;50,41200
 607,08;11878,088;   31,666;23394,881;50,70544
 607,66;11888,643;   39,266;23561,643;50,37491
 608,24;11864,646;   46,067;23522,059;50,34326
 608,82;11903,078;   26,164;23532,031;50,52745
 609,40;11819,802;   46,466;23471,021;50,26066
 609,98;11787,209;   18,864;23505,928;50,10565
 610,56;11721,597;   43,861;23497,662;49,79038
 611,14;11720,426;   30,765;23481,086;49,84862
 611,72;11704,954;   42,665;23572,467;49,56391
 612,30;11645,604;   24,962;23468,496;49,56864
 612,88;11610,391;   60,659;23517,730;49,23774
 613,46;11552,673;   21,862;23505,697;49,10106
 614,04;11466,180;   30,068;23461,873;48,80593
 614,62;11419,169;   41,561;23489,982;48,52185
 615,20;11244,963;   52,768;23402,416;47,93304
 615,78;11141,396;   25,569;23463,430;47,42680
 616,36;11063,751;   41,364;23400,150;47,18733
 616,94;10892,443;    7,666;23272,242;46,78691
 617,52;10696,577;   24,067;23373,656;45,70748
 618,10;10633,050;   63,559;23336,107;45,41613
 618,68;10440,957;   17,966;23253,184;44,85859
 619,26;10262,436;   39,268;23398,834;43,76437
 619,84;10047,647;   18,963;23277,133;43,11898
 620,42; 9864,067;   31,165;23313,506;42,23331
 621,00; 9692,968;   28,865;23209,607;41,69022
 621,58; 9598,480;   38,760;23216,406;41,24543
 622,16; 9488,271;   49,270;23335,164;40,53528
 622,74; 9416,443;   47,066;23327,742;40,24530
 623,32; 9381,771;   42,166;23291,223;40,17197
 623,90; 9303,544;   66,971;23311,484;39,73657
 624,48; 9266,372;   32,662;23196,598;39,86244
 625,05; 9208,173;   34,562;23105,098;39,76332
 625,63; 9179,872;   52,962;23188,799;39,44923
 626,21; 9233,503;   38,262;23117,596;39,84188
 626,79; 9260,032;   53,967;23219,719;39,73998
 627,37; 9186,745;   28,162;23090,717;39,71192
 627,95; 9264,663;   72,768;23200,215;39,74453
 628,53; 9248,768;   49,365;23176,607;39,77734
 629,11; 9186,963;   48,259;23043,449;39,74181
 629,69; 9229,166;   53,369;23256,932;39,54478
 630,27; 9235,048;   80,763;23105,434;39,75859
 630,84; 9175,973;   43,862;23021,197;39,74399
 631,42; 9218,877;   54,367;23319,656;39,39134
 632,00; 9186,735;   45,459;23125,768;39,60639
 632,58; 9208,992;   50,263;23105,172;39,72572
 633,16; 9251,086;   49,870;23096,906;39,92364
 633,74; 9219,896;   56,264;23018,488;39,90742
 634,32; 9193,355;   45,661;23007,842;39,83809
 634,90; 9294,699;   51,970;23195,746;39,93613
 635,47; 9254,524;   38,860;23035,645;40,07371
 636,05; 9359,556;   37,461;22989,342;40,61582
 636,63; 9365,968;   45,965;23104,807;40,41835
 637,21; 9394,009;   67,464;23150,529;40,40427
 637,79; 9567,799;   71,465;23192,904;41,07155
 638,37; 9459,051;   54,055;23070,883;40,86139
 638,94; 9453,426;   33,265;23100,686;40,83751
 639,52; 9558,626;   41,665;23195,285;41,10355
 640,10; 9613,073;   64,264;23215,900;41,24464
 640,68; 9463,831;   54,164;23175,334;40,69719
 641,26; 9512,089;   35,864;23250,268;40,82045
 641,84; 9459,547;   39,164;23235,002;40,61238
 642,41; 9342,104;   28,264;23192,936;40,20709
 642,99; 9322,463;   48,464;23145,568;40,15221
 643,57; 9242,920;   22,064;23158,402;39,85443
 644,15; 9104,778;   27,064;23178,035;39,21094
 644,73; 9037,136;   37,564;23277,568;38,72448
 645,30; 8925,794;   55,264;23230,303;38,27622
 645,88; 8767,552;   44,964;23362,635;37,40763
 646,46; 8745,610;   59,264;23447,568;37,13970
 647,04; 8613,268;   51,864;23367,902;36,71895
 647,61; 8486,226;   46,564;23396,336;36,14451
 648,19; 8390,884;   61,664;23433,369;35,63805
 648,77; 8318,642;   26,264;23442,002;35,41369
 649,35; 8243,100;   51,064;23590,137;34,80186
 649,92; 8203,058;   42,464;23596,070;34,64690
 650,50; 8138,815;   30,064;23551,104;34,47446
 651,08; 8160,273;   39,964;23450,537;34,68650
 651,66; 8219,231;   21,864;23534,770;34,86327
 652,23; 8339,589;   39,064;23561,004;35,28844
 652,81; 8313,247;   36,464;23644,137;35,05972
 653,39; 8434,805;   56,164;23647,170;35,51625
 653,97; 8571,063;   37,065;23882,504;35,78881
 654,54; 8594,521;   23,565;23823,137;36,01307
 655,12; 8680,578;   30,965;23831,971;36,34138
 655,70; 8749,137;   42,065;23962,805;36,39968
 656,28; 8848,994;   32,765;23947,037;36,86597
 656,85; 8823,552;   44,065;24051,070;36,57052
 657,43; 8847,610;   -1,035;23831,305;37,12873
 658,01; 8877,268;   21,465;24078,539;36,81164
 658,58; 9002,626;   55,165;24234,371;37,00478
 659,16; 8985,584;   51,965;24154,105;37,06567
 659,74; 8963,042;   59,465;24338,039;36,67257
 660,32; 8969,300;   71,665;24327,672;36,68219
 660,89; 8827,758;   34,265;24347,305;36,16781
 661,47; 8796,716;   51,665;24464,939;35,82088
 662,05; 8776,674;   25,365;24587,373;35,62945
 662,62; 8786,031;   59,665;24584,006;35,58247
 663,20; 8772,689;   80,665;24740,139;35,24822
 663,78; 8697,747;   47,965;24902,773;34,80124
 664,35; 8727,805;   52,465;24921,006;34,88480
 664,93; 8761,663;   64,465;25123,539;34,70678
 665,51; 8704,921;   49,565;25170,973;34,45410
 666,08; 8752,379;   30,165;25185,707;34,67313
 666,66; 8875,337;   47,465;25667,539;34,45686
 667,23; 8925,395;   51,765;25732,773;34,55327
 667,81; 9069,752;   65,865;25889,307;34,86711
 668,39; 9155,511;   43,265;26047,141;35,04188
 668,96; 9342,968;   54,665;26309,074;35,37807
 669,54; 9422,727;   38,765;26408,408;35,58623
 670,12; 9664,284;   51,165;26808,740;35,92672
 670,69; 9836,142;   64,165;26950,674;36,34528
 671,27; 9989,200;   25,565;27096,008;36,80632
 671,84;10065,158;   40,665;27105,240;37,03917
 672,42;10185,615;   66,265;27253,875;37,22045
 673,00;10350,773;   57,165;27531,408;37,46639
 673,57;10240,932;   59,965;27276,441;37,40736
 674,15;10407,090;   64,065;27613,475;37,54354
 674,72;10353,848;   58,565;27536,209;37,46785
 675,30;10379,405;   69,466;27513,541;37,56709
 675,88;10272,763;   36,266;27573,176;37,17373
 676,45;10243,921;   59,466;27677,309;36,87636
 677,03;10209,279;   67,866;27525,043;36,93538
 677,60;10118,937;   41,466;27770,576;36,34257
 678,18;10065,995;   59,466;27877,510;35,97136
 678,76; 9974,253;   40,766;27809,143;35,77266
 679,33; 9903,811;   57,666;27813,176;35,47456
 679,91; 9805,469;   44,266;27813,311;35,15138
 680,48; 9737,227;   28,766;27740,242;35,03408
 681,06; 9645,284;   50,866;27735,176;34,65652
 681,63; 9575,143;   37,566;27736,209;34,43337
 682,21; 9571,200;   67,966;27797,543;34,27111
 682,78; 9457,258;   20,566;27459,576;34,39152
 683,36; 9507,516;   46,966;27565,510;34,37882
 683,93; 9477,674;   30,466;27450,645;34,45349
 684,51; 9614,332;   26,166;27477,277;34,92815
 685,08; 9781,790;   38,966;27733,711;35,17932
 685,66; 9789,348;   53,066;27694,045;35,22408
 686,24; 9889,006;   33,766;27796,578;35,49799
 686,81;10052,163;   57,666;27899,910;35,89688
 687,39;10155,821;   38,866;27807,844;36,43258
 687,96;10340,879;   54,166;27850,479;37,00747
 688,54;10547,737;   30,866;27984,811;37,62214
 689,11;10615,395;   26,966;28043,545;37,79344
 689,69;10725,453;   29,666;28019,279;38,21341
 690,26;10874,011;   59,466;28289,313;38,30890
 690,84;10908,769;   50,066;28239,846;38,52000
 691,41;11010,326;   35,966;28403,879;38,68582
 691,98;11107,085;   31,466;28427,912;39,00354
 692,56;11049,343;   32,866;28437,445;38,78416
 693,13;11236,500;   64,866;28655,080;39,07503
 693,71;11250,059;   24,466;28657,912;39,20448
 694,28;11306,517;   41,966;28715,945;39,28492
 694,86;11242,474;   47,266;28928,879;38,76240
 695,43;11221,532;   61,366;29100,912;38,43092
 696,01;11117,189;   36,266;29145,547;38,06663
 696,58;11174,147;   42,167;29083,879;38,33101
 697,16;11174,405;   38,067;29126,414;38,28454
 697,73;11161,663;   63,467;29338,246;37,91044
 698,30;11097,722;   51,867;29223,980;37,86443
 698,88;11145,979;   40,467;29558,613;37,62266
 699,45;11075,337;   35,367;29765,848;37,13351
 700,03;11105,095;   56,067;29750,980;37,20849
 700,60;11231,953;   56,267;29850,613;37,50942
 701,18;11253,111;   61,867;29963,947;37,42631
 701,75;11364,369;   74,367;30094,682;37,60787
 702,32;11471,026;   50,367;29901,914;38,25818
 702,90;11604,785;   52,467;30254,148;38,25058
 703,47;11727,742;   51,367;30428,881;38,43756
 704,05;11900,700;   67,767;30546,715;38,82330
 704,62;11983,358;   39,867;30587,848;39,09748
 705,19;12124,517;   43,667;30586,982;39,55317
 705,77;12237,174;   29,967;30618,314;39,90803
 706,34;12396,832;   61,667;30627,049;40,35665
 706,91;12495,290;   46,367;30673,883;40,64621
 707,49;12677,548;   57,267;30976,316;40,81717
 708,06;12851,706;   66,367;31089,049;41,21287
 708,64;12993,563;   25,767;31093,582;41,74029
 709,21;13029,021;   58,167;31179,316;41,67858
 709,78;13157,479;   41,367;31281,150;41,98529
 710,36;13126,138;   61,667;31419,684;41,66230
 710,93;13251,296;   50,567;31562,416;41,89132
 711,50;13255,753;   44,467;31506,049;41,99180
 712,08;13371,111;   76,567;31925,383;41,74266
 712,65;13395,469;   73,667;31775,916;42,02163
 713,22;13406,127;   69,067;31900,250;41,89935
 713,80;13355,785;   84,167;31966,883;41,62637
 714,37;13339,942;   55,767;31827,018;41,81194
 714,94;13330,400;   53,967;31727,551;41,91642
 715,52;13280,059;   47,867;31732,984;41,76153
 716,09;13324,816;   65,467;31891,918;41,66141
 716,66;13331,574;   73,467;31935,051;41,61158
 717,23;13283,933;   66,867;31908,484;41,50878
 717,81;13246,590;   50,168;31812,018;41,54803
 718,38;13214,748;   47,468;31671,252;41,63727
 718,95;13284,606;   59,068;31618,984;41,90613
 719,53;13330,364;   56,568;31661,418;41,99924
 720,10;13296,422;   59,968;31481,252;42,12576
 720,67;13380,780;   35,768;31355,984;42,60830
 721,24;13452,838;   59,468;31256,020;42,93221
 721,82;13463,296;   49,968;31236,053;43,01062
 722,39;13681,854;   64,068;31235,885;43,68621
 722,96;13606,712;   64,968;31261,420;43,40796
 723,53;13788,069;   88,268;31151,953;44,10231
 724,11;13942,527;   61,568;31207,486;44,56751
 724,68;13966,885;   71,568;31242,020;44,57849
 725,25;14066,144;   72,768;31399,953;44,66847
 725,82;14255,001;   96,068;31564,387;44,99425
 726,40;14310,959;   62,668;31714,820;45,01524
 726,97;14400,017;   62,168;31875,354;45,06889
 727,54;14539,675;   46,968;31801,486;45,63983
 728,11;14546,532;   49,568;32045,820;45,30832
 728,69;14605,990;   39,568;31938,953;45,66365
 729,26;14677,148;   53,568;32105,088;45,62523
 729,83;14704,706;   53,268;32264,621;45,48532
 730,40;14724,664;   66,768;32291,754;45,48612
 730,97;14808,322;   44,268;32590,588;45,36321
 731,55;14923,080;   41,468;32755,820;45,48955
 732,12;14864,238;   86,268;32841,656;45,11615
 732,69;14868,796;   66,968;32889,988;45,09587
 733,26;14813,754;   55,168;32930,520;44,89256
 733,83;14874,712;   41,168;32979,055;45,03490
 734,41;14942,369;   65,468;32991,590;45,18267
 734,98;14945,428;   51,368;33155,621;44,99138
 735,55;15030,285;   43,168;33183,656;45,22298
 736,12;15104,243;   65,968;33377,289;45,14464
 736,69;15187,001;   76,968;33377,922;45,37417
 737,26;15340,359;   57,468;33552,254;45,62767
 737,84;15406,317;   70,768;33487,188;45,89226
 738,41;15422,375;   63,168;33492,422;45,94541
 738,98;15507,833;   63,569;33375,055;46,36318
 739,55;15526,091;   49,669;33377,789;46,43653
 740,12;15786,349;   62,969;33678,023;46,77482
 740,69;15880,106;   70,569;33575,656;47,18548
 741,26;15968,765;   56,269;33557,391;47,49840
 741,83;16080,923;   53,869;33719,523;47,60654
 742,41;16117,880;   56,169;33833,055;47,55237
 742,98;16340,838;   91,469;33874,590;48,09908
 743,55;16345,996;   53,569;33836,824;48,22634
 744,12;16453,854;   50,469;33859,855;48,51725
 744,69;16588,512;   59,569;33848,492;48,91823
 745,26;16541,070;   42,169;33677,723;49,05197
 745,83;16581,127;   58,769;33854,355;48,88910
 746,40;16590,586;   57,969;33844,789;48,93215
 746,97;16607,543;   44,769;33828,125;49,02643
 747,55;16634,902;   62,269;33966,957;48,88006
 748,12;16703,459;   57,869;33910,191;49,17119
 748,69;16543,018;   68,769;33877,625;48,72761
 749,26;16588,176;   65,069;33958,559;48,75009
 749,83;16567,133;   42,569;33911,992;48,78903
 750,40;16591,191;   89,669;34158,824;48,43537
 750,97;16633,949;   96,269;34144,160;48,57182
 751,54;16422,506;   40,569;33980,793;48,26703
 752,11;16374,864;   52,969;33874,727;48,25857
 752,68;16410,523;   87,869;33912,859;48,25620
 753,25;16326,681;   60,269;33774,594;48,24778
 753,82;16195,139;   65,069;33810,527;47,79923
 754,39;16206,097;   75,169;33727,160;47,93454
 754,96;16194,154;   60,069;33616,395;48,08061
 755,53;16331,313;   29,469;33796,527;48,27736
 756,10;16242,970;   64,169;33720,961;48,06994
 756,67;16257,528;   73,369;33813,395;47,96724
 757,24;16326,286;   72,769;33740,426;48,27635
 757,81;16312,344;   16,469;33677,762;48,41132
 758,38;16424,201;   54,569;33822,695;48,47658
 758,95;16475,660;   79,469;33743,426;48,70548
 759,52;16325,317;   57,469;33615,859;48,47625
 760,09;16406,475;   68,570;33306,992;49,15367
 760,66;16415,232;   59,570;33309,727;49,18973
 761,23;16367,892;   91,070;33353,961;48,93388
 761,80;16446,148;   56,270;33295,793;49,30841
 762,37;16574,008;   68,970;33167,727;49,86604
 762,94;16661,365;   70,970;33187,461;50,09708
 763,51;16552,223;   36,070;32949,793;50,18014
 764,08;16586,682;   66,270;32998,527;50,16483
 764,65;16537,639;   69,570;32798,961;50,31584
 765,22;16428,797;   54,670;32804,496;49,99760
 765,79;16437,654;   77,370;32691,928;50,16252
 766,36;16565,613;   73,170;32743,063;50,48209
 766,93;16514,971;   68,970;32551,295;50,63061
 767,50;16488,527;   89,470;32828,328;50,09050
 768,07;16576,486;   63,870;32699,262;50,59727
 768,64;16399,443;   86,470;32572,596;50,21520
 769,21;16261,602;   57,970;32359,729;50,16331
 769,78;16139,859;   78,770;32244,963;49,93158
 770,34;16001,518;   45,570;32031,195;49,88474
 770,91;15999,075;   58,470;31921,430;50,02864
 771,48;15866,233;   62,370;31836,863;49,73758
 772,05;15825,691;   66,470;31610,697;49,95913
 772,62;15680,649;   42,670;31443,029;49,80191
 773,19;15767,007;   59,370;31579,764;49,83325
 773,76;15767,465;   71,070;31506,297;49,93250
 774,33;15700,223;   74,170;31447,330;49,80707
 774,90;15584,980;   52,870;31206,064;49,85720
 775,47;15503,739;   59,970;30957,498;49,98383
 776,03;15446,396;   73,470;30984,330;49,73309
 776,60;15305,055;   55,970;30757,863;49,66822
 777,17;15451,313;   65,470;30698,098;50,22698
 777,74;15376,271;   30,870;30522,031;50,32737
 778,31;15366,328;   68,970;30582,064;50,13375
 778,88;15327,786;   30,470;30366,898;50,42557
 779,45;15270,044;   75,770;30358,131;50,17533
 780,01;15192,002;   58,370;30299,664;50,04294
 780,58;15207,860;   60,570;30177,998;50,29410
 781,15;15255,918;   38,771;29979,432;50,82435
 781,72;15289,376;   66,771;29962,266;50,91940
 782,29;15071,534;   51,771;29667,100;50,71618
 782,86;15035,092;   55,571;29617,732;50,67126
 783,42;15037,750;   56,171;29598,166;50,71282
 783,99;15021,308;   66,671;29482,100;50,83943
 784,56;15014,165;   55,171;29320,232;51,11554
 785,13;14781,023;   40,271;29247,266;50,46994
 785,70;14728,682;   49,071;29060,299;50,59976
 786,26;14698,939;   51,671;28910,732;50,75449
 786,83;14673,397;   84,371;28889,166;50,64791
 787,40;14645,055;   57,171;28783,500;50,78228
 787,97;14493,613;   43,971;28581,133;50,63448
 788,54;14418,371;   70,371;28515,268;50,44139
 789,10;14269,528;   57,971;28344,400;50,24161
 789,67;14292,286;   70,371;28245,334;50,47714
 790,24;14244,044;   51,071;28193,768;50,43217
 790,81;14081,702;   88,271;27914,400;50,28882
 791,37;13996,360;   73,671;27872,135;50,08438
 791,94;13912,118;   70,771;27886,367;49,76110
 792,51;13804,276;   46,271;27539,201;50,04198
 793,08;13788,934;   69,771;27555,234;49,91425
 793,64;13498,191;   71,271;27455,168;49,03218
 794,21;13508,750;   69,671;27250,602;49,44304
 794,78;13541,107;   53,071;27147,035;49,78244
 795,35;13480,065;   73,471;27007,969;49,77481
 795,91;13437,724;   48,071;26789,301;50,07119
 796,48;13349,781;   55,771;26710,734;49,87443
 797,05;13318,339;   57,671;26624,369;49,91462
 797,62;13319,197;   41,971;26600,701;49,99195
 798,18;13188,955;   57,471;26410,736;49,82868
 798,75;13146,413;   56,571;26279,770;49,91703
 799,32;13180,271;   60,771;26209,102;50,17337
 799,88;13068,329;   55,971;26051,535;50,05607
 800,45;12953,087;   33,971;25945,270;49,85901
 801,02;13034,045;   65,271;25880,104;50,23768
 801,58;12959,603;   90,872;25660,436;50,32832
 802,15;12883,061;   72,872;25615,270;50,15265
 802,72;12838,918;   66,172;25404,703;50,40839
 803,28;12801,276;   49,172;25288,938;50,52386
 803,85;12736,834;   41,972;25144,871;50,57130
 804,42;12644,092;   77,772;24948,004;50,52755
 804,98;12633,450;  100,672;24935,537;50,46445
 805,55;12483,908;   56,972;24702,371;50,42295
 806,12;12433,666;   83,572;24611,004;50,35217
 806,68;12345,124;   66,472;24493,738;50,26617
 807,25;12316,082;   74,972;24436,271;50,24818
 807,82;12230,840;   86,872;24407,805;49,93216
 808,38;12195,598;   73,672;24367,037;49,89809
 808,95;12142,955;   62,972;24166,971;50,11610
 809,52;12078,613;   50,272;24162,004;49,88585
 810,08;12095,471;   55,172;23994,938;50,29414
 810,65;12043,429;   77,172;24169,672;49,66797
 811,21;12042,587;   69,972;24123,404;49,77508
 811,78;12107,845;   92,472;24337,539;49,55801
 812,35;11923,203;   64,972;24173,871;49,18612
 812,91;12019,561;   90,072;24239,705;49,39822
 813,48;12007,919;   68,172;24202,738;49,47156
 814,04;11940,677;   64,172;24088,373;49,43559
 814,61;11899,435;   77,572;24176,006;49,05656
 815,18;11842,792;   67,772;23892,539;49,42344
 815,74;11888,450;   69,772;23709,172;49,99568
 816,31;11796,008;   83,372;23614,406;49,77527
 816,87;11638,666;   43,272;23489,641;49,45497
 817,44;11695,124;   76,972;23452,273;49,70268
 818,00;11610,282;   43,272;23159,506;50,03847
 818,57;11609,640;   71,872;23076,340;50,15446
 819,14;11492,998;   82,872;22924,273;49,95370
 819,70;11420,756;   72,672;22792,707;49,94747
 820,27;11452,214;   62,972;22691,941;50,33036
 820,83;11395,972;   70,072;22541,373;50,40162
 821,40;11349,629;   98,072;22431,908;50,37897
 821,96;11257,787;   75,272;22315,541;50,28048
 822,53;11204,945;   70,973;22257,574;50,18332
 823,09;11173,003;   81,073;22073,309;50,43566
 823,66;10991,361;   68,173;21862,541;50,11932
 824,22;10925,619;   77,173;21851,674;49,82179
 824,79;10944,477;   75,473;21561,408;50,58660
 825,35;10888,335;   65,173;21648,041;50,14701
 825,92;10726,492;   75,173;21398,875;49,95061
 826,48;10778,950;   87,673;21501,309;49,92743
 827,05;10663,408;   89,573;21448,242;49,50606
 827,61;10570,866;   75,273;21249,076;49,56877
 828,18;10475,824;   60,873;21191,209;49,28909
 828,74;10357,882;   91,673;21053,543;48,97564
 829,31;10389,040;   83,373;21002,176;49,26509
 829,87;10346,298;   73,073;20733,709;49,72366
 830,44;10313,355;   85,173;20631,443;49,78121
 831,00;10381,514;   91,273;20673,977;49,99460
 831,57;10216,071;  101,573;20631,609;49,26683
 832,13;10090,329;   72,073;20323,344;49,46977
 832,69;10087,487;   58,173;20309,477;49,52429
 833,26; 9999,745;   85,473;20322,711;48,99024
 833,82; 9933,304;   93,073;20197,744;48,94500
 834,39; 9920,062;   78,773;20137,477;49,06244
 834,95; 9846,919;   57,173;19959,410;49,18917
 835,52; 9893,177;   87,873;19851,744;49,61226
 836,08; 9864,035;   95,573;19951,877;49,19577
 836,64; 9830,593;   76,273;19800,711;49,45297
 837,21; 9797,251;   88,673;19552,443;49,88025
 837,77; 9724,608;   91,873;19491,777;49,65352
 838,34; 9679,166;   67,473;19470,012;49,53833
 838,90; 9692,824;   64,473;19306,045;50,03932
 839,46; 9652,683;   83,873;19312,479;49,76341
 840,03; 9615,641;   76,173;19300,811;49,62105
 840,59; 9607,798;   85,873;19175,645;49,87972
 841,16; 9531,656;  105,173;19156,578;49,47920
 841,72; 9372,614;   59,373;18965,512;49,26041
 842,28; 9331,572;   77,873;18857,246;49,27587
 842,85; 9394,630;   95,573;18812,578;49,68240
 843,41; 9362,487;  105,374;18740,813;49,67478
 843,97; 9276,445;   89,174;18686,846;49,40012
 844,54; 9284,703;  104,774;18624,979;49,56711
 845,10; 9167,762;   89,174;18523,713;49,24771
 845,67; 9169,119;   68,774;18413,445;49,60757
 846,23; 9083,677;   78,674;18361,080;49,25502
 846,79; 8927,135;   90,474;18265,613;48,61950
 847,36; 8824,793;   55,774;18179,047;48,38541
 847,92; 8807,751;   84,874;18034,680;48,59594
 848,48; 8870,108;   41,874;18039,213;49,05300
 849,04; 8806,467;   62,374;17949,447;48,88498
 849,61; 8780,925;   56,274;17918,580;48,84392
 850,17; 8732,082;   68,174;17819,514;48,80707
 850,73; 8648,141;   71,474;17764,848;48,47389
 851,30; 8573,998;   46,074;17669,881;48,38866
 851,86; 8543,756;   75,874;17597,914;48,32703
 852,42; 8555,214;   51,174;17568,348;48,54687
 852,99; 8576,572;   79,274;17583,082;48,54543
 853,55; 8531,430;   83,174;17542,514;48,38817
 854,11; 8524,888;   70,074;17432,049;48,69730
 854,67; 8444,346;   85,474;17420,881;48,21849
 855,24; 8388,804;   51,874;17213,414;48,57915
 855,80; 8444,361;   76,874;17244,848;48,73893
 856,36; 8447,619;   80,574;17175,881;48,94352
 856,92; 8365,277;   54,474;17027,215;48,96559
 857,49; 8395,136;   81,274;17048,248;49,00026
 858,05; 8361,193;   67,274;16968,482;49,07294
 858,61; 8324,951;   65,774;17003,316;48,76255
 859,17; 8291,809;   77,374;16904,250;48,81735
 859,74; 8263,167;   82,074;16836,883;48,82833
 860,30; 8155,425;   93,074;16663,016;48,65648
 860,86; 8111,583;   72,074;16692,350;48,37169
 861,42; 8079,141;   74,674;16545,883;48,59672
 861,99; 7977,298;   54,674;16506,717;48,15587
 862,55; 7919,957;   66,374;16393,051;48,10276
 863,11; 7923,114;   75,174;16437,283;47,96411
 863,67; 7866,572;   61,274;16290,117;48,09522
 864,23; 7860,230;   80,175;16199,351;48,26584
 864,80; 7740,088;   69,175;16081,384;47,90665
 865,36; 7756,646;   71,875;16120,817;47,88335
 865,92; 7730,604;   96,175;16088,751;47,73733
 866,48; 7659,462;   67,375;15987,384;47,68896
 867,04; 7597,620;   60,675;15891,418;47,60955
 867,60; 7587,278;   99,375;15884,451;47,43660
 868,17; 7531,235;   93,675;15884,685;47,09997
 868,73; 7489,093;   82,775;15672,618;47,50733
 869,29; 7371,151;   59,475;15470,151;47,44553
 869,85; 7387,509;  100,475;15369,685;47,72372
 870,41; 7296,367;   80,575;15293,418;47,43224
 870,97; 7346,725;   92,975;15232,252;47,91345
 871,54; 7234,383;   84,175;15178,686;47,36959
 872,10; 7248,541;   84,275;15055,419;47,85383
 872,66; 7148,499;   66,775;14910,652;47,70805
 873,22; 7089,257;   81,975;14890,586;47,31897
 873,78; 7051,115;   65,275;14742,419;47,59672
 874,34; 7027,072;   95,075;14662,652;47,58511
 874,90; 6960,772;  109,775;14536,053;47,48971
 875,46; 6939,772;   96,375;14412,952;47,80051
 876,03; 6819,873;   86,475;14363,353;47,16296
 876,59; 6784,873;   64,475;14153,253;47,70036
 877,15; 6751,973;  101,475;14166,853;47,28275
 877,71; 6657,272;   78,275;14064,652;47,03861
 878,27; 6545,772;   95,675;13910,553;46,68950
 878,83; 6583,772;  114,275;13971,753;46,68597
 879,39; 6540,772;   91,075;14082,753;46,09667
 879,95; 6486,272;   86,275;13964,253;46,11621
 880,51; 6437,172;   75,175;13927,253;45,92811
 881,07; 6445,873;   82,375;13978,753;45,79249
 881,63; 6473,072;   92,575;13971,253;45,97338
 882,19; 6459,473;   82,675;13921,553;46,07886
 882,75; 6421,873;   86,275;14019,553;45,47098
 883,31; 6463,772;   95,575;14187,853;45,18927
 883,88; 6459,672;   96,375;14174,353;45,20037
 884,44; 6418,572;   76,175;14175,753;44,98289
 885,00; 6504,373;  106,075;14266,952;45,18292
 885,56; 6486,072;  101,675;14299,452;44,96758
 886,12; 6579,772;  109,875;14421,152;45,20839
 886,68; 6530,772;   90,775;14436,753;44,89061
 887,24; 6549,973;  102,475;14574,952;44,55006
 887,80; 6535,373;   86,975;14671,753;44,21320
 888,36; 6629,373;  106,275;14715,652;44,65007
 888,92; 6653,873;   98,975;14773,353;44,66900
 889,48; 6753,973;   99,575;14973,853;44,73762
 890,04; 6687,772;   95,275;14803,053;44,82321
 890,60; 6764,473;  117,475;15014,652;44,61918
 891,16; 6736,973;   99,875;15075,853;44,31829
 891,72; 6750,272;  113,275;15058,452;44,40896
 892,28; 6744,272;  112,475;15126,053;44,17200
 892,84; 6669,572;   93,775;15039,853;43,99681
 893,39; 6704,473;  117,575;15112,952;43,92619
 893,95; 6619,772;  112,975;15044,753;43,57684
 894,51; 6460,873;   66,375;14891,253;43,13356
 895,07; 6537,373;  127,375;14906,353;43,37240
 895,63; 6347,873;   74,275;14689,952;42,92376
 896,19; 6359,373;   90,375;14601,952;43,19997
 896,75; 6230,272;  105,175;14460,152;42,66881
 897,31; 6139,172;   82,775;14295,853;42,61144
 897,87; 6071,973;   98,175;14146,853;42,52214
 898,43; 5983,172;   87,775;14075,753;42,14617
 898,99; 5919,772;  109,175;14002,753;41,82218
 899,55; 5797,272;  109,475;13940,652;41,12302
 900,11; 5782,772;  104,975;13747,553;41,61822
 900,67; 5686,572;   91,375;13658,652;41,24038
 901,22; 5652,072;  108,375;13601,952;41,08397
 901,78; 5547,772;   91,275;13560,053;40,51219
 902,34; 5491,572;  103,075;13451,152;40,36909
 902,90; 5377,572;   73,575;13350,652;39,94853
 903,46; 5335,373;   95,775;13236,353;39,87342
 904,02; 5284,473;   88,075;13091,553;39,96160
 904,58; 5234,172;   67,075;12918,152;40,20750
 905,14; 5205,572;   63,975;12874,553;40,13556
 905,70; 5156,172;   66,775;12696,053;40,29840
 906,25; 5121,873;   84,375;12708,452;39,90389
 906,81; 5093,272;   87,675;12732,152;39,58722
 907,37; 5012,873;   79,275;12616,152;39,35268
 907,93; 4996,072;   74,775;12588,152;39,32829
 908,49; 4943,473;  101,875;12497,652;39,05844
 909,05; 4949,473;   89,675;12425,553;39,39564
 909,60; 4850,272;   86,575;12340,452;38,87502
 910,16; 4793,373;   67,675;12291,853;38,65861
 910,72; 4770,672;  100,475;12207,753;38,57347
 911,28; 4669,172;   90,875;12156,053;37,94637
 911,84; 4628,072;   79,575;12106,753;37,81849
 912,39; 4567,772;   73,475;12049,353;37,52792
 912,95; 4605,172;  104,475;12001,452;37,83060
 913,51; 4568,572;   85,375;11945,253;37,80138
 914,07; 4435,973;   83,775;11813,452;37,10416
 914,63; 4395,373;   64,775;11748,053;37,06663
 915,18; 4298,672;   77,475;11617,853;36,57764
 915,74; 4237,973;   63,975;11632,652;36,08016
 916,30; 4162,272;   61,475;11588,553;35,57534
 916,86; 4157,973;   83,575;11514,652;35,64316
 917,42; 4099,772;   82,275;11425,152;35,41868
 917,97; 4022,873;   75,375;11265,452;35,27677
 918,53; 3920,673;   67,775;11196,253;34,62196
 919,09; 3915,272;   88,975;11223,753;34,36348
 919,65; 3846,673;   83,375;11083,452;34,21156
 920,20; 3819,373;   61,875;10983,053;34,40561
 920,76; 3736,173;   65,475;10849,452;34,03844
 921,32; 3712,772;   82,675;10770,952;33,96335
 921,87; 3684,573;   97,475;10670,253;33,92767
 922,43; 3613,073;   64,675;10561,353;33,80496
 922,99; 3550,772;   61,875;10406,753;33,72584
 923,55; 3519,873;   63,775;10357,353;33,57528
 924,10; 3453,873;   73,575;10282,853;33,11006
 924,66; 3450,873;   78,675;10170,152;33,41629
 925,22; 3324,373;   43,275;10093,952;32,64554
 925,77; 3291,073;   66,075; 9927,053;32,70464
 926,33; 3302,772;   90,375; 9903,253;32,73655
 926,89; 3176,373;   71,975; 9692,753;32,26764
 927,44; 3130,472;   52,175; 9580,553;32,30663
 928,00; 3047,573;   66,875; 9533,753;31,48554
 928,56; 3009,673;   80,375; 9372,253;31,52536
 929,12; 2967,073;   72,775; 9275,152;31,45163
 929,67; 2858,573;   67,575; 9091,053;30,93040
 930,23; 2787,972;   50,975; 8915,253;30,87671
 930,78; 2785,073;  100,675; 8842,553;30,70733
 931,34; 2691,673;   61,975; 8632,152;30,68428
 931,90; 2579,573;   61,675; 8494,353;29,85881
 932,45; 2528,873;   78,775; 8290,753;29,83566
 933,01; 2405,673;   52,975; 8024,453;29,51395
 933,57; 2313,673;   72,175; 7753,252;29,18207
 934,12; 2209,173;   70,475; 7399,553;29,18099
 934,68; 2037,473;   59,075; 7020,252;28,42044
 935,24; 1931,772;   67,875; 6614,752;28,47002
 935,79; 1818,473;   72,975; 6254,853;28,23572
 936,35; 1707,973;   91,375; 5812,252;28,25786
 936,90; 1559,073;   80,275; 5348,752;28,06878
 937,46; 1426,473;   72,775; 4956,953;27,71598
 938,02; 1327,172;   63,375; 4549,152;28,17343
 938,57; 1228,073;   73,175; 4265,053;27,55084
 939,13; 1147,172;   70,575; 3986,752;27,49103
 939,68; 1040,973;   57,375; 3713,452;26,90308
 940,24; 1013,972;   68,775; 3504,052;27,51444
 940,79;  972,273;   91,875; 3391,052;26,68536
 941,35;  945,573;   79,675; 3217,552;27,59501
 941,91;  900,972;   71,375; 3122,252;27,19209
 942,46;  858,273;   75,075; 3063,552;26,20724
 943,02;  844,573;   65,375; 3050,752;26,10047
 943,57;  819,273;   61,275; 2982,452;25,94836
 944,13;  817,773;   67,375; 2974,452;25,81278
 944,68;  844,972;   65,975; 3041,752;26,17795
 945,24;  856,972;   82,275; 3060,052;26,01596
 945,79;  844,273;   68,775; 3104,052;25,54948
 946,35;  825,872;   51,775; 3194,752;24,62943
 946,90;  879,172;   98,575; 3283,552;24,50873
 947,46;  859,073;   52,175; 3311,052;24,75998
 948,01;  867,073;   51,575; 3390,052;24,42723
 948,57;  906,672;   86,775; 3552,952;23,65423
 949,12;  895,073;   65,875; 3613,353;23,37428
 949,68;  921,172;   76,275; 3732,653;23,10750
 950,23;  928,972;   70,075; 3833,252;22,82373
 950,79;  938,172;   75,775; 3933,452;22,35536
 951,34;  943,073;   83,275; 4070,952;21,56136
 951,90;  937,972;   57,475; 4140,853;21,56297
 952,45;  984,672;   81,075; 4292,152;21,45763
 953,01;  982,073;   65,975; 4364,252;21,31313
 953,56;  985,573;   87,975; 4500,853;20,34041
 954,12;  978,573;   42,075; 4567,553;20,69389
 954,67;  996,972;   70,875; 4720,453;19,91788
 955,23;  990,573;   61,975; 4804,553;19,58002
 955,78; 1015,872;   67,175; 4882,953;19,69978
 956,33; 1009,073;   58,575; 4947,252;19,44284
 956,89; 1007,172;   53,475; 5038,553;19,13105
 957,44;  995,472;   53,675; 5170,752;18,40499
 958,00; 1019,472;   49,475; 5238,353;18,69378
 958,55; 1030,672;   70,475; 5313,953;18,31223
 959,10; 1019,773;   52,375; 5370,252;18,19142
 959,66; 1063,772;   74,275; 5488,752;18,27503
 960,21; 1068,973;   78,475; 5567,453;18,04521
 960,77; 1063,672;   54,275; 5606,152;18,18119
 961,32; 1048,172;   48,375; 5663,453;17,80559
 961,87; 1078,873;   79,775; 5738,752;17,65509
 962,43; 1071,672;   68,975; 5780,652;17,55522
 962,98; 1050,873;   76,175; 5828,652;16,94396
 963,54; 1039,873;   27,075; 5820,652;17,48138
 964,09; 1064,573;   56,275; 5873,953;17,33162
 964,64; 1071,473;   64,975; 5901,053;17,24613
 965,20; 1038,172;   44,375; 5966,652;16,78066
 965,75; 1068,772;   66,575; 5976,353;16,95829
 966,30; 1054,473;   75,275; 6068,553;16,33826
 966,86; 1032,672;   62,975; 6121,953;16,00431
 967,41; 1046,973;   81,075; 6084,453;16,08924
 967,96; 1031,473;   75,175; 6108,953;15,84907
 968,52; 1019,273;   81,775; 6126,353;15,50973
 969,07;  990,172;   72,975; 6120,152;15,16737
 969,62;  974,573;   77,175; 6134,953;14,81397
 970,18;  970,773;   57,575; 6147,652;14,99484
 970,73;  955,472;   66,475; 6203,553;14,48568
 971,28;  977,672;   95,775; 6197,053;14,45431
 971,84;  935,672;   55,075; 6118,752;14,52250
 972,39;  940,672;   95,875; 6148,652;13,95719
 972,94;  917,073;   54,975; 6140,652;14,16601
 973,49;  876,172;   64,575; 6141,252;13,35594
 974,05;  902,273;   64,375; 6178,053;13,70529
 974,60;  900,172;   88,575; 6213,252;13,25127
 975,15;  883,273;   77,675; 6231,553;13,09089
 975,71;  853,573;   62,375; 6121,453;13,05805
 976,26;  857,872;   77,575; 6110,252;12,93451
 976,81;  862,972;   90,675; 6134,152;12,77902
 977,36;  862,872;   84,775; 6156,953;12,81414
 977,92;  857,972;   90,175; 6209,353;12,54740
 978,47;  833,972;   77,175; 6060,252;12,64897
 979,02;  850,872;   95,475; 6085,652;12,61060
 979,57;  831,773;   86,775; 6058,453;12,47551
 980,13;  820,372;   76,175; 6038,752;12,48114
 980,68;  826,773;   77,075; 6010,553;12,63504
 981,23;  826,972;   89,175; 6054,652;12,36779
 981,78;  822,672;   82,075; 5974,152;12,56938
 982,33;  804,672;   79,275; 5893,252;12,47679
 982,89;  804,073;   94,375; 5938,152;12,14450
 983,44;  788,073;   65,675; 5935,853;12,30623
 983,99;  813,273;  104,775; 5949,453;12,12210
 984,54;  791,172;   81,475; 5900,053;12,19710
 985,09;  806,773;   87,275; 5873,752;12,43412
 985,65;  760,073;   69,375; 5811,853;12,02787
 986,20;  766,773;  106,575; 5791,152;11,61384
 986,75;  768,073;   95,875; 5823,953;11,73513
 987,30;  748,073;   97,175; 5726,053;11,56354
 987,85;  730,273;   92,475; 5721,353;11,33081
 988,40;  716,273;   96,675; 5693,953;11,06962
 988,96;  725,872;  114,875; 5666,553;11,00564
 989,51;  725,472;  108,875; 5644,053;11,13961
 990,06;  731,273;  128,275; 5680,853;10,85978
 990,61;  682,773;   93,575; 5569,053;10,76066
 991,16;  687,372;  104,375; 5558,053;10,68999
 991,71;  670,573;   79,875; 5505,853;10,88647
 992,26;  654,773;   93,475; 5457,252;10,46459
 992,81;  636,472;   75,075; 5427,053;10,48953
 993,37;  655,773;  113,475; 5390,553;10,27647
 993,92;  634,472;  108,375; 5368,953;10,00075
 994,47;  646,073;  117,475; 5329,652;10,14159
 995,02;  635,872;  118,475; 5313,252; 9,95996
 995,57;  618,172;   90,875; 5274,652;10,17207
 996,12;  636,573;  133,575; 5247,553; 9,83574
 996,67;  613,472;  132,375; 5191,652; 9,50921
 997,22;  590,872;   99,875; 5128,652; 9,76375
 997,77;  610,972;  115,275; 5110,553; 9,92332
 998,32;  587,172;  103,775; 5015,652; 9,84140
 998,87;  594,273;  114,275; 5018,752; 9,78692
 999,42;  593,773;  101,675; 4972,553;10,10285
 999,97;  565,672;  109,975; 4956,353; 9,40285
1000,53;  617,972;  123,475; 4993,752;10,15337
1001,08;  582,372;   98,375; 4879,053;10,12404
1001,63;  588,372;  144,475; 4878,053; 9,37763
1002,18;  526,972;   85,075; 4777,453; 9,41735
1002,73;  592,872;  131,375; 4813,853; 9,85584
1003,28;  568,672;  103,575; 4811,953; 9,87808
1003,83;  567,472;  119,075; 4691,752; 9,80602
1004,38;  570,172;  137,775; 4703,152; 9,47123
1004,93;  557,872;  114,375; 4680,953; 9,71181
1005,48;  551,972;  104,075; 4573,053;10,02237
1006,03;  533,273;  112,775; 4525,652; 9,52887
1006,58;  518,972;  111,475; 4486,553; 9,31406
1007,13;  492,872;   94,475; 4466,252; 9,11294
1007,68;  513,073;  104,975; 4462,453; 9,36545
1008,23;  516,073;  114,575; 4425,853; 9,31273
1008,78;  503,772;  107,375; 4384,152; 9,26860
1009,33;  511,872;  121,875; 4307,752; 9,31698
1009,88;  471,772;   84,775; 4329,553; 9,11703
1010,43;  486,672;  118,875; 4320,752; 8,75317
1010,98;  475,772;  100,675; 4310,053; 8,91100
1011,52;  454,772;   97,075; 4264,953; 8,58225
1012,07;  511,473;  144,475; 4319,252; 8,79083
1012,62;  458,073;  103,875; 4259,152; 8,52404
1013,17;  460,372;   97,175; 4172,053; 8,91309
1013,72;  432,672;   94,575; 4143,453; 8,35040
1014,27;  446,573;  100,275; 4105,853; 8,64538
1014,82;  425,272;   86,875; 4042,952; 8,55386
1015,37;  400,073;   84,375; 3964,853; 8,13553
1015,92;  438,872;  109,475; 3894,252; 8,70322
1016,47;  404,872;   90,275; 3819,452; 8,43611
1017,02;  389,372;   81,075; 3732,153; 8,44401
1017,57;  411,073;   96,475; 3718,853; 8,68483
1018,11;  381,473;   77,275; 3656,252; 8,49956
1018,66;  405,073;  120,175; 3636,552; 8,10202
1019,21;  398,872;  109,675; 3579,552; 8,33452
1019,76;  360,973;   77,675; 3497,353; 8,28433
1020,31;  358,872;   71,975; 3446,452; 8,50198
1020,86;  379,872;   96,175; 3448,052; 8,46384
1021,41;  371,772;   80,175; 3387,052; 8,81791
1021,96;  359,872;   83,675; 3385,853; 8,36410
1022,50;  377,872;  105,975; 3332,952; 8,42576
1023,05;  367,672;   94,675; 3288,052; 8,54886
1023,60;  364,772;   97,975; 3251,353; 8,46069
1024,15;  348,372;   81,075; 3184,853; 8,61201
1024,70;  349,672;   95,075; 3176,252; 8,26299
1025,25;  340,172;   81,175; 3127,452; 8,50210
1025,79;  351,172;  101,175; 3110,752; 8,30673
1026,34;  347,672;   83,475; 3044,653; 8,92204
1026,89;  341,473;  102,175; 3039,052; 8,14802
1027,44;  345,372;   95,875; 2952,952; 8,73261
1027,99;  340,672;   93,475; 2944,552; 8,67032
1028,53;  329,172;   89,675; 2900,052; 8,52190
1029,08;  333,872;  114,775; 2876,653; 7,93292
1029,63;  333,973;  114,875; 2854,952; 7,99603
1030,18;  327,973;   92,075; 2788,552; 8,74836
1030,73;  313,672;   91,175; 2739,552; 8,40128
1031,27;  299,973;   85,875; 2715,252; 8,14252
1031,82;  299,073;   81,875; 2686,452; 8,33907
1032,37;  305,973;   98,875; 2688,853; 7,99611
1032,92;  315,573;  100,575; 2675,452; 8,34982
1033,46;  297,772;   99,775; 2599,252; 7,92156
1034,01;  287,172;   78,375; 2582,952; 8,33664
1034,56;  297,573;   98,875; 2559,252; 8,07590
1035,11;  295,073;   92,375; 2523,552; 8,33742
1035,65;  286,672;   87,575; 2478,052; 8,32877
1036,20;  283,473;   99,375; 2454,452; 7,81705
1036,75;  306,172;  118,675; 2446,353; 8,05513
1037,29;  287,772;   90,275; 2398,252; 8,55717
1037,84;  257,573;   78,375; 2347,252; 7,89807
1038,39;  271,973;   91,075; 2329,952; 8,07983
1038,94;  243,673;   73,075; 2277,153; 7,74009
1039,48;  271,172;   83,575; 2278,552; 8,54667
1040,03;  278,372;  102,875; 2245,252; 8,19172
1040,58;  259,672;  101,175; 2194,552; 7,57138
1041,12;  254,072;   91,375; 2191,653; 7,74648
1041,67;  257,473;  101,075; 2166,752; 7,57125
1042,22;  279,772;  118,475; 2145,252; 7,95832
1042,76;  254,173;   99,275; 2118,452; 7,67132
1043,31;  270,172;   90,675; 2060,653; 9,11165
1043,86;  263,073;   98,875; 2044,252; 8,44039
1044,40;  255,273;   92,975; 2018,052; 8,43070
1044,95;  263,172;   94,175; 1988,552; 8,92100
1045,50;  230,473;   75,375; 1934,353; 8,34316
1046,04;  259,573;  114,375; 1930,453; 7,99512
1046,59;  240,773;   96,175; 1878,353; 8,11353
1047,13;  268,073;  121,075; 1879,453; 8,35984
1047,68;  258,672;  115,675; 1860,052; 8,19762
1048,23;  261,672;  118,775; 1866,752; 8,17502
1048,77;  236,872;   90,175; 1784,953; 8,65586
1049,32;  246,473;  104,175; 1785,953; 8,46114
1049,86;  234,673;   92,675; 1760,552; 8,51366
1050,41;  226,372;   82,475; 1735,552; 8,70482
1050,96;  242,673;  100,875; 1698,652; 8,87467
1051,50;  225,572;  101,675; 1663,252; 7,93412
1052,05;  237,372;   94,675; 1664,052; 9,09262
1052,59;  232,572;   82,975; 1624,152; 9,70670
1053,14;  202,872;   84,475; 1582,652; 7,90277
1053,69;  220,673;   98,475; 1571,453; 8,29595
1054,23;  236,872;  104,575; 1569,052; 9,03377
1054,78;  219,872;  100,775; 1550,152; 8,21715
1055,32;  240,273;  123,075; 1550,453; 8,21069
1055,87;  193,872;   68,875; 1491,752; 8,78484
1056,41;  203,072;   78,775; 1469,552; 8,93727
1056,96;  202,173;   96,775; 1451,052; 7,78256
1057,50;  225,773;  113,375; 1470,853; 8,27988
1058,05;  189,273;   82,075; 1401,953; 8,12178
1058,59;  211,572;   95,875; 1396,552; 8,89517
1059,14;  215,372;  103,575; 1370,453; 8,82465
1059,68;  173,872;   75,975; 1329,353; 7,81070
1060,23;  233,473;  126,875; 1383,752; 8,48114
1060,77;  207,572;   97,375; 1317,052; 9,03497
1061,32;  210,173;  108,575; 1320,652; 8,38210
1061,86;  214,372;  111,175; 1289,752; 8,75611
1062,41;  198,273;   93,975; 1242,953; 9,07742
1062,95;  201,572;  109,575; 1230,853; 8,20470
1063,50;  206,072;  111,075; 1230,052; 8,48967
1064,04;  186,372;   90,475; 1197,453; 8,66300
1064,59;  203,072;  114,775; 1210,052; 8,06166
1065,13;  199,473;  103,475; 1170,552; 8,99630
1065,68;  192,273;  107,275; 1161,353; 8,06369
1066,22;  206,673;  115,875; 1166,453; 8,64263
1066,76;  211,173;  130,175; 1145,252; 7,97944
1067,31;  187,572;   99,875; 1110,552; 8,67710
1067,85;  178,773;  100,975; 1090,252; 7,86407
1068,40;  196,773;  110,275; 1095,353; 8,78078
1068,94;  181,473;   99,175; 1079,353; 8,39618
1069,49;  172,072;   98,175; 1041,652; 7,83246
1070,03;  184,572;  111,175; 1034,353; 7,95053
1070,57;  169,173;   88,775; 1012,852; 8,70030
1071,12;  168,973;   75,875;  987,153;10,21615
1071,66;  221,372;  131,775; 1039,953; 9,86564
1072,21;  195,872;  112,475; 1011,352; 9,27796
1072,75;  191,372;  104,475;  978,552; 9,94162
1073,29;  156,673;   77,075;  942,453; 9,19801
1073,84;  174,473;   95,975;  941,153; 9,28769
1074,38;  183,872;   93,875;  928,253;10,78618
1074,92;  183,973;  107,275;  940,153; 9,20874
1075,47;  181,273;  112,775;  938,852; 8,29190
1076,01;  192,872;  121,775;  926,253; 8,83772
1076,56;  160,072;   97,275;  891,953; 7,90226
1077,10;  159,572;   86,075;  865,253; 9,43270
1077,64;  169,273;   97,875;  884,453; 9,07698
1078,19;  199,173;  123,175;  887,753; 9,93980
1078,73;  165,072;   98,775;  853,852; 8,78022
1079,27;  181,072;  121,075;  875,552; 7,95219
1079,81;  192,273;  121,375;  860,953; 9,58622
1080,36;  177,773;  105,975;  836,052; 9,83423
1080,90;  170,673;   96,375;  819,753;10,27092
1081,44;  154,473;   82,475;  789,552;10,18241
1081,99;  132,372;   70,375;  771,753; 8,83939
1082,53;  173,872;  113,075;  798,653; 8,86807
1083,07;  164,673;  104,175;  791,453; 8,80248
1083,62;  166,173;  101,275;  772,552; 9,66776
1084,16;  163,872;   98,975;  782,453; 9,49519
1084,70;  172,773;  107,475;  767,153; 9,89840
1085,24;  176,473;  108,775;  750,653;10,54679
1085,79;  166,372;  109,175;  747,552; 8,95982
1086,33;  150,473;   99,075;  711,453; 8,39311
1086,87;  170,473;  102,075;  714,852;11,16188
1087,41;  148,773;   84,475;  686,852;10,67396
1087,96;  175,973;  124,575;  732,552; 8,45385
1088,50;  150,473;  112,075;  696,953; 6,56505
1089,04;  180,473;  121,775;  715,153; 9,89210
1089,58;  145,572;   82,375;  655,953;11,01813
1090,13;  144,872;  102,975;  653,153; 7,61527
1090,67;  161,273;  101,775;  678,753;10,31193
1091,21;  145,173;   92,075;  651,852; 9,48547
1091,75;  154,072;  106,875;  647,153; 8,73579
1092,29;  160,473;  105,875;  642,552;10,17324
1092,84;  148,973;  105,975;  628,352; 8,23112
1093,38;  182,973;  128,175;  662,753;10,25062
1093,92;  174,572;  113,475;  640,052;11,60275
1094,46;  171,173;  128,175;  638,852; 8,41970
1095,00;  150,572;   93,975;  602,052;11,13954
1095,54;  140,372;   89,975;  591,352;10,05181
1096,09;  154,973;  114,975;  597,352; 8,29174
1096,63;  168,072;  117,175;  598,453;10,57550
1097,17;  141,072;  102,575;  573,052; 8,18264
1097,71;  180,673;  122,875;  582,453;12,57622
1098,25;  151,072;  103,275;  553,653;10,61276
1098,79;  156,973;  104,775;  568,753;11,25001
1099,33;  161,773;  111,975;  572,052;10,82372
1099,88;  139,673;  110,775;  562,253; 6,40065
1100,42;  123,573;   83,275;  521,253; 9,20082

