0140 ELITRO
Integration time [ms]:   8,000
Averaging Nr. [scans]: 10
Smoothing Nr. [pixels]: 0
Data measured with spectrometer [name]: 7314920SP
Wave   ;Sample   ;Dark     ;Reference;Reflectance
[nm]   ;[counts] ;[counts] ;[counts] ;[%]

 199,42;  111,654;   63,873;  150,055;55,44231
 200,02;  120,040;   92,669;  145,732;51,58246
 200,62;   72,755;   67,563;   88,793;24,45706
 201,22;  119,656;   86,969;  138,011;64,03998
 201,82;   94,002;   66,174;  141,790;36,80150
 202,42;  117,801;  101,668;  154,973;30,26584
 203,03;   65,508;   60,168;   91,775;16,89593
 203,63;   81,253;   69,967;  109,037;28,88737
 204,23;   88,436;   70,671;  129,903;29,99193
 204,83;   95,776;   74,567;  123,718;43,15099
 205,43;   89,354;   56,673;  123,555;48,86408
 206,03;   73,938;   50,167;   90,459;58,99632
 206,63;   76,719;   68,865;  100,007;25,22120
 207,24;  114,111;   74,675;  162,566;44,86927
 207,84;   65,799;   39,967;   83,699;59,06864
 208,44;   69,956;   50,669;   95,011;43,49647
 209,04;   54,158;   47,365;   85,066;18,01771
 209,64;  109,922;   69,972;  127,998;68,84901
 210,24;   62,776;   45,367;   97,218;33,57537
 210,84;   78,395;   51,469;  101,970;53,31690
 211,44;  104,949;   86,470;  122,908;50,71471
 212,05;   82,358;   60,865;   99,266;55,96899
 212,65;   85,308;   66,368;  112,975;40,63811
 213,25;  108,901;   93,768;  142,073;31,32847
 213,85;   87,912;   84,465;  114,904;11,32437
 214,45;   75,076;   53,367;  100,418;46,13960
 215,05;   55,995;   39,369;  100,070;27,38927
 215,65;   68,033;   55,169;  105,630;25,49343
 216,25;   54,476;   40,267;   82,518;33,63037
 216,85;   48,317;   34,069;   89,651;25,63501
 217,45;   63,408;   49,068;   97,375;29,68565
 218,05;   89,665;   58,270;  112,886;57,48301
 218,66;   54,179;   28,769;   75,692;54,15267
 219,26;   43,653;   26,567;   79,337;32,37882
 219,86;   52,958;   36,771;   81,584;36,12274
 220,46;   78,627;   54,270;  104,127;48,85294
 221,06;   80,136;   51,871;  115,903;44,14172
 221,66;   73,552;   43,471;  103,481;50,12557
 222,26;   54,522;   39,772;  102,398;23,55269
 222,86;   86,124;   67,268;  118,954;36,48205
 223,46;   64,876;   51,767;   88,918;35,28616
 224,06;   81,397;   64,971;  120,343;29,66501
 224,66;   83,842;   57,570;  105,805;54,46693
 225,26;   78,811;   48,169;  113,748;46,72394
 225,86;   71,838;   42,173;  112,376;42,25646
 226,46;   76,163;   49,968;  102,913;49,47498
 227,06;   46,642;   27,670;   87,705;31,60184
 227,66;   63,974;   37,665;   74,845;70,76058
 228,27;   56,227;   29,270;   96,227;40,25960
 228,87;  103,404;   89,170;  143,046;26,41947
 229,47;   60,061;   29,172;   92,357;48,88593
 230,07;   36,811;   11,169;   59,648;52,89113
 230,67;   51,817;   38,169;   84,651;29,36286
 231,27;   55,827;   27,670;   76,327;57,86753
 231,87;   57,717;   43,169;  100,751;25,26562
 232,47;   99,034;   43,775;  132,047;62,60069
 233,07;   48,480;   42,965;   75,547;16,92890
 233,67;   68,808;   53,768;   94,275;37,12992
 234,27;   32,438;    0,567;   53,259;60,48507
 234,87;   63,158;   34,771;  106,084;39,80716
 235,47;   39,611;   16,169;   74,148;40,43031
 236,07;   43,567;   30,266;   72,042;31,83879
 236,67;   61,122;   49,966;   85,180;31,67841
 237,27;   63,032;   28,873;  109,074;42,59100
 237,87;   66,942;   25,370;   99,805;55,85023
 238,47;   36,140;   14,269;   68,032;40,68088
 239,07;   64,684;   33,272;   95,738;50,28559
 239,67;   84,236;   43,477;  131,421;46,34744
 240,27;   70,538;   46,773;  119,176;32,82371
 240,87;   71,870;   50,773;  119,533;30,68171
 241,47;   51,310;   39,164;   76,131;32,85680
 242,07;   55,385;   39,968;   92,894;29,13005
 242,67;   23,693;  -11,027;   77,914;39,03669
 243,27;   21,376;    7,767;   46,418;35,21037
 243,87;   63,997;   48,671;  108,343;25,68397
 244,47;   59,536;   22,371;   99,703;48,05880
 245,07;   28,595;    2,669;   55,770;48,82313
 245,67;   51,708;   31,068;   85,575;37,86709
 246,27;   38,419;   34,965;   69,007;10,14751
 246,87;   50,224;   26,668;   63,154;64,56248
 247,46;   16,755;   19,663;   23,793;-70,40838
 248,06;   35,065;   20,470;   69,786;29,59495
 248,66;   58,922;   31,072;  105,898;37,21991
 249,26;   46,367;   32,366;   70,742;36,48363
 249,86;   61,938;   42,873;  102,176;32,14907
 250,46;   40,973;   16,775;   93,507;31,53522
 251,06;   39,408;   22,168;   65,375;39,90141
 251,66;   37,920;   20,771;   64,724;39,01647
 252,26;   41,444;   38,866;   70,261; 8,21191
 252,86;   39,495;   35,969;   89,070; 6,63932
 253,46;   12,276;   -8,033;   22,118;67,35791
 254,06;   41,528;   31,766;   79,483;20,45933
 254,66;   53,354;   34,973;  100,155;28,19981
 255,26;   84,577;   39,073;  118,836;57,04913
 255,86;   37,810;   37,464;   55,631; 1,90607
 256,46;   34,549;   19,870;   70,208;29,16189
 257,05;   29,081;   23,570;   59,565;15,30992
 257,65;   77,858;   38,071;   97,684;66,74319
 258,25;   64,061;   37,372;  101,457;41,64557
 258,85;   28,495;   15,669;   51,770;35,52689
 259,45;   20,717;    6,869;   42,951;38,38040
 260,05;   32,576;   46,667;   85,818;-35,99057
 260,65;   56,244;   45,066;   83,561;29,03781
 261,25;   43,897;   29,371;   85,943;25,67726
 261,85;   22,213;   -0,129;   47,622;46,78856
 262,45;   76,895;   46,169;  109,270;48,69268
 263,04;   70,516;   53,073;  116,295;27,58930
 263,64;   51,992;   33,767;   77,097;42,06114
 264,24;   62,174;   37,671;   89,062;47,67991
 264,84;   89,725;   58,974;  138,671;38,58449
 265,44;   36,169;   26,368;   67,716;23,70570
 266,04;   60,751;   48,865;   71,464;52,59479
 266,64;   59,122;   39,866;   86,780;41,04372
 267,24;   58,322;   40,166;   68,980;63,00857
 267,84;   47,001;   24,668;   76,573;43,02728
 268,43;   63,547;   48,368;   95,935;31,91070
 269,03;   68,279;   46,969;   87,892;52,07354
 269,63;   73,606;   58,566;   92,402;44,44890
 270,23;   17,374;   10,765;   39,045;23,36846
 270,83;   74,844;   55,266;   83,161;70,18485
 271,43;   42,531;   23,967;   58,856;53,20730
 272,03;   76,469;   64,168;   99,116;35,20039
 272,62;   37,533;   23,269;   68,730;31,37696
 273,22;   37,904;   11,970;   61,046;52,84415
 273,82;   26,582;   17,460;   26,403;102,00246
 274,42;   21,949;   25,164;   46,890;-14,79840
 275,02;   33,542;   34,864;   60,388;-5,18190
 275,62;   66,661;   31,972;  100,457;50,65135
 276,21;   43,688;   22,770;   69,267;44,98744
 276,81;   54,699;   46,767;   71,099;32,59920
 277,41;   60,690;   22,971;   96,341;51,40957
 278,01;   25,642;   21,364;   42,788;19,96593
 278,61;   63,556;   38,869;   83,811;54,93136
 279,20;   82,538;   65,473;  119,076;31,83658
 279,80;   -4,070;    6,762;   11,539;-226,74339
 280,40;   48,267;   36,866;   79,742;26,59062
 281,00;   13,056;   -4,331;   33,311;46,19099
 281,60;   48,486;   20,774;   74,812;51,28302
 282,20;   31,949;   36,670;   70,108;-14,11664
 282,79;   50,447;   29,568;   70,135;51,46798
 283,39;   23,806;   17,466;   44,702;23,27683
 283,99;   16,480;   23,165;   34,347;-59,77107
 284,59;   26,072;   16,869;   45,289;32,38105
 285,19;   38,438;   27,067;   57,759;37,04799
 285,78;   35,049;   23,270;   63,808;29,05795
 286,38;   42,219;   39,665;   59,207;13,07138
 286,98;   45,347;   35,168;   73,535;26,53048
 287,58;   32,036;    4,771;   61,403;48,14386
 288,17;   37,677;    8,973;   80,336;40,22265
 288,77;   57,266;   19,976;   92,504;51,41451
 289,37;   28,495;   11,269;   57,670;37,12326
 289,97;   46,480;   48,965;   66,647;-14,04804
 290,57;   63,968;   46,672;   93,260;37,12519
 291,16;   83,169;   63,868;  102,616;49,81373
 291,76;   25,604;    5,570;   47,346;47,95525
 292,36;   40,853;   34,367;   58,137;27,28775
 292,96;   27,000;   -3,127;   60,117;47,63602
 293,55;   41,199;   24,267;   65,399;41,16501
 294,15;   47,288;   26,870;   62,567;57,19729
 294,75;   45,819;   42,065;   66,207;15,55134
 295,35;   20,869;   21,068;   52,016;-0,64029
 295,94;   45,660;   42,967;   66,740;11,33083
 296,54;   40,263;   30,768;   70,613;23,82853
 297,14;   55,152;   29,971;   76,881;53,67801
 297,73;   18,335;   12,165;   40,085;22,09861
 298,33;   43,728;   28,066;   57,583;53,06285
 298,93;   47,124;   41,968;   82,554;12,70386
 299,53;   30,845;   24,872;   69,079;13,51140
 300,12;   24,952;  -12,229;   59,481;51,84821
 300,72;   56,792;   41,567;   91,197;30,67704
 301,32;   72,858;   25,771;   99,584;63,79313
 301,92;   23,587;    3,664;   33,050;67,79859
 302,51;   31,315;   11,567;   49,978;51,41228
 303,11;   31,238;   14,667;   48,759;48,60608
 303,71;   46,640;   21,369;   82,132;41,58987
 304,30;   19,990;    5,466;   38,423;44,06883
 304,90;   22,028;   19,666;   44,283; 9,59735
 305,50;   35,374;   18,565;   64,345;36,71615
 306,09;   32,967;   15,466;   49,042;52,12322
 306,69;   53,474;   34,171;   90,262;34,41411
 307,29;   18,444;   18,760;   33,144;-2,20171
 307,88;   68,072;   43,269;   72,489;84,88316
 308,48;   28,327;    0,070;   49,727;56,90357
 309,08;    0,778;   -4,437;   11,774;32,17021
 309,68;   34,735;   22,365;   39,585;71,83395
 310,27;   34,533;   20,169;   49,830;48,42857
 310,87;   38,363;   23,468;   54,813;47,51802
 311,47;   63,876;   54,967;   92,918;23,47551
 312,06;   45,796;   47,865;   68,426;-10,06053
 312,66;   69,969;   51,168;  100,016;38,49049
 313,26;   73,720;   48,571;   96,224;52,77483
 313,85;   56,738;   38,267;   65,959;66,70088
 314,45;   58,256;   42,969;   86,611;35,02857
 315,04;   71,896;   52,165;   81,826;66,52350
 315,64;   37,592;   21,267;   47,897;61,30388
 316,24;   61,827;   40,770;   85,627;46,94164
 316,83;   59,267;   40,366;   76,742;51,95979
 317,43;   43,931;   35,167;   68,156;26,56464
 318,03;   46,533;   39,063;   70,012;24,13435
 318,62;   80,953;   73,061;   94,820;36,26882
 319,22;   41,801;    7,668;   66,973;57,55573
 319,82;   52,569;   40,768;   93,516;22,37399
 320,41;   81,240;   59,069;   98,732;55,89888
 321,01;   95,474;   80,465;  115,945;42,30180
 321,60;   76,749;   81,164;  102,790;-20,41552
 322,20;   92,854;   67,673;  132,855;38,63221
 322,80;   80,692;   54,567;   91,797;70,17267
 323,39;   64,903;   65,764;   94,828;-2,96284
 323,99;   75,044;   61,766;  102,661;32,46877
 324,59;   70,633;   73,063;   97,512;-9,94234
 325,18;   65,215;   40,967;   92,178;47,34911
 325,78;   86,535;   76,365;  108,885;31,27279
 326,37;   89,508;   74,868;  108,075;44,08765
 326,97;   88,792;   63,267;  111,497;52,92383
 327,57;   45,855;   42,263;   76,493;10,49436
 328,16;   58,910;   60,864;   93,631;-5,96239
 328,76;   82,660;   50,467;  110,140;53,95002
 329,35;   86,458;   56,871;  137,484;36,70336
 329,95;   58,149;   27,470;   91,308;48,05827
 330,54;   71,976;   52,167;   94,018;47,33251
 331,14;   61,799;   26,967;   82,599;62,61123
 331,74;   73,774;   54,165;   96,145;46,70959
 332,33;   65,327;   35,370;  108,127;41,17353
 332,93;   59,787;   43,764;   79,250;45,15388
 333,52;   67,806;   42,466;   93,102;50,04294
 334,12;   92,979;   72,069;  140,392;30,60466
 334,71;   59,267;   50,666;   87,942;23,07384
 335,31;   88,538;   63,267;  119,859;44,65433
 335,90;   34,723;   32,362;   53,836;10,99526
 336,50;   49,619;   30,665;   77,207;40,72527
 337,10;   70,533;   38,769;  121,530;38,38079
 337,69;   54,519;   51,765;   93,707; 6,56721
 338,29;   60,653;   30,467;  101,037;42,77498
 338,88;   50,024;   22,468;   99,854;35,60865
 339,48;   80,285;   57,862;  111,677;41,66650
 340,07;   78,183;   48,566;  107,321;50,40750
 340,67;   72,658;   31,171;  124,784;44,31827
 341,26;   71,367;   48,466;   98,942;45,36992
 341,86;   85,111;   61,469;  138,348;30,75104
 342,45;   78,772;   45,669;  142,689;34,11945
 343,05;   69,872;   27,269;  115,689;48,18225
 343,64;   83,322;   47,366;  122,480;47,86759
 344,24;   59,719;   28,765;   92,107;48,86859
 344,83;   71,680;   71,365;  121,747; 0,62702
 345,43;   59,660;   29,667;  114,240;35,46479
 346,02;   56,217;   41,469;  124,351;17,79454
 346,62;   83,520;   40,971;  140,424;42,78289
 347,21;   63,135;   42,165;  131,985;23,34662
 347,81;   70,968;   26,172;  140,560;39,16135
 348,40;   50,810;   29,064;  100,731;30,34337
 349,00;   64,033;   49,163;  137,712;16,79218
 349,59;  103,704;   65,870;  177,846;33,78738
 350,19;   73,220;   32,571;  139,424;38,04191
 350,78;   74,738;   55,467;  140,759;22,59386
 351,38;   46,517;   15,869;  140,951;24,50269
 351,97;   67,560;   26,767;  136,040;37,33185
 352,57;   67,227;   42,570;  155,827;21,77052
 353,16;   52,103;   30,564;  134,328;20,75754
 353,76;   78,304;   38,770;  169,846;30,16094
 354,35;   66,211;   27,669;  160,148;29,09223
 354,95;   77,088;   43,970;  182,067;23,98167
 355,54;   75,001;   38,368;  163,973;29,16539
 356,14;   73,911;   40,069;  164,749;27,14258
 356,73;   56,985;   29,162;  145,176;23,98201
 357,32;   61,640;   13,769;  164,432;31,77377
 357,92;   68,306;   17,772;  181,419;30,88007
 358,51;   95,045;   43,372;  214,179;30,25228
 359,11;   80,368;   36,772;  212,360;24,82852
 359,70;   69,581;   28,470;  189,965;25,45643
 360,30;   81,430;   54,562;  188,039;20,12969
 360,89;   59,724;   31,168;  188,054;18,20176
 361,48;   98,988;   55,570;  216,467;26,98493
 362,08;   65,431;   19,867;  187,156;27,23634
 362,67;   64,555;   39,763;  192,693;16,21148
 363,27;  112,915;   60,767;  247,678;27,89984
 363,86;   93,874;   35,765;  215,745;32,28616
 364,46;  104,910;   44,664;  257,231;28,34221
 365,05;  108,218;   64,659;  254,989;22,88630
 365,64;  112,989;   50,960;  269,706;28,35675
 366,24;  122,386;   38,558;  309,432;30,94738
 366,83;  159,575;   43,255;  335,383;39,81805
 367,43;  170,160;   51,545;  352,843;39,36805
 368,02;  177,724;   34,646;  399,757;39,18744
 368,61;  206,759;   62,239;  475,425;34,97704
 369,21;  193,654;   32,419;  445,299;39,05137
 369,80;  242,982;   43,007;  526,947;41,32239
 370,39;  288,573;   62,006;  604,971;41,72780
 370,99;  295,764;   42,089;  615,416;44,24624
 371,58;  289,735;   22,974;  630,953;43,87676
 372,18;  347,293;   37,166;  701,603;46,67527
 372,77;  343,039;   42,449;  679,385;47,19311
 373,36;  330,327;   42,747;  690,836;44,37365
 373,96;  326,119;   35,135;  639,498;48,14722
 374,55;  325,793;   29,844;  621,406;50,02845
 375,14;  305,601;   42,849;  573,826;49,48455
 375,74;  294,442;   69,157;  543,276;47,51661
 376,33;  250,130;   45,964;  464,589;48,77053
 376,92;  231,234;   33,278;  447,997;47,73245
 377,52;  317,316;   86,103;  548,460;50,00746
 378,11;  243,784;   46,703;  457,203;48,01011
 378,71;  283,697;   73,011;  514,270;47,74646
 379,30;  289,559;   59,517;  553,928;46,52844
 379,89;  302,938;   59,813;  556,103;48,98846
 380,49;  292,591;   31,018;  568,185;48,69487
 381,08;  343,951;   70,306;  570,990;54,65413
 381,67;  331,930;   55,008;  555,483;55,33195
 382,26;  326,251;   41,706;  539,390;57,17372
 382,86;  308,339;   54,003;  516,041;55,04652
 383,45;  357,745;   50,412;  562,105;60,06183
 384,04;  325,867;   38,712;  553,886;55,73942
 384,64;  347,870;   49,014;  566,760;57,72249
 385,23;  357,728;   64,406;  560,509;59,12515
 385,82;  374,034;   59,615;  592,774;58,97276
 386,42;  433,069;   61,024;  659,022;62,21508
 387,01;  391,092;   55,414;  580,541;63,92334
 387,60;  405,762;   69,009;  590,140;64,61977
 388,20;  389,445;   37,712;  590,805;63,59368
 388,79;  466,907;   72,418;  665,563;66,50789
 389,38;  394,551;   32,106;  564,890;68,02839
 389,97;  447,156;   45,415;  640,955;67,45834
 390,57;  466,186;   71,114;  654,038;67,77409
 391,16;  478,086;   62,514;  655,838;70,04123
 391,75;  482,976;   52,713;  638,562;73,44267
 392,34;  521,641;   60,821;  696,694;72,47048
 392,94;  520,984;   44,718;  689,683;73,84372
 393,53;  528,988;   41,016;  666,612;78,00121
 394,12;  550,398;   53,023;  719,105;74,67173
 394,72;  565,115;   54,213;  706,122;78,37017
 395,31;  556,334;   42,115;  694,874;78,77620
 395,90;  579,907;   42,924;  732,881;77,82851
 396,49;  657,051;   58,028;  779,187;83,06389
 397,09;  622,097;   47,417;  749,188;81,89007
 397,68;  665,862;   44,025;  800,719;82,17813
 398,27;  693,203;   54,626;  809,652;84,57683
 398,86;  682,417;   43,125;  807,657;83,61867
 399,45;  721,263;   56,630;  844,037;84,40779
 400,05;  699,032;   23,820;  799,518;87,04572
 400,64;  745,861;   56,419;  831,001;89,00825
 401,23;  755,686;   53,920;  859,956;87,06391
 401,82;  785,686;   67,220;  868,256;89,69216
 402,42;  794,980;   62,921;  873,953;90,26257
 403,01;  820,962;   81,525;  912,919;88,93941
 403,60;  857,472;   68,532;  940,513;90,47678
 404,19;  839,885;   76,024;  931,900;89,24897
 404,78;  847,489;   57,522;  909,929;92,67482
 405,38;  898,865;   68,332;  984,210;90,68163
 405,97;  865,626;   63,226;  953,933;90,08572
 406,56;  904,267;   71,528; 1004,366;89,26942
 407,15;  915,276;   68,829;  989,442;91,94389
 407,74;  939,847;   80,730; 1026,758;90,81301
 408,34;  926,643;   50,933; 1018,629;90,49428
 408,93;  953,356;   59,531; 1016,234;93,42762
 409,52;  960,077;   51,435; 1041,359;91,78902
 410,11; 1024,533;   84,931; 1090,453;93,44422
 410,70;  967,119;   54,727; 1027,230;93,81891
 411,29;  982,490;   58,628; 1030,847;95,02609
 411,89; 1019,593;   60,535; 1093,938;92,80581
 412,48;  983,928;   48,228; 1051,606;93,25498
 413,07; 1031,613;   65,033; 1101,446;93,26209
 413,66; 1056,016;   78,135; 1102,119;95,49764
 414,25; 1051,095;   63,337; 1142,311;91,54605
 414,84; 1051,856;   69,431; 1102,434;95,10377
 415,44; 1060,069;   91,530; 1155,939;90,99315
 416,03; 1052,741;   76,637; 1161,173;90,00195
 416,62; 1075,905;   76,138; 1168,687;91,50769
 417,21; 1060,906;   75,334; 1158,843;90,96116
 417,80; 1050,234;   65,037; 1162,871;89,74008
 418,39; 1060,268;   78,440; 1179,201;89,19541
 418,98; 1028,052;   55,634; 1143,405;89,39545
 419,58; 1036,897;   64,033; 1142,067;90,24429
 420,17; 1042,100;   52,735; 1164,540;88,98721
 420,76; 1063,441;   72,537; 1192,873;88,44700
 421,35; 1014,531;   60,236; 1155,197;87,15336
 421,94; 1060,368;   88,340; 1223,501;85,62912
 422,53; 1025,546;   61,540; 1195,320;85,02581
 423,12; 1030,320;   64,039; 1190,766;85,76006
 423,71; 1014,793;   60,835; 1162,138;86,62084
 424,30; 1032,325;   85,236; 1210,695;84,15134
 424,90; 1009,189;   39,438; 1163,809;86,24830
 425,49; 1031,330;   70,140; 1216,242;83,86602
 426,08; 1039,730;   80,240; 1209,641;84,95560
 426,67;  991,570;   57,436; 1168,257;84,09404
 427,26; 1041,141;   60,343; 1230,391;83,82550
 427,85; 1016,227;   63,238; 1209,968;83,10493
 428,44; 1058,448;   68,442; 1218,093;86,11360
 429,03; 1060,294;   85,341; 1233,155;84,93991
 429,62; 1047,855;   78,941; 1240,296;83,42961
 430,21; 1072,712;   81,443; 1277,807;82,85677
 430,80; 1069,714;   70,445; 1235,381;85,77894
 431,39; 1069,489;   53,344; 1246,926;85,13408
 431,99; 1064,093;   78,535; 1206,838;87,34869
 432,58; 1094,620;   82,639; 1251,166;86,60320
 433,17; 1099,615;   69,735; 1238,319;88,13064
 433,76; 1139,056;   71,347; 1288,314;87,73524
 434,35; 1162,837;   88,245; 1292,462;89,23578
 434,94; 1190,858;   70,849; 1318,887;89,74158
 435,53; 1168,657;   78,643; 1278,669;90,83254
 436,12; 1178,251;   70,044; 1294,267;90,52329
 436,71; 1214,723;   87,740; 1303,239;92,71772
 437,30; 1206,478;   76,941; 1299,177;92,41558
 437,89; 1264,198;   76,245; 1320,802;95,45191
 438,48; 1241,703;   65,942; 1305,731;94,83553
 439,07; 1273,243;   95,238; 1347,147;94,09674
 439,66; 1320,749;   83,648; 1375,711;95,74618
 440,25; 1301,951;   85,844; 1390,567;93,20804
 440,84; 1321,451;   79,850; 1387,984;94,91390
 441,43; 1336,582;   78,054; 1440,985;92,33975
 442,02; 1340,706;   79,650; 1411,022;94,71850
 442,61; 1378,689;   93,344; 1397,226;98,57832
 443,20; 1397,013;   94,249; 1446,625;96,33148
 443,79; 1365,824;   74,546; 1412,957;96,47845
 444,38; 1428,365;   84,248; 1461,789;97,57361
 444,97; 1448,430;   84,146; 1466,359;98,70290
 445,56; 1460,046;  101,846; 1477,038;98,76445
 446,15; 1469,477;   81,651; 1522,539;96,31739
 446,74; 1461,428;   58,644; 1462,286;99,93889
 447,33; 1459,524;   82,646; 1538,357;94,58458
 447,92; 1494,299;   78,151; 1570,720;94,87993
 448,51; 1503,769;   89,746; 1586,019;94,50303
 449,10; 1518,853;   92,045; 1608,840;94,06729
 449,69; 1539,583;   73,950; 1627,741;94,32626
 450,28; 1514,910;   66,948; 1608,251;93,94400
 450,87; 1530,833;   78,647; 1656,333;92,04533
 451,46; 1574,142;   96,048; 1702,208;92,02655
 452,05; 1578,151;   70,950; 1715,384;91,65470
 452,64; 1571,945;   70,850; 1725,182;90,73721
 453,23; 1623,370;  113,752; 1794,936;89,79491
 453,82; 1595,161;   83,451; 1800,660;88,03293
 454,40; 1599,545;   65,450; 1786,682;89,12771
 454,99; 1633,995;  101,253; 1871,891;86,56441
 455,58; 1611,178;   69,747; 1832,095;87,46466
 456,17; 1663,963;   63,852; 1873,634;88,41459
 456,76; 1659,799;   67,751; 1918,820;86,00697
 457,35; 1673,465;   78,348; 1930,490;86,12284
 457,94; 1669,950;   66,954; 1978,929;83,83980
 458,53; 1693,022;   67,350; 2010,101;83,67886
 459,12; 1761,116;   82,657; 2111,116;82,74552
 459,71; 1748,287;   58,148; 2060,071;84,42582
 460,30; 1823,749;   84,448; 2087,511;86,83206
 460,89; 1804,499;   57,551; 2129,920;84,29718
 461,48; 1875,650;   75,954; 2173,829;85,78661
 462,06; 1915,129;   68,050; 2187,303;87,15704
 462,65; 1870,619;   48,249; 2176,527;85,62651
 463,24; 1979,668;   87,456; 2288,680;85,96179
 463,83; 1967,929;   54,450; 2229,803;87,96173
 464,42; 2035,358;   88,349; 2333,687;86,71341
 465,01; 2069,344;   73,050; 2336,482;88,19768
 465,60; 2082,506;   64,050; 2384,322;86,99220
 466,19; 2156,550;   73,354; 2462,829;87,18216
 466,77; 2160,376;   81,551; 2462,939;87,29471
 467,36; 2208,777;   69,457; 2459,256;89,51883
 467,95; 2249,115;   79,551; 2466,098;90,90807
 468,54; 2317,504;   71,954; 2513,866;91,95867
 469,13; 2333,231;   69,452; 2535,977;91,78011
 469,72; 2376,336;   67,555; 2582,723;91,79430
 470,31; 2440,614;   87,855; 2629,242;92,57772
 470,90; 2440,490;   76,750; 2652,044;91,78525
 471,48; 2463,554;   32,057; 2671,875;92,10852
 472,07; 2545,417;  125,747; 2686,454;94,49226
 472,66; 2560,379;   67,853; 2748,412;92,98530
 473,25; 2554,376;   68,351; 2723,339;93,63604
 473,84; 2578,920;   55,955; 2766,545;93,07809
 474,43; 2612,457;   55,459; 2843,049;91,72792
 475,01; 2644,843;   69,254; 2885,926;91,44085
 475,60; 2628,897;   49,755; 2882,364;91,05183
 476,19; 2662,487;   74,158; 2956,932;89,78603
 476,78; 2690,777;   71,057; 2964,456;90,54127
 477,37; 2655,498;   59,355; 2945,364;89,95615
 477,95; 2690,291;   75,656; 3018,661;88,84234
 478,54; 2686,195;   63,253; 3023,691;88,59981
 479,13; 2670,495;   56,253; 3070,291;86,73554
 479,72; 2687,127;   81,154; 3090,147;86,60614
 480,31; 2694,734;   63,459; 3167,468;84,77023
 480,89; 2664,743;   60,254; 3171,026;83,72484
 481,48; 2653,705;   46,260; 3214,084;82,31027
 482,07; 2640,604;   61,654; 3233,866;81,29816
 482,66; 2614,234;   52,853; 3253,650;80,02321
 483,25; 2683,105;   78,960; 3319,884;80,35193
 483,83; 2645,481;   59,954; 3325,385;79,17873
 484,42; 2624,250;   54,354; 3355,129;77,85735
 485,01; 2639,209;   65,958; 3400,413;77,17156
 485,60; 2653,549;   73,764; 3490,590;75,50236
 486,18; 2610,591;   66,956; 3490,761;74,29262
 486,77; 2627,770;   67,252; 3519,736;74,16450
 487,36; 2666,087;   58,464; 3561,750;74,43364
 487,95; 2662,998;   59,161; 3640,781;72,69997
 488,53; 2678,360;   54,461; 3642,522;73,12859
 489,12; 2694,294;   50,563; 3722,252;72,00312
 489,71; 2678,607;   38,062; 3680,357;72,49674
 490,30; 2714,182;   61,460; 3742,503;72,06441
 490,88; 2790,437;   87,561; 3859,141;71,66428
 491,47; 2765,733;   60,663; 3867,512;71,05797
 492,06; 2782,539;   62,563; 3920,615;70,50130
 492,65; 2800,714;   59,161; 3947,060;70,51503
 493,23; 2804,066;   54,860; 3982,825;69,99060
 493,82; 2849,156;   65,853; 4018,031;70,42454
 494,41; 2835,491;   51,361; 4066,179;69,34637
 494,99; 2877,420;   73,655; 4126,945;69,17258
 495,58; 2935,782;   86,060; 4224,403;68,86142
 496,17; 2920,668;   56,356; 4198,681;69,14745
 496,76; 2973,591;   65,356; 4276,761;69,05617
 497,34; 2976,793;   54,557; 4305,235;68,74753
 497,93; 2990,655;   66,057; 4350,675;68,25806
 498,52; 3034,712;   60,059; 4454,387;67,69301
 499,10; 3045,046;   75,862; 4533,217;66,61314
 499,69; 3065,889;   55,360; 4537,006;67,17463
 500,28; 3051,534;   37,959; 4592,068;66,17267
 500,86; 3068,430;   62,862; 4698,539;64,83559
 501,45; 3087,530;   53,462; 4730,438;64,87243
 502,04; 3099,607;   53,362; 4813,958;63,98875
 502,62; 3125,568;   70,956; 4856,181;63,83425
 503,21; 3092,045;   57,856; 4939,699;62,15254
 503,80; 3149,885;   69,662; 5015,577;62,27812
 504,38; 3159,366;   58,460; 5081,425;61,73458
 504,97; 3141,985;   49,962; 5122,776;60,95280
 505,56; 3087,918;   70,859; 5194,989;58,87945
 506,14; 3110,726;   64,064; 5263,709;58,59365
 506,73; 3041,019;   23,565; 5292,507;57,26869
 507,32; 3076,874;   62,865; 5376,045;56,72702
 507,90; 3078,005;   70,860; 5443,284;55,97370
 508,49; 3036,558;   58,865; 5500,366;54,72190
 509,08; 3058,510;   67,264; 5571,931;54,34018
 509,66; 3054,844;   69,960; 5677,644;53,22846
 510,25; 3038,676;   63,561; 5737,400;52,43565
 510,83; 3037,419;   45,165; 5855,607;51,49788
 511,42; 3008,063;   61,968; 5895,913;50,49918
 512,01; 3021,803;   59,164; 5980,328;50,03474
 512,59; 2974,585;   46,562; 6041,676;48,84015
 513,18; 3011,391;   59,961; 6114,379;48,74837
 513,77; 2959,639;   42,257; 6171,797;47,59545
 514,35; 2981,101;   37,763; 6190,255;47,83977
 514,94; 3001,946;   58,662; 6323,517;46,98088
 515,52; 3001,567;   48,166; 6358,342;46,80378
 516,11; 3008,880;   80,665; 6474,047;45,80073
 516,69; 2972,873;   41,959; 6446,727;45,76144
 517,28; 3007,448;   83,358; 6541,973;45,27426
 517,87; 2976,771;   45,558; 6604,054;44,69337
 518,45; 3004,525;   74,858; 6626,192;44,71864
 519,04; 2978,041;   54,258; 6707,970;43,94213
 519,62; 3014,539;   55,863; 6774,114;44,03938
 520,21; 3023,106;   24,466; 6828,002;44,07472
 520,79; 3094,308;   52,068; 7000,875;43,78076
 521,38; 3091,321;   52,960; 6995,363;43,76526
 521,97; 3161,324;   43,068; 7141,554;43,92847
 522,55; 3180,080;   67,759; 7195,230;43,66656
 523,14; 3203,718;   26,759; 7180,289;44,41107
 523,72; 3309,659;   77,561; 7383,422;44,23981
 524,31; 3353,119;   71,665; 7406,107;44,74034
 524,89; 3462,869;   48,468; 7526,815;45,65717
 525,48; 3523,822;   21,666; 7603,580;46,19091
 526,06; 3636,803;   56,264; 7633,128;47,25621
 526,65; 3788,442;   72,370; 7803,105;48,06881
 527,23; 3919,962;   46,262; 7840,596;49,69892
 527,82; 4131,515;   37,967; 7905,978;52,02773
 528,41; 4295,583;   67,366; 8041,021;53,02734
 528,99; 4508,658;   66,365; 8108,167;55,24002
 529,58; 4641,423;   42,562; 8168,736;56,59319
 530,16; 4867,091;   49,461; 8315,379;58,28306
 530,75; 5156,964;   73,964; 8417,069;60,92456
 531,33; 5304,521;   45,566; 8440,980;62,64081
 531,92; 5521,543;   48,560; 8567,344;64,24607
 532,50; 5733,388;   87,770; 8706,468;65,50430
 533,09; 5856,313;   65,665; 8807,204;66,24288
 533,67; 5991,402;   63,458; 8952,011;66,69189
 534,26; 6159,428;   65,760; 9007,665;68,14731
 534,84; 6287,414;   68,461; 9127,061;68,65248
 535,42; 6429,665;   61,564; 9205,969;69,63931
 536,01; 6574,339;   79,263; 9330,215;70,20982
 536,59; 6639,906;   43,366; 9482,202;69,88722
 537,18; 6732,889;   77,360; 9568,605;70,12282
 537,76; 6829,829;   56,972; 9764,700;69,76768
 538,35; 6900,286;   59,368; 9892,694;69,56870
 538,93; 7022,903;   72,664; 9941,828;70,42379
 539,52; 7106,842;   57,370;10111,405;70,11585
 540,10; 7200,433;   63,269;10309,029;69,65968
 540,69; 7259,571;   68,763;10444,071;69,30693
 541,27; 7285,946;   58,262;10514,917;69,12042
 541,85; 7462,128;   47,366;10658,783;69,87533
 542,44; 7458,205;   56,460;10765,484;69,11689
 543,02; 7634,633;   80,369;10952,729;69,48136
 543,61; 7724,776;   77,067;11102,218;69,36603
 544,19; 7751,189;   55,066;11264,023;68,66048
 544,78; 7818,244;   62,766;11296,562;69,03702
 545,36; 7943,656;   77,469;11521,011;68,73909
 545,94; 7962,165;   54,564;11563,069;68,71093
 546,53; 8005,752;   52,771;11724,882;68,13661
 547,11; 8167,602;   90,668;11879,873;68,51126
 547,70; 8147,689;   75,860;11954,706;67,95129
 548,28; 8255,258;   47,965;12093,066;68,13801
 548,86; 8336,158;   81,365;12327,767;67,40587
 549,45; 8380,324;   33,768;12364,953;67,68657
 550,03; 8469,054;   76,467;12507,537;67,51299
 550,62; 8632,267;   63,566;12662,842;68,00947
 551,20; 8727,076;   61,467;12808,418;67,98182
 551,78; 8746,887;   61,164;12952,850;67,37461
 552,37; 8800,465;   55,864;13112,469;66,97454
 552,95; 8905,381;   56,765;13214,547;67,25006
 553,54; 9048,919;   49,965;13393,207;67,44204
 554,12; 9130,893;   67,167;13498,797;67,48046
 554,70; 9302,401;   67,568;13736,973;67,55842
 555,29; 9334,935;   61,965;13856,285;67,22310
 555,87; 9395,965;   60,170;13987,786;67,03082
 556,45; 9498,907;   57,162;14154,058;66,97748
 557,04; 9537,599;   43,667;14376,600;66,23858
 557,62; 9707,699;   68,867;14525,499;66,67412
 558,20; 9772,690;   42,671;14799,940;65,93374
 558,79; 9952,108;  100,368;14905,875;66,54105
 559,37; 9953,676;   49,867;15000,418;66,24377
 559,95;10014,879;   46,669;15169,691;65,91414
 560,54;10146,663;   71,768;15324,613;66,05256
 561,12;10253,044;   50,866;15485,562;66,09899
 561,70;10377,617;   50,369;15679,551;66,07670
 562,29;10427,985;   61,768;15810,994;65,82049
 562,87;10515,924;   73,168;16023,953;65,46860
 563,45;10643,824;   71,068;16194,754;65,57282
 564,04;10668,062;   54,362;16227,195;65,62672
 564,62;10744,340;   37,769;16438,332;65,28173
 565,20;10822,430;   59,962;16715,838;64,61664
 565,78;11022,496;   70,765;16797,326;65,47509
 566,37;10992,528;   71,066;17011,283;64,47062
 566,95;11165,633;   52,969;17124,330;65,09536
 567,53;11266,508;   67,262;17308,857;64,95481
 568,12;11293,558;   62,265;17367,766;64,90013
 568,70;11402,842;   85,264;17565,889;64,74355
 569,28;11496,417;   61,069;17745,252;64,66427
 569,86;11542,037;   67,767;17910,758;64,30688
 570,45;11644,472;   78,569;18124,689;64,09080
 571,03;11769,169;   53,962;18259,898;64,34828
 571,61;11825,520;   46,571;18424,824;64,09177
 572,19;11856,178;   54,263;18395,773;64,34538
 572,78;11929,308;   70,668;18668,975;63,76193
 573,36;12115,064;   84,264;18797,668;64,28975
 573,94;12106,787;   44,064;18892,750;63,99769
 574,52;12165,935;   54,559;19030,768;63,82400
 575,11;12234,110;   37,264;19159,830;63,78248
 575,69;12312,621;   53,566;19268,680;63,79902
 576,27;12371,698;   47,161;19391,381;63,71173
 576,85;12488,364;   43,264;19549,668;63,80007
 577,44;12586,707;   30,262;19814,158;63,46801
 578,02;12618,212;   32,159;19753,887;63,81821
 578,60;12710,849;   50,464;20073,791;63,22818
 579,18;12924,994;   51,963;20160,752;64,01694
 579,76;12936,503;   40,264;20300,129;63,65412
 580,35;13005,149;   60,170;20436,707;63,52885
 580,93;13095,131;   59,667;20641,557;63,33463
 581,51;13144,688;   24,770;20697,168;63,46587
 582,09;13228,101;   58,663;20755,756;63,62941
 582,67;13289,977;   49,567;20971,318;63,28538
 583,26;13440,463;   28,568;21227,014;63,26829
 583,84;13478,025;   14,164;21413,709;62,91658
 584,42;13615,941;   48,064;21513,287;63,20865
 585,00;13648,521;   81,366;21772,180;62,54793
 585,58;13866,999;   25,167;21912,299;63,24187
 586,17;13802,260;   46,761;21948,521;62,80545
 586,75;13808,905;    6,666;22026,902;62,67980
 587,33;13857,015;   47,767;22191,678;62,36138
 587,91;13925,605;   74,866;22390,201;62,06826
 588,49;13883,707;   63,962;22349,758;62,01145
 589,07;13896,970;   45,468;22403,215;61,95393
 589,65;13744,061;   28,267;22444,439;61,18705
 590,24;13731,769;   42,562;22447,799;61,09825
 590,82;13606,714;   28,261;22484,160;60,46720
 591,40;13545,025;   41,464;22520,209;60,07258
 591,98;13390,173;   45,759;22558,227;59,27566
 592,56;13293,514;   61,161;22699,961;58,44989
 593,14;13016,073;   43,359;22728,928;57,18487
 593,72;12850,119;   29,765;22889,107;56,08365
 594,30;12554,111;   36,759;22797,486;54,99540
 594,89;12337,303;   41,364;22862,428;53,87978
 595,47;12054,859;   38,961;22922,623;52,50863
 596,05;11724,599;   30,267;23003,799;50,90350
 596,63;11424,898;   31,167;23056,199;49,48411
 597,21;11176,667;   36,766;23145,441;48,20658
 597,79;10904,960;   35,467;23166,039;46,99189
 598,37;10708,811;   36,669;23222,748;46,02823
 598,95;10592,206;   50,766;23305,301;45,33069
 599,53;10451,438;   46,757;23207,996;44,92282
 600,11;10576,080;   48,665;23341,947;45,19507
 600,70;10550,433;   57,363;23315,111;45,11645
 601,28;10757,826;   38,564;23424,809;45,83576
 601,86;10920,605;   61,766;23355,102;46,61780
 602,44;11158,914;   23,661;23449,660;47,53374
 603,02;11378,329;   38,656;23576,521;48,17630
 603,60;11681,286;   54,858;23663,232;49,24705
 604,18;11862,217;   69,263;23594,734;50,12845
 604,76;12049,900;   59,263;23642,154;50,84465
 605,34;12108,651;   27,565;23530,764;51,40188
 605,92;12230,253;   59,561;23453,719;52,02449
 606,50;12284,568;   17,662;23498,998;52,24109
 607,08;12307,821;   31,666;23394,881;52,54480
 607,66;12507,967;   39,266;23561,643;53,00783
 608,24;12435,537;   46,067;23522,059;52,77507
 608,82;12455,310;   26,164;23532,031;52,87678
 609,40;12325,583;   46,466;23471,021;52,41985
 609,98;12190,003;   18,864;23505,928;51,82061
 610,56;12282,621;   43,861;23497,662;52,18242
 611,14;12073,435;   30,765;23481,086;51,35396
 611,72;11976,357;   42,665;23572,467;50,71735
 612,30;11830,462;   24,962;23468,496;50,35717
 612,88;11702,979;   60,659;23517,730;49,63246
 613,46;11388,369;   21,862;23505,697;48,40141
 614,04;11241,401;   30,068;23461,873;47,84665
 614,62;10964,398;   41,561;23489,982;46,58240
 615,20;10764,170;   52,768;23402,416;45,87393
 615,78;10541,434;   25,569;23463,430;44,86700
 616,36;10330,787;   41,364;23400,150;44,04948
 616,94;10133,967;    7,666;23272,242;43,52669
 617,52; 9971,031;   24,067;23373,656;42,60017
 618,10; 9902,596;   63,559;23336,107;42,27744
 618,68; 9844,429;   17,966;23253,184;42,29125
 619,26; 9867,847;   39,268;23398,834;42,07518
 619,84; 9801,217;   18,963;23277,133;42,05943
 620,42; 9770,619;   31,165;23313,506;41,83194
 621,00; 9869,520;   28,865;23209,607;42,45185
 621,58;10028,688;   38,760;23216,406;43,10157
 622,16;10103,381;   49,270;23335,164;43,17683
 622,74;10215,167;   47,066;23327,742;43,67614
 623,32;10254,489;   42,166;23291,223;43,92575
 623,90;10385,358;   66,971;23311,484;44,39064
 624,48;10350,568;   32,662;23196,598;44,54298
 625,05;10453,469;   34,562;23105,098;45,16110
 625,63;10523,769;   52,962;23188,799;45,25796
 626,21;10444,062;   38,262;23117,596;45,08709
 626,79;10534,276;   53,967;23219,719;45,24053
 627,37;10410,646;   28,162;23090,717;45,01880
 627,95;10495,770;   72,768;23200,215;45,06767
 628,53;10390,619;   49,365;23176,607;44,71460
 629,11;10284,857;   48,259;23043,449;44,51626
 629,69;10295,440;   53,369;23256,932;44,14008
 630,27;10209,017;   80,763;23105,434;43,98870
 630,84;10089,969;   43,862;23021,197;43,72181
 631,42;10167,131;   54,367;23319,656;43,46717
 632,00;10025,734;   45,459;23125,768;43,24152
 632,58; 9921,771;   50,263;23105,172;42,81738
 633,16; 9950,543;   49,870;23096,906;42,95855
 633,74; 9844,342;   56,264;23018,488;42,62687
 634,32; 9795,337;   45,661;23007,842;42,45971
 634,90; 9846,504;   51,970;23195,746;42,32038
 635,47; 9671,443;   38,860;23035,645;41,88665
 636,05; 9720,837;   37,461;22989,342;42,18990
 636,63; 9660,119;   45,965;23104,807;41,69400
 637,21; 9690,503;   67,464;23150,529;41,68874
 637,79; 9611,513;   71,465;23192,904;41,26061
 638,37; 9521,475;   54,055;23070,883;41,13260
 638,94; 9491,235;   33,265;23100,686;41,00142
 639,52; 9470,235;   41,665;23195,285;40,72180
 640,10; 9487,613;   64,264;23215,900;40,70274
 640,68; 9409,382;   54,164;23175,334;40,46170
 641,26; 9455,250;   35,864;23250,268;40,57561
 641,84; 9331,419;   39,164;23235,002;40,06001
 642,41; 9296,787;   28,264;23192,936;40,01146
 642,99; 9371,356;   48,464;23145,568;40,36390
 643,57; 9315,425;   22,064;23158,402;40,16781
 644,15; 9320,693;   27,064;23178,035;40,14358
 644,73; 9359,762;   37,564;23277,568;40,11272
 645,30; 9362,430;   55,264;23230,303;40,16030
 645,88; 9422,999;   44,964;23362,635;40,21858
 646,46; 9492,167;   59,264;23447,568;40,33171
 647,04; 9581,235;   51,864;23367,902;40,87046
 647,61; 9624,004;   46,564;23396,336;41,01727
 648,19; 9727,772;   61,664;23433,369;41,35816
 648,77; 9703,142;   26,264;23442,002;41,32638
 649,35; 9795,010;   51,064;23590,137;41,39477
 649,92; 9826,078;   42,464;23596,070;41,53765
 650,50; 9781,547;   30,064;23551,104;41,45855
 651,08; 9892,315;   39,964;23450,537;42,08505
 651,66; 9888,484;   21,864;23534,770;41,96257
 652,23; 9879,652;   39,064;23561,004;41,83578
 652,81; 9919,621;   36,464;23644,137;41,86417
 653,39; 9856,489;   56,164;23647,170;41,54263
 653,97; 9883,958;   37,065;23882,504;41,29466
 654,54; 9769,127;   23,565;23823,137;40,94848
 655,12; 9798,795;   30,965;23831,971;41,03957
 655,70; 9776,363;   42,065;23962,805;40,69397
 656,28; 9754,532;   32,765;23947,037;40,65258
 656,85; 9686,501;   44,065;24051,070;40,16509
 657,43; 9574,270;   -1,035;23831,305;40,17778
 658,01; 9676,938;   21,465;24078,539;40,13569
 658,58; 9697,706;   55,165;24234,371;39,87948
 659,16; 9682,275;   51,965;24154,105;39,95625
 659,74; 9665,943;   59,465;24338,039;39,56772
 660,32; 9731,612;   71,665;24327,672;39,82497
 660,89; 9689,681;   34,265;24347,305;39,71291
 661,47; 9763,849;   51,665;24464,939;39,78239
 662,05; 9845,018;   25,365;24587,373;39,97903
 662,62; 9953,586;   59,665;24584,006;40,34327
 663,20;10063,354;   80,665;24740,139;40,48217
 663,78;10166,323;   47,965;24902,773;40,70986
 664,35;10225,492;   52,465;24921,006;40,90721
 664,93;10264,061;   64,465;25123,539;40,70220
 665,51;10330,528;   49,565;25170,973;40,92511
 666,08;10320,697;   30,165;25185,707;40,90761
 666,66;10522,266;   47,465;25667,539;40,88513
 667,23;10509,935;   51,765;25732,773;40,72336
 667,81;10662,803;   65,865;25889,307;41,03612
 668,39;10713,172;   43,265;26047,141;41,03199
 668,96;10766,640;   54,665;26309,074;40,80067
 669,54;10802,209;   38,765;26408,408;40,81756
 670,12;10820,477;   51,165;26808,740;40,24771
 670,69;10922,846;   64,165;26950,674;40,38710
 671,27;10885,714;   25,565;27096,008;40,11811
 671,84;10977,383;   40,665;27105,240;40,40971
 672,42;10992,852;   66,265;27253,875;40,18958
 673,00;11079,220;   57,165;27531,408;40,11777
 673,57;10991,788;   59,965;27276,441;40,16619
 674,15;11126,157;   64,065;27613,475;40,15364
 674,72;11044,726;   58,565;27536,209;39,98218
 675,30;11151,094;   69,466;27513,541;40,37895
 675,88;11157,162;   36,266;27573,176;40,38542
 676,45;11257,431;   59,466;27677,309;40,54612
 677,03;11307,300;   67,866;27525,043;40,93441
 677,60;11386,968;   41,466;27770,576;40,91549
 678,18;11538,337;   59,466;27877,510;41,26412
 678,76;11528,805;   40,766;27809,143;41,37094
 679,33;11721,674;   57,666;27813,176;42,02412
 679,91;11780,542;   44,266;27813,311;42,26388
 680,48;11710,511;   28,766;27740,242;42,15490
 681,06;11783,179;   50,866;27735,176;42,37892
 681,63;11784,647;   37,566;27736,209;42,41031
 682,21;11799,416;   67,966;27797,543;42,30663
 682,78;11737,785;   20,566;27459,576;42,70278
 683,36;11722,554;   46,966;27565,510;42,42807
 683,93;11761,722;   30,466;27450,645;42,78329
 684,51;11711,590;   26,166;27477,277;42,56813
 685,08;11847,759;   38,966;27733,711;42,63911
 685,66;11759,127;   53,066;27694,045;42,35038
 686,24;11779,896;   33,766;27796,578;42,30886
 686,81;11785,664;   57,666;27899,910;42,12303
 687,39;11629,733;   38,866;27807,844;41,74035
 687,96;11669,401;   54,166;27850,479;41,78696
 688,54;11662,970;   30,866;27984,811;41,61167
 689,11;11691,738;   26,966;28043,545;41,63525
 689,69;11708,507;   29,666;28019,279;41,72562
 690,26;11877,775;   59,466;28289,313;41,86459
 690,84;11766,744;   50,066;28239,846;41,56357
 691,41;11817,413;   35,966;28403,879;41,53089
 691,98;11965,281;   31,466;28427,912;42,02573
 692,56;11993,850;   32,866;28437,445;42,10935
 693,13;12221,818;   64,866;28655,080;42,52138
 693,71;12280,287;   24,466;28657,912;42,80247
 694,28;12325,955;   41,966;28715,945;42,84020
 694,86;12484,023;   47,266;28928,879;43,06116
 695,43;12604,792;   61,366;29100,912;43,19429
 696,01;12780,561;   36,266;29145,547;43,78086
 696,58;12821,229;   42,167;29083,879;44,00244
 697,16;12937,798;   38,067;29126,414;44,34673
 697,73;13069,667;   63,467;29338,246;44,42800
 698,30;13135,135;   51,867;29223,980;44,84854
 698,88;13288,704;   40,467;29558,613;44,88167
 699,45;13413,372;   35,367;29765,848;44,99761
 700,03;13455,141;   56,067;29750,980;45,12245
 700,60;13443,509;   56,267;29850,613;44,93216
 701,18;13519,178;   61,867;29963,947;45,00460
 701,75;13606,347;   74,367;30094,682;45,07608
 702,32;13637,115;   50,367;29901,914;45,51439
 702,90;13685,483;   52,467;30254,148;45,13993
 703,47;13719,952;   51,367;30428,881;44,99573
 704,05;13775,320;   67,767;30546,715;44,97384
 704,62;13720,789;   39,867;30587,848;44,78503
 705,19;13820,058;   43,667;30586,982;45,10444
 705,77;13853,026;   29,967;30618,314;45,19061
 706,34;13945,095;   61,667;30627,049;45,42207
 706,91;13992,063;   46,367;30673,883;45,53323
 707,49;14052,632;   57,267;30976,316;45,26454
 708,06;14101,601;   66,367;31089,049;45,24184
 708,64;14138,969;   25,767;31093,582;45,42708
 709,21;14204,638;   58,167;31179,316;45,45613
 709,78;14296,105;   41,367;31281,150;45,63008
 710,36;14356,274;   61,667;31419,684;45,58518
 710,93;14386,743;   50,567;31562,416;45,49456
 711,50;14547,611;   44,467;31506,049;46,09795
 712,08;14721,479;   76,567;31925,383;45,98260
 712,65;14719,448;   73,667;31775,916;46,19792
 713,22;14798,317;   69,067;31900,250;46,27302
 713,80;14869,985;   84,167;31966,883;46,37565
 714,37;14737,454;   55,767;31827,018;46,21060
 714,94;14884,122;   53,967;31727,551;46,82184
 715,52;14904,291;   47,867;31732,984;46,88770
 716,09;14988,859;   65,467;31891,918;46,88990
 716,66;15048,328;   73,467;31935,051;46,99974
 717,23;14993,896;   66,867;31908,484;46,87899
 717,81;15034,766;   50,168;31812,018;47,17798
 718,38;14998,634;   47,468;31671,252;47,27823
 718,95;15104,103;   59,068;31618,984;47,67134
 719,53;15069,271;   56,568;31661,418;47,50126
 720,10;15023,339;   59,968;31481,252;47,62177
 720,67;15085,708;   35,768;31355,984;48,05184
 721,24;14996,977;   59,468;31256,020;47,88192
 721,82;15022,745;   49,968;31236,053;48,01108
 722,39;15096,913;   64,068;31235,885;48,22576
 722,96;15180,982;   64,968;31261,420;48,45427
 723,53;15214,650;   88,268;31151,953;48,69475
 724,11;15392,519;   61,568;31207,486;49,22298
 724,68;15480,888;   71,568;31242,020;49,43566
 725,25;15492,856;   72,768;31399,953;49,22271
 725,82;15765,324;   96,068;31564,387;49,79375
 726,40;15811,993;   62,668;31714,820;49,75752
 726,97;15898,361;   62,168;31875,354;49,77871
 727,54;16006,431;   46,968;31801,486;50,25887
 728,11;16156,398;   49,568;32045,820;50,33974
 728,69;16166,768;   39,568;31938,953;50,55646
 729,26;16252,235;   53,568;32105,088;50,53947
 729,83;16390,705;   53,268;32264,621;50,71950
 730,40;16508,674;   66,768;32291,754;51,02223
 730,97;16605,541;   44,268;32590,588;50,88524
 731,55;16784,109;   41,468;32755,820;51,17828
 732,12;16779,479;   86,268;32841,656;50,96325
 732,69;16695,547;   66,968;32889,988;50,66133
 733,26;16753,516;   55,168;32930,520;50,79291
 733,83;16843,684;   41,168;32979,055;51,01273
 734,41;16907,453;   65,468;32991,590;51,15083
 734,98;16877,721;   51,368;33155,621;50,82837
 735,55;16974,789;   43,168;33183,656;51,09044
 736,12;17132,959;   65,968;33377,289;51,23481
 736,69;17147,127;   76,968;33377,922;51,26027
 737,26;17147,096;   57,468;33552,254;51,02175
 737,84;17183,064;   70,768;33487,188;51,20925
 738,41;17269,332;   63,168;33492,422;51,47038
 738,98;17220,701;   63,569;33375,055;51,50516
 739,55;17269,170;   49,669;33377,789;51,66658
 740,12;17388,639;   62,969;33678,023;51,54140
 740,69;17364,207;   70,569;33575,656;51,61496
 741,26;17536,275;   56,269;33557,391;52,17738
 741,83;17608,744;   53,869;33719,523;52,14476
 742,41;17724,912;   56,169;33833,055;52,31016
 742,98;17787,980;   91,469;33874,590;52,38270
 743,55;17919,049;   53,569;33836,824;52,88265
 744,12;17964,217;   50,469;33859,855;52,98454
 744,69;17950,287;   59,569;33848,492;52,94847
 745,26;18087,955;   42,169;33677,723;53,65093
 745,83;18328,223;   58,769;33854,355;54,05870
 746,40;18383,492;   57,969;33844,789;54,23867
 746,97;18460,461;   44,769;33828,125;54,51114
 747,55;18542,828;   62,269;33966,957;54,50739
 748,12;18554,998;   57,869;33910,191;54,64065
 748,69;18608,066;   68,769;33877,625;54,83562
 749,26;18787,635;   65,069;33958,559;55,23942
 749,83;18747,203;   42,569;33911,992;55,22572
 750,40;18884,072;   89,669;34158,824;55,16545
 750,97;19082,439;   96,269;34144,160;55,76313
 751,54;18980,508;   40,569;33980,793;55,80381
 752,11;18990,678;   52,969;33874,727;55,99268
 752,68;18995,545;   87,869;33912,859;55,89854
 753,25;18971,215;   60,269;33774,594;56,09172
 753,82;19023,883;   65,069;33810,527;56,18182
 754,39;19054,150;   75,169;33727,160;56,39780
 754,96;18959,619;   60,069;33616,395;56,32187
 755,53;19027,088;   29,469;33796,527;56,26080
 756,10;19071,957;   64,169;33720,961;56,47534
 756,67;19052,025;   73,369;33813,395;56,24968
 757,24;19006,895;   72,769;33740,426;56,23832
 757,81;18980,363;   16,469;33677,762;56,33739
 758,38;19006,131;   54,569;33822,695;56,12263
 758,95;19043,199;   79,469;33743,426;56,33245
 759,52;18997,568;   57,469;33615,859;56,43924
 760,09;18941,537;   68,570;33306,992;56,78058
 760,66;18855,506;   59,570;33309,727;56,52886
 761,23;18775,674;   91,070;33353,961;56,17252
 761,80;18952,742;   56,270;33295,793;56,84941
 762,37;18909,410;   68,970;33167,727;56,92190
 762,94;19033,279;   70,970;33187,461;57,25942
 763,51;18901,748;   36,070;32949,793;57,31858
 764,08;18929,316;   66,270;32998,527;57,27833
 764,65;18847,484;   69,570;32798,961;57,37325
 765,22;18773,453;   54,670;32804,496;57,15689
 765,79;18756,723;   77,370;32691,928;57,27305
 766,36;18764,891;   73,170;32743,063;57,21390
 766,93;18842,559;   68,970;32551,295;57,79632
 767,50;18886,027;   89,470;32828,328;57,41360
 768,07;18848,695;   63,870;32699,262;57,55967
 768,64;18844,564;   86,470;32572,596;57,74186
 769,21;18718,434;   57,970;32359,729;57,76919
 769,78;18593,502;   78,770;32244,963;57,55960
 770,34;18522,770;   45,570;32031,195;57,76720
 770,91;18490,139;   58,470;31921,430;57,84669
 771,48;18526,008;   62,370;31836,863;58,10836
 772,05;18380,775;   66,470;31610,697;58,05913
 772,62;18330,244;   42,670;31443,029;58,24002
 773,19;18375,412;   59,370;31579,764;58,10854
 773,76;18314,082;   71,070;31506,297;58,03366
 774,33;18253,650;   74,170;31447,330;57,94596
 774,90;18218,219;   52,870;31206,064;58,30975
 775,47;18199,387;   59,970;30957,498;58,70831
 776,03;18186,656;   73,470;30984,330;58,59813
 776,60;18128,623;   55,970;30757,863;58,86495
 777,17;18088,992;   65,470;30698,098;58,83766
 777,74;17992,160;   30,870;30522,031;58,90655
 778,31;18168,129;   68,970;30582,064;59,31604
 778,88;17976,799;   30,470;30366,898;59,15768
 779,45;17908,166;   75,770;30358,131;58,88707
 780,01;17922,436;   58,370;30299,664;59,07176
 780,58;17817,604;   60,570;30177,998;58,95933
 781,15;17968,072;   38,771;29979,432;59,88279
 781,72;17944,541;   66,771;29962,266;59,80088
 782,29;17827,209;   51,771;29667,100;60,02107
 782,86;17753,678;   55,571;29617,732;59,86743
 783,42;17802,447;   56,171;29598,166;60,07135
 783,99;17699,314;   66,671;29482,100;59,94352
 784,56;17733,084;   55,171;29320,232;60,40621
 785,13;17607,252;   40,271;29247,266;60,14649
 785,70;17478,420;   49,071;29060,299;60,07794
 786,26;17478,590;   51,671;28910,732;60,38630
 786,83;17467,758;   84,371;28889,166;60,34893
 787,40;17350,227;   57,171;28783,500;60,19932
 787,97;17287,594;   43,971;28581,133;60,42515
 788,54;17266,764;   70,371;28515,268;60,45511
 789,10;17138,031;   57,971;28344,400;60,38252
 789,67;17107,900;   70,371;28245,334;60,47046
 790,24;17150,869;   51,071;28193,768;60,76105
 790,81;16841,938;   88,271;27914,400;60,20840
 791,37;16850,906;   73,671;27872,135;60,35310
 791,94;16842,574;   70,771;27886,367;60,29640
 792,51;16672,943;   46,271;27539,201;60,47617
 793,08;16713,512;   69,771;27555,234;60,55470
 793,64;16616,881;   71,271;27455,168;60,42095
 794,21;16570,949;   69,671;27250,602;60,70903
 794,78;16470,316;   53,071;27147,035;60,59374
 795,35;16302,785;   73,471;27007,969;60,25475
 795,91;16265,954;   48,071;26789,301;60,64748
 796,48;16134,423;   55,771;26710,734;60,32142
 797,05;15991,191;   57,671;26624,369;59,97554
 797,62;15999,659;   41,971;26600,701;60,08453
 798,18;15861,628;   57,471;26410,736;59,97039
 798,75;15822,097;   56,571;26279,770;60,12053
 799,32;15817,165;   60,771;26209,102;60,25774
 799,88;15729,334;   55,971;26051,535;60,29245
 800,45;15644,402;   33,971;25945,270;60,24565
 801,02;15678,471;   65,271;25880,104;60,48151
 801,58;15559,939;   90,872;25660,436;60,49797
 802,15;15518,308;   72,872;25615,270;60,46980
 802,72;15357,177;   66,172;25404,703;60,34685
 803,28;15167,245;   49,172;25288,938;59,89784
 803,85;15243,214;   41,972;25144,871;60,55572
 804,42;15060,182;   77,772;24948,004;60,24234
 804,98;15057,150;  100,672;24935,537;60,22372
 805,55;14888,020;   56,972;24702,371;60,17775
 806,12;14860,788;   83,572;24611,004;60,24771
 806,68;14718,156;   66,472;24493,738;59,98086
 807,25;14790,824;   74,972;24436,271;60,40668
 807,82;14666,793;   86,872;24407,805;59,94803
 808,38;14638,562;   73,672;24367,037;59,95419
 808,95;14512,130;   62,972;24166,971;59,94507
 809,52;14422,898;   50,272;24162,004;59,60844
 810,08;14500,468;   55,172;23994,938;60,34017
 810,65;14493,236;   77,172;24169,672;59,83632
 811,21;14390,604;   69,972;24123,404;59,53675
 811,78;14483,073;   92,472;24337,539;59,35476
 812,35;14469,541;   64,972;24173,871;59,74793
 812,91;14457,210;   90,072;24239,705;59,49216
 813,48;14410,078;   68,172;24202,738;59,42475
 814,04;14370,447;   64,172;24088,373;59,54943
 814,61;14325,615;   77,572;24176,006;59,12435
 815,18;14269,884;   67,772;23892,539;59,61071
 815,74;14304,953;   69,772;23709,172;60,21803
 816,31;14245,021;   83,372;23614,406;60,18286
 816,87;14024,989;   43,272;23489,641;59,63276
 817,44;14079,358;   76,972;23452,273;59,90248
 818,00;13927,727;   43,272;23159,506;60,06365
 818,57;13878,396;   71,872;23076,340;60,01670
 819,14;13775,864;   82,872;22924,273;59,94813
 819,70;13769,933;   72,672;22792,707;60,28715
 820,27;13673,801;   62,972;22691,941;60,14781
 820,83;13585,069;   70,072;22541,373;60,14337
 821,40;13443,038;   98,072;22431,908;59,75223
 821,96;13448,507;   75,272;22315,541;60,13072
 822,53;13451,175;   70,973;22257,574;60,30758
 823,09;13254,844;   81,073;22073,309;59,90192
 823,66;13215,112;   68,173;21862,541;60,32265
 824,22;13196,081;   77,173;21851,674;60,24895
 824,79;13145,249;   75,473;21561,408;60,82945
 825,35;13068,218;   65,173;21648,041;60,24707
 825,92;12996,687;   75,173;21398,875;60,59695
 826,48;12924,654;   87,673;21501,309;59,94770
 827,05;12789,823;   89,573;21448,242;59,46181
 827,61;12773,892;   75,273;21249,076;59,97325
 828,18;12587,061;   60,873;21191,209;59,28059
 828,74;12697,829;   91,673;21053,543;60,13851
 829,31;12640,997;   83,373;21002,176;60,03032
 829,87;12516,566;   73,073;20733,709;60,22803
 830,44;12567,935;   85,173;20631,443;60,75439
 831,00;12502,903;   91,273;20673,977;60,30126
 831,57;12392,871;  101,573;20631,609;59,86983
 832,13;12219,440;   72,073;20323,344;59,98324
 832,69;12315,108;   58,173;20309,477;60,52418
 833,26;12209,577;   85,473;20322,711;59,90988
 833,82;12172,546;   93,073;20197,744;60,08292
 834,39;12107,015;   78,773;20137,477;59,96520
 834,95;11971,883;   57,173;19959,410;59,86618
 835,52;11999,052;   87,873;19851,744;60,26744
 836,08;12021,320;   95,573;19951,877;60,06026
 836,64;11945,288;   76,273;19800,711;60,17416
 837,21;11992,257;   88,673;19552,443;61,15765
 837,77;11938,025;   91,873;19491,777;61,06294
 838,34;11825,594;   67,473;19470,012;60,60094
 838,90;11725,463;   64,473;19306,045;60,60310
 839,46;11716,731;   83,873;19312,479;60,49767
 840,03;11695,800;   76,173;19300,811;60,44133
 840,59;11658,868;   85,873;19175,645;60,62406
 841,16;11550,337;  105,173;19156,578;60,07517
 841,72;11475,305;   59,373;18965,512;60,38214
 842,28;11454,374;   77,873;18857,246;60,57977
 842,85;11483,042;   95,573;18812,578;60,84023
 843,41;11424,311;  105,374;18740,813;60,73877
 843,97;11440,180;   89,174;18686,846;61,03455
 844,54;11353,448;  104,774;18624,979;60,73731
 845,10;11251,616;   89,174;18523,713;60,55179
 845,67;11217,985;   68,774;18413,445;60,77629
 846,23;11187,653;   78,674;18361,080;60,76322
 846,79;11096,521;   90,474;18265,613;60,55551
 847,36;10996,391;   55,774;18179,047;60,36778
 847,92;10943,859;   84,874;18034,680;60,49640
 848,48;10898,728;   41,874;18039,213;60,32477
 849,04;10891,696;   62,374;17949,447;60,54273
 849,61;10823,364;   56,274;17918,580;60,27828
 850,17;10826,133;   68,174;17819,514;60,60364
 850,73;10671,401;   71,474;17764,848;59,90902
 851,30;10601,970;   46,074;17669,881;59,89566
 851,86;10532,738;   75,874;17597,914;59,67835
 852,42;10565,308;   51,174;17568,348;60,02186
 852,99;10541,775;   79,274;17583,082;59,77272
 853,55;10506,244;   83,174;17542,514;59,69911
 854,11;10424,813;   70,074;17432,049;59,64033
 854,67;10414,882;   85,474;17420,881;59,58561
 855,24;10389,150;   51,874;17213,414;60,23513
 855,80;10322,719;   76,874;17244,848;59,67999
 856,36;10304,587;   80,574;17175,881;59,80596
 856,92;10248,056;   54,474;17027,215;60,05855
 857,49;10216,624;   81,274;17048,248;59,73575
 858,05;10206,192;   67,274;16968,482;59,98931
 858,61;10234,861;   65,774;17003,316;60,03874
 859,17;10140,229;   77,374;16904,250;59,80228
 859,74;10049,198;   82,074;16836,883;59,48814
 860,30;10032,467;   93,074;16663,016;59,98448
 860,86; 9953,735;   72,074;16692,350;59,45546
 861,42; 9829,504;   74,674;16545,883;59,22352
 861,99; 9806,772;   54,674;16506,717;59,27591
 862,55; 9785,541;   66,374;16393,051;59,52936
 863,11; 9776,510;   75,174;16437,283;59,29147
 863,67; 9769,278;   61,274;16290,117;59,81945
 864,23; 9716,347;   80,175;16199,351;59,78080
 864,80; 9599,715;   69,175;16081,384;59,52046
 865,36; 9669,884;   71,875;16120,817;59,80462
 865,92; 9579,052;   96,175;16088,751;59,29549
 866,48; 9443,320;   67,375;15987,384;58,89410
 867,04; 9390,589;   60,675;15891,418;58,93541
 867,60; 9329,058;   99,375;15884,451;58,47094
 868,17; 9253,326;   93,675;15884,685;58,00548
 868,73; 9164,995;   82,775;15672,618;58,25729
 869,29; 9090,463;   59,475;15470,151;58,60215
 869,85; 9100,731;  100,475;15369,685;58,94383
 870,41; 8980,900;   80,575;15293,418;58,50534
 870,97; 8975,568;   92,975;15232,252;58,67251
 871,54; 8855,237;   84,175;15178,686;58,10763
 872,10; 8898,906;   84,275;15055,419;58,87747
 872,66; 8759,175;   66,775;14910,652;58,55882
 873,22; 8738,743;   81,975;14890,586;58,45767
 873,78; 8564,611;   65,275;14742,419;57,90865
 874,34; 8574,680;   95,075;14662,652;58,20875
 874,90; 8493,980;  109,775;14536,053;58,11759
 875,46; 8445,180;   96,375;14412,952;58,31565
 876,03; 8316,280;   86,475;14363,353;57,64429
 876,59; 8246,180;   64,475;14153,253;58,07249
 877,15; 8231,580;  101,475;14166,853;57,80225
 877,71; 8193,780;   78,275;14064,652;58,02436
 878,27; 8134,680;   95,675;13910,553;58,19093
 878,83; 8133,780;  114,275;13971,753;57,87132
 879,39; 8109,280;   91,075;14082,753;57,30696
 879,95; 8033,180;   86,275;13964,253;57,26270
 880,51; 7960,980;   75,175;13927,253;56,92868
 881,07; 7987,780;   82,375;13978,753;56,88824
 881,63; 8024,780;   92,575;13971,253;57,15389
 882,19; 8024,380;   82,675;13921,553;57,38691
 882,75; 8039,680;   86,275;14019,553;57,08208
 883,31; 8027,680;   95,575;14187,853;56,28689
 883,88; 8053,480;   96,375;14174,353;56,52165
 884,44; 8029,380;   76,175;14175,753;56,40740
 885,00; 8174,380;  106,075;14266,952;56,97602
 885,56; 8155,080;  101,675;14299,452;56,72300
 886,12; 8134,680;  109,875;14421,152;56,07330
 886,68; 8093,880;   90,775;14436,753;55,78640
 887,24; 8164,880;  102,475;14574,952;55,70853
 887,80; 8190,880;   86,975;14671,753;55,56413
 888,36; 8239,580;  106,275;14715,652;55,67181
 888,92; 8220,780;   98,975;14773,353;55,34685
 889,48; 8334,580;   99,575;14973,853;55,36407
 890,04; 8321,480;   95,275;14803,053;55,93099
 890,60; 8460,680;  117,475;15014,652;56,00527
 891,16; 8356,580;   99,875;15075,853;55,13300
 891,72; 8417,680;  113,275;15058,452;55,56578
 892,28; 8497,280;  112,475;15126,053;55,84815
 892,84; 8383,780;   93,775;15039,853;55,46609
 893,39; 8397,280;  117,575;15112,952;55,21505
 893,95; 8295,380;  112,975;15044,753;54,79860
 894,51; 8151,980;   66,375;14891,253;54,54079
 895,07; 8190,480;  127,375;14906,353;54,55794
 895,63; 8031,080;   74,275;14689,952;54,44021
 896,19; 7977,280;   90,375;14601,952;54,34905
 896,75; 7911,880;  105,175;14460,152;54,38326
 897,31; 7845,280;   82,775;14295,853;54,61523
 897,87; 7739,380;   98,175;14146,853;54,39092
 898,43; 7637,280;   87,775;14075,753;53,97138
 898,99; 7580,080;  109,175;14002,753;53,77236
 899,55; 7547,180;  109,475;13940,652;53,77492
 900,11; 7410,180;  104,975;13747,553;53,54710
 900,67; 7268,480;   91,375;13658,652;52,90011
 901,22; 7259,280;  108,375;13601,952;52,99488
 901,78; 7128,680;   91,275;13560,053;52,24977
 902,34; 7092,480;  103,075;13451,152;52,36263
 902,90; 6907,880;   73,575;13350,652;51,47447
 903,46; 6877,980;   95,775;13236,353;51,61269
 904,02; 6814,180;   88,075;13091,553;51,72543
 904,58; 6715,780;   67,075;12918,152;51,73656
 905,14; 6743,980;   63,975;12874,553;52,14445
 905,70; 6633,780;   66,775;12696,053;51,99826
 906,25; 6514,080;   84,375;12708,452;50,93208
 906,81; 6527,380;   87,675;12732,152;50,92899
 907,37; 6444,980;   79,275;12616,152;50,77584
 907,93; 6371,080;   74,775;12588,152;50,31659
 908,49; 6374,880;  101,875;12497,652;50,60598
 909,05; 6308,180;   89,675;12425,553;50,40991
 909,60; 6226,380;   86,575;12340,452;50,10500
 910,16; 6130,880;   67,675;12291,853;49,60010
 910,72; 6139,780;  100,475;12207,753;49,88161
 911,28; 6066,980;   90,875;12156,053;49,53184
 911,84; 5989,980;   79,575;12106,753;49,14208
 912,39; 5886,280;   73,475;12049,353;48,53761
 912,95; 5927,780;  104,475;12001,452;48,94777
 913,51; 5847,680;   85,375;11945,253;48,58655
 914,07; 5744,880;   83,775;11813,452;48,26309
 914,63; 5731,780;   64,775;11748,053;48,50526
 915,18; 5670,580;   77,475;11617,853;48,46553
 915,74; 5599,080;   63,975;11632,652;47,84562
 916,30; 5453,080;   61,475;11588,553;46,77339
 916,86; 5453,480;   83,575;11514,652;46,97637
 917,42; 5374,380;   82,275;11425,152;46,65575
 917,97; 5279,180;   75,375;11265,452;46,50375
 918,53; 5252,080;   67,775;11196,253;46,58593
 919,09; 5218,780;   88,975;11223,753;46,07011
 919,65; 5121,180;   83,375;11083,452;45,79791
 920,20; 5076,580;   61,875;10983,053;45,91726
 920,76; 4943,280;   65,475;10849,452;45,23197
 921,32; 4861,180;   82,675;10770,952;44,70791
 921,87; 4846,880;   97,475;10670,253;44,92107
 922,43; 4742,980;   64,675;10561,353;44,56939
 922,99; 4624,380;   61,875;10406,753;44,10400
 923,55; 4529,180;   63,775;10357,353;43,38050
 924,10; 4530,480;   73,575;10282,853;43,65544
 924,66; 4445,280;   78,675;10170,152;43,27022
 925,22; 4337,580;   43,275;10093,952;42,72652
 925,77; 4279,480;   66,075; 9927,053;42,72807
 926,33; 4264,580;   90,375; 9903,253;42,53803
 926,89; 4172,380;   71,975; 9692,753;42,62030
 927,44; 4072,480;   52,175; 9580,553;42,19296
 928,00; 3986,380;   66,875; 9533,753;41,40230
 928,56; 3951,480;   80,375; 9372,253;41,66117
 929,12; 3895,880;   72,775; 9275,152;41,54475
 929,67; 3783,280;   67,575; 9091,053;41,17819
 930,23; 3697,880;   50,975; 8915,253;41,14159
 930,78; 3713,980;  100,675; 8842,553;41,33328
 931,34; 3598,980;   61,975; 8632,152;41,27108
 931,90; 3429,580;   61,675; 8494,353;39,93874
 932,45; 3384,480;   78,775; 8290,753;40,25467
 933,01; 3221,880;   52,975; 8024,453;39,75304
 933,57; 3123,180;   72,175; 7753,252;39,72105
 934,12; 2974,880;   70,475; 7399,553;39,62852
 934,68; 2774,880;   59,075; 7020,252;39,01359
 935,24; 2624,580;   67,875; 6614,752;39,05228
 935,79; 2464,480;   72,975; 6254,853;38,68574
 936,35; 2320,880;   91,375; 5812,252;38,97138
 936,90; 2124,680;   80,275; 5348,752;38,80447
 937,46; 1929,980;   72,775; 4956,953;38,02493
 938,02; 1788,580;   63,375; 4549,152;38,45944
 938,57; 1665,680;   73,175; 4265,053;37,99026
 939,13; 1547,380;   70,575; 3986,752;37,71037
 939,68; 1419,180;   57,375; 3713,452;37,24771
 940,24; 1362,980;   68,775; 3504,052;37,67396
 940,79; 1329,080;   91,875; 3391,052;37,50041
 941,35; 1255,380;   79,675; 3217,552;37,46816
 941,91; 1183,480;   71,375; 3122,252;36,45197
 942,46; 1149,780;   75,075; 3063,552;35,96162
 943,02; 1129,280;   65,375; 3050,752;35,63720
 943,57; 1075,480;   61,275; 2982,452;34,71905
 944,13; 1092,280;   67,375; 2974,452;35,25551
 944,68; 1096,080;   65,975; 3041,752;34,61633
 945,24; 1120,880;   82,275; 3060,052;34,87853
 945,79; 1112,380;   68,775; 3104,052;34,38252
 946,35; 1103,380;   51,775; 3194,752;33,45888
 946,90; 1171,180;   98,575; 3283,552;33,67701
 947,46; 1163,780;   52,175; 3311,052;34,11006
 948,01; 1131,780;   51,575; 3390,052;32,35622
 948,57; 1200,580;   86,775; 3552,952;32,13352
 949,12; 1187,280;   65,875; 3613,353;31,61134
 949,68; 1252,080;   76,275; 3732,653;32,15765
 950,23; 1240,480;   70,075; 3833,252;31,10151
 950,79; 1239,380;   75,775; 3933,452;30,16336
 951,34; 1279,780;   83,275; 4070,952;30,00506
 951,90; 1271,380;   57,475; 4140,853;29,72796
 952,45; 1329,280;   81,075; 4292,152;29,64099
 953,01; 1311,080;   65,975; 4364,252;28,96753
 953,56; 1347,980;   87,975; 4500,853;28,55291
 954,12; 1351,280;   42,075; 4567,553;28,92965
 954,67; 1347,880;   70,875; 4720,453;27,46497
 955,23; 1352,280;   61,975; 4804,553;27,20683
 955,78; 1358,380;   67,175; 4882,953;26,81197
 956,33; 1350,280;   58,575; 4947,252;26,42238
 956,89; 1354,380;   53,475; 5038,553;26,09598
 957,44; 1374,180;   53,675; 5170,752;25,80584
 958,00; 1375,680;   49,475; 5238,353;25,55861
 958,55; 1392,080;   70,475; 5313,953;25,20474
 959,10; 1378,080;   52,375; 5370,252;24,92921
 959,66; 1395,780;   74,275; 5488,752;24,40688
 960,21; 1379,380;   78,475; 5567,453;23,70032
 960,77; 1369,780;   54,275; 5606,152;23,69478
 961,32; 1395,880;   48,375; 5663,453;23,99798
 961,87; 1392,280;   79,775; 5738,752;23,19332
 962,43; 1399,880;   68,975; 5780,652;23,30147
 962,98; 1392,280;   76,175; 5828,652;22,87893
 963,54; 1349,280;   27,075; 5820,652;22,82191
 964,09; 1372,480;   56,275; 5873,953;22,62423
 964,64; 1358,080;   64,975; 5901,053;22,15709
 965,20; 1339,080;   44,375; 5966,652;21,86161
 965,75; 1333,180;   66,575; 5976,353;21,43236
 966,30; 1326,380;   75,275; 6068,553;20,87514
 966,86; 1317,780;   62,975; 6121,953;20,70985
 967,41; 1322,480;   81,075; 6084,453;20,67844
 967,96; 1312,880;   75,175; 6108,953;20,51294
 968,52; 1306,180;   81,775; 6126,353;20,25626
 969,07; 1259,080;   72,975; 6120,152;19,61419
 969,62; 1233,780;   77,175; 6134,953;19,09289
 970,18; 1227,380;   57,575; 6147,652;19,20838
 970,73; 1223,280;   66,475; 6203,553;18,84944
 971,28; 1225,480;   95,775; 6197,053;18,51588
 971,84; 1201,680;   55,075; 6118,752;18,90940
 972,39; 1209,880;   95,875; 6148,652;18,40486
 972,94; 1168,080;   54,975; 6140,652;18,29057
 973,49; 1133,080;   64,575; 6141,252;17,58370
 974,05; 1123,280;   64,375; 6178,053;17,32026
 974,60; 1114,480;   88,575; 6213,252;16,75035
 975,15; 1113,380;   77,675; 6231,553;16,83012
 975,71; 1082,980;   62,375; 6121,453;16,84423
 976,26; 1075,180;   77,575; 6110,252;16,53669
 976,81; 1101,780;   90,675; 6134,152;16,73052
 977,36; 1078,180;   84,775; 6156,953;16,35995
 977,92; 1052,280;   90,175; 6209,353;15,72278
 978,47; 1026,880;   77,175; 6060,252;15,87319
 979,02; 1032,880;   95,475; 6085,652;15,64904
 979,57;  999,880;   86,775; 6058,453;15,29059
 980,13;  988,480;   76,175; 6038,752;15,30051
 980,68;  962,780;   77,075; 6010,553;14,92725
 981,23;  991,780;   89,175; 6054,652;15,13047
 981,78;  944,480;   82,075; 5974,152;14,63669
 982,33;  938,380;   79,275; 5893,252;14,77655
 982,89;  948,980;   94,375; 5938,152;14,62419
 983,44;  916,080;   65,675; 5935,853;14,48687
 983,99;  936,480;  104,775; 5949,453;14,23013
 984,54;  903,780;   81,475; 5900,053;14,13241
 985,09;  915,580;   87,275; 5873,752;14,31449
 985,65;  865,180;   69,375; 5811,853;13,85822
 986,20;  867,580;  106,575; 5791,152;13,38719
 986,75;  872,980;   95,875; 5823,953;13,56659
 987,30;  837,480;   97,175; 5726,053;13,15191
 987,85;  833,480;   92,475; 5721,353;13,16435
 988,40;  843,280;   96,675; 5693,953;13,33872
 988,96;  818,380;  114,875; 5666,553;12,67194
 989,51;  796,580;  108,875; 5644,053;12,42426
 990,06;  825,080;  128,275; 5680,853;12,54922
 990,61;  769,080;   93,575; 5569,053;12,33691
 991,16;  773,880;  104,375; 5558,053;12,27621
 991,71;  746,980;   79,875; 5505,853;12,29465
 992,26;  750,180;   93,475; 5457,252;12,24333
 992,81;  721,480;   75,075; 5427,053;12,07787
 993,37;  743,480;  113,475; 5390,553;11,93852
 993,92;  718,180;  108,375; 5368,953;11,59198
 994,47;  709,980;  117,475; 5329,652;11,36771
 995,02;  713,980;  118,475; 5313,252;11,46353
 995,57;  682,580;   90,875; 5274,652;11,41455
 996,12;  716,880;  133,575; 5247,553;11,40609
 996,67;  692,380;  132,375; 5191,652;11,06887
 997,22;  668,280;   99,875; 5128,652;11,30305
 997,77;  675,680;  115,275; 5110,553;11,21870
 998,32;  660,580;  103,775; 5015,652;11,33589
 998,87;  657,180;  114,275; 5018,752;11,06958
 999,42;  639,080;  101,675; 4972,553;11,03302
 999,97;  634,680;  109,975; 4956,353;10,82675
1000,53;  655,280;  123,475; 4993,752;10,91940
1001,08;  619,680;   98,375; 4879,053;10,90442
1001,63;  642,280;  144,475; 4878,053;10,51646
1002,18;  571,980;   85,075; 4777,453;10,37651
1002,73;  595,880;  131,375; 4813,853; 9,92007
1003,28;  591,680;  103,575; 4811,953;10,36673
1003,83;  590,880;  119,075; 4691,752;10,31792
1004,38;  604,080;  137,775; 4703,152;10,21394
1004,93;  573,380;  114,375; 4680,953;10,05140
1005,48;  543,280;  104,075; 4573,053; 9,82786
1006,03;  549,380;  112,775; 4525,652; 9,89388
1006,58;  555,680;  111,475; 4486,553;10,15308
1007,13;  499,680;   94,475; 4466,252; 9,26866
1007,68;  529,180;  104,975; 4462,453; 9,73510
1008,23;  530,880;  114,575; 4425,853; 9,65619
1008,78;  518,580;  107,375; 4384,152; 9,61483
1009,33;  512,280;  121,875; 4307,752; 9,32672
1009,88;  484,380;   84,775; 4329,553; 9,41404
1010,43;  489,780;  118,875; 4320,752; 8,82713
1010,98;  481,480;  100,675; 4310,053; 9,04659
1011,52;  459,180;   97,075; 4264,953; 8,68799
1012,07;  512,480;  144,475; 4319,252; 8,81496
1012,62;  470,480;  103,875; 4259,152; 8,82264
1013,17;  465,780;   97,175; 4172,053; 9,04579
1013,72;  441,580;   94,575; 4143,453; 8,57040
1014,27;  453,080;  100,275; 4105,853; 8,80784
1014,82;  428,180;   86,875; 4042,952; 8,62736
1015,37;  413,380;   84,375; 3964,853; 8,47847
1015,92;  423,880;  109,475; 3894,252; 8,30709
1016,47;  413,180;   90,275; 3819,452; 8,65888
1017,02;  386,480;   81,075; 3732,153; 8,36479
1017,57;  413,580;   96,475; 3718,853; 8,75406
1018,11;  377,880;   77,275; 3656,252; 8,39919
1018,66;  408,080;  120,175; 3636,552; 8,18754
1019,21;  379,780;  109,675; 3579,552; 7,78428
1019,76;  372,780;   77,675; 3497,353; 8,62961
1020,31;  356,180;   71,975; 3446,452; 8,42219
1020,86;  364,080;   96,175; 3448,052; 7,99268
1021,41;  344,880;   80,175; 3387,052; 8,00468
1021,96;  365,080;   83,675; 3385,853; 8,52180
1022,50;  370,180;  105,975; 3332,952; 8,18738
1023,05;  358,980;   94,675; 3288,052; 8,27666
1023,60;  343,180;   97,975; 3251,353; 7,77595
1024,15;  326,280;   81,075; 3184,853; 7,90021
1024,70;  343,180;   95,075; 3176,252; 8,05228
1025,25;  328,580;   81,175; 3127,452; 8,12155
1025,79;  336,080;  101,175; 3110,752; 7,80525
1026,34;  329,580;   83,475; 3044,653; 8,31105
1026,89;  340,580;  102,175; 3039,052; 8,11763
1027,44;  324,980;   95,875; 2952,952; 8,01886
1027,99;  323,580;   93,475; 2944,552; 8,07081
1028,53;  305,980;   89,675; 2900,052; 7,69665
1029,08;  318,480;  114,775; 2876,653; 7,37560
1029,63;  316,080;  114,875; 2854,952; 7,34304
1030,18;  300,880;   92,075; 2788,552; 7,74362
1030,73;  290,580;   91,175; 2739,552; 7,52933
1031,27;  282,780;   85,875; 2715,252; 7,48865
1031,82;  286,680;   81,875; 2686,452; 7,86327
1032,37;  289,680;   98,875; 2688,853; 7,36705
1032,92;  299,880;  100,575; 2675,452; 7,74037
1033,46;  276,880;   99,775; 2599,252; 7,08568
1034,01;  266,480;   78,375; 2582,952; 7,51045
1034,56;  280,480;   98,875; 2559,252; 7,38119
1035,11;  276,280;   92,375; 2523,552; 7,56444
1035,65;  263,680;   87,575; 2478,052; 7,36694
1036,20;  244,880;   99,375; 2454,452; 6,17835
1036,75;  294,380;  118,675; 2446,353; 7,54851
1037,29;  270,780;   90,275; 2398,252; 7,82092
1037,84;  243,180;   78,375; 2347,252; 7,26372
1038,39;  243,980;   91,075; 2329,952; 6,82954
1038,94;  231,980;   73,075; 2277,153; 7,20959
1039,48;  243,680;   83,575; 2278,552; 7,29415
1040,03;  258,180;  102,875; 2245,252; 7,24919
1040,58;  248,780;  101,175; 2194,552; 7,05105
1041,12;  247,880;   91,375; 2191,653; 7,45163
1041,67;  240,680;  101,075; 2166,752; 6,75832
1042,22;  255,480;  118,475; 2145,252; 6,75975
1042,76;  230,880;   99,275; 2118,452; 6,51775
1043,31;  231,080;   90,675; 2060,653; 7,12724
1043,86;  251,780;   98,875; 2044,252; 7,85991
1044,40;  238,280;   92,975; 2018,052; 7,54801
1044,95;  232,880;   94,175; 1988,552; 7,32193
1045,50;  216,580;   75,375; 1934,353; 7,59584
1046,04;  247,780;  114,375; 1930,453; 7,34578
1046,59;  226,980;   96,175; 1878,353; 7,33962
1047,13;  237,180;  121,075; 1879,453; 6,60296
1047,68;  240,180;  115,675; 1860,052; 7,13750
1048,23;  246,980;  118,775; 1866,752; 7,33448
1048,77;  209,280;   90,175; 1784,953; 7,02777
1049,32;  220,080;  104,175; 1785,953; 6,89182
1049,86;  213,680;   92,675; 1760,552; 7,25503
1050,41;  204,180;   82,475; 1735,552; 7,36233
1050,96;  223,180;  100,875; 1698,652; 7,65470
1051,50;  207,480;  101,675; 1663,252; 6,77552
1052,05;  203,180;   94,675; 1664,052; 6,91389
1052,59;  194,380;   82,975; 1624,152; 7,22856
1053,14;  183,980;   84,475; 1582,652; 6,64174
1053,69;  196,880;   98,475; 1571,453; 6,68069
1054,23;  214,480;  104,575; 1569,052; 7,50472
1054,78;  204,380;  100,775; 1550,152; 7,14824
1055,32;  225,380;  123,075; 1550,453; 7,16734
1055,87;  176,680;   68,875; 1491,752; 7,57655
1056,41;  180,780;   78,775; 1469,552; 7,33439
1056,96;  194,380;   96,775; 1451,052; 7,20716
1057,50;  212,980;  113,375; 1470,853; 7,33751
1058,05;  182,880;   82,075; 1401,953; 7,63745
1058,59;  192,080;   95,875; 1396,552; 7,39653
1059,14;  193,180;  103,575; 1370,453; 7,07290
1059,68;  164,780;   75,975; 1329,353; 7,08526
1060,23;  203,180;  126,875; 1383,752; 6,07100
1060,77;  188,880;   97,375; 1317,052; 7,50239
1061,32;  205,680;  108,575; 1320,652; 8,01145
1061,86;  193,080;  111,175; 1289,752; 6,94948
1062,41;  183,680;   93,975; 1242,953; 7,80738
1062,95;  183,680;  109,575; 1230,853; 6,60898
1063,50;  194,380;  111,075; 1230,052; 7,44474
1064,04;  167,180;   90,475; 1197,453; 6,92923
1064,59;  189,980;  114,775; 1210,052; 6,86630
1065,13;  179,280;  103,475; 1170,552; 7,10398
1065,68;  172,880;  107,275; 1161,353; 6,22393
1066,22;  191,080;  115,875; 1166,453; 7,15844
1066,76;  196,180;  130,175; 1145,252; 6,50246
1067,31;  173,080;   99,875; 1110,552; 7,24316
1067,85;  171,580;  100,975; 1090,252; 7,13703
1068,40;  181,780;  110,275; 1095,353; 7,25882
1068,94;  170,380;   99,175; 1079,353; 7,26450
1069,49;  170,480;   98,175; 1041,652; 7,66367
1070,03;  168,680;  111,175; 1034,353; 6,22903
1070,57;  160,080;   88,775; 1012,852; 7,71634
1071,12;  146,180;   75,875;  987,153; 7,71499
1071,66;  203,880;  131,775; 1039,953; 7,93953
1072,21;  179,880;  112,475; 1011,352; 7,49880
1072,75;  167,480;  104,475;  978,552; 7,20817
1073,29;  141,880;   77,075;  942,453; 7,48864
1073,84;  160,680;   95,975;  941,153; 7,65579
1074,38;  156,980;   93,875;  928,253; 7,56312
1074,92;  169,580;  107,275;  940,153; 7,48069
1075,47;  169,480;  112,775;  938,852; 6,86437
1076,01;  179,880;  121,775;  926,253; 7,22270
1076,56;  158,280;   97,275;  891,953; 7,67670
1077,10;  149,680;   86,075;  865,253; 8,16309
1077,64;  155,480;   97,875;  884,453; 7,32350
1078,19;  176,480;  123,175;  887,753; 6,97182
1078,73;  160,880;   98,775;  853,852; 8,22498
1079,27;  177,380;  121,075;  875,552; 7,46278
1079,81;  177,480;  121,375;  860,953; 7,58609
1080,36;  167,580;  105,975;  836,052; 8,43815
1080,90;  157,880;   96,375;  819,753; 8,50248
1081,44;  135,280;   82,475;  789,552; 7,46806
1081,99;  129,480;   70,375;  771,753; 8,42699
1082,53;  162,280;  113,075;  798,653; 7,17716
1083,07;  158,480;  104,175;  791,453; 7,90147
1083,62;  164,980;  101,275;  772,552; 9,49011
1084,16;  147,580;   98,975;  782,453; 7,11143
1084,70;  163,480;  107,475;  767,153; 8,48975
1085,24;  158,580;  108,775;  750,653; 7,75927
1085,79;  150,180;  109,175;  747,552; 6,42331
1086,33;  122,880;   99,075;  711,453; 3,88731
1086,87;  158,680;  102,075;  714,852; 9,23745
1087,41;  140,180;   84,475;  686,852; 9,24752
1087,96;  167,080;  124,575;  732,552; 6,99121
1088,50;  144,880;  112,075;  696,953; 5,60887
1089,04;  158,380;  121,775;  715,153; 6,16892
1089,58;  133,580;   82,375;  655,953; 8,92730
1090,13;  139,380;  102,975;  653,153; 6,61696
1090,67;  150,780;  101,775;  678,753; 8,49340
1091,21;  140,480;   92,075;  651,852; 8,64719
1091,75;  150,580;  106,875;  647,153; 8,08936
1092,29;  152,480;  105,875;  642,552; 8,68399
1092,84;  138,680;  105,975;  628,352; 6,26080
1093,38;  179,180;  128,175;  662,753; 9,54118
1093,92;  153,880;  113,475;  640,052; 7,67314
1094,46;  157,780;  128,175;  638,852; 5,79720
1095,00;  135,980;   93,975;  602,052; 8,26744
1095,54;  130,880;   89,975;  591,352; 8,15852
1096,09;  148,480;  114,975;  597,352; 6,94580
1096,63;  155,180;  117,175;  598,453; 7,89669
1097,17;  137,580;  102,575;  573,052; 7,44031
1097,71;  156,980;  122,875;  582,453; 7,42095
1098,25;  133,980;  103,275;  553,653; 6,81761
1098,79;  142,680;  104,775;  568,753; 8,16958
1099,33;  153,980;  111,975;  572,052; 9,12998
1099,88;  146,180;  110,775;  562,253; 7,84203
1100,42;  116,780;   83,275;  521,253; 7,64994

