0103 ELITRO
Integration time [ms]:   8,000
Averaging Nr. [scans]: 10
Smoothing Nr. [pixels]: 0
Data measured with spectrometer [name]: 7314920SP
Wave   ;Sample   ;Dark     ;Reference;Reflectance
[nm]   ;[counts] ;[counts] ;[counts] ;[%]

 199,42;  100,938;   63,873;  150,055;43,00730
 200,02;  115,437;   92,669;  145,732;42,90823
 200,62;   73,519;   67,563;   88,793;28,05501
 201,22;  109,302;   86,969;  138,011;43,75441
 201,82;   93,932;   66,174;  141,790;36,70845
 202,42;  117,649;  101,668;  154,973;29,97984
 203,03;   63,408;   60,168;   91,775;10,25062
 203,63;   85,855;   69,967;  109,037;40,66424
 204,23;   90,526;   70,671;  129,903;33,52013
 204,83;   87,578;   74,567;  123,718;26,47192
 205,43;   95,938;   56,673;  123,555;58,70728
 206,03;   74,090;   50,167;   90,459;59,37467
 206,63;   74,478;   68,865;  100,007;18,02503
 207,24;  111,338;   74,675;  162,566;41,71351
 207,84;   56,202;   39,967;   83,699;37,12353
 208,44;   60,802;   50,669;   95,011;22,85204
 209,04;   54,466;   47,365;   85,066;18,83611
 209,64;   95,108;   69,972;  127,998;43,31843
 210,24;   58,878;   45,367;   97,218;26,05778
 210,84;   64,290;   51,469;  101,970;25,38777
 211,44;   92,743;   86,470;  122,908;17,21677
 212,05;   71,766;   60,865;   99,266;28,38819
 212,65;   76,908;   66,368;  112,975;22,61434
 213,25;  113,049;   93,768;  142,073;39,91480
 213,85;   99,619;   84,465;  114,904;49,78471
 214,45;   69,278;   53,367;  100,418;33,81693
 215,05;   47,890;   39,369;  100,070;14,03778
 215,65;   68,478;   55,169;  105,630;26,37553
 216,25;   54,078;   40,267;   82,518;32,68847
 216,85;   57,414;   34,069;   89,651;42,00055
 217,45;   69,108;   49,068;   97,375;41,48424
 218,05;   72,108;   58,270;  112,886;25,33640
 218,66;   38,525;   28,769;   75,692;20,79312
 219,26;   51,455;   26,567;   79,337;47,16226
 219,86;   51,649;   36,771;   81,584;33,20091
 220,46;   74,020;   54,270;  104,127;39,61268
 221,06;   87,426;   51,871;  115,903;55,52638
 221,66;   63,190;   43,471;  103,481;32,85945
 222,26;   63,408;   39,772;  102,398;37,74139
 222,86;   89,772;   67,268;  118,954;43,54084
 223,46;   66,578;   51,767;   88,918;39,86753
 224,06;   75,137;   64,971;  120,343;18,36019
 224,66;   83,584;   57,570;  105,805;53,93176
 225,26;   66,955;   48,169;  113,748;28,64544
 225,86;   75,473;   42,173;  112,376;47,43358
 226,46;   64,761;   49,968;  102,913;27,93928
 227,06;   56,484;   27,670;   87,705;47,99532
 227,66;   58,731;   37,665;   74,845;56,65964
 228,27;   48,520;   29,270;   96,227;28,74936
 228,87;  107,796;   89,170;  143,046;34,57203
 229,47;   61,596;   29,172;   92,357;51,31584
 230,07;   36,355;   11,169;   59,648;51,95113
 230,67;   52,814;   38,169;   84,651;31,50633
 231,27;   48,520;   27,670;   76,327;42,85035
 231,87;   51,614;   43,169;  100,751;14,66571
 232,47;   88,261;   43,775;  132,047;50,39659
 233,07;   51,890;   42,965;   75,547;27,39259
 233,67;   66,008;   53,768;   94,275;30,21659
 234,27;   21,390;    0,567;   53,259;39,51874
 234,87;   57,149;   34,771;  106,084;31,38043
 235,47;   34,055;   16,169;   74,148;30,84805
 236,07;   48,272;   30,266;   72,042;43,10184
 236,67;   52,125;   49,966;   85,180; 6,13066
 237,27;   58,914;   28,873;  109,074;37,45697
 237,87;   51,984;   25,370;   99,805;35,75470
 238,47;   38,537;   14,269;   68,032;45,13956
 239,07;   38,320;   33,272;   95,738; 8,08059
 239,67;   70,808;   43,477;  131,421;31,07846
 240,27;   71,373;   46,773;  119,176;33,97632
 240,87;   68,102;   50,773;  119,533;25,20188
 241,47;   46,672;   39,164;   76,131;20,31117
 242,07;   56,684;   39,968;   92,894;31,58399
 242,67;    8,426;  -11,027;   77,914;21,87126
 243,27;   22,678;    7,767;   46,418;38,57905
 243,87;   65,037;   48,671;  108,343;27,42719
 244,47;   47,826;   22,371;   99,703;32,91605
 245,07;   29,290;    2,669;   55,770;50,13293
 245,67;   50,408;   31,068;   85,575;35,48134
 246,27;   37,578;   34,965;   69,007; 7,67692
 246,87;   26,672;   26,668;   63,154; 0,01176
 247,46;   12,419;   19,663;   23,793;-175,40267
 248,06;   33,008;   20,470;   69,786;25,42325
 248,66;   60,608;   31,072;  105,898;39,47282
 249,26;   52,772;   32,366;   70,742;53,17434
 249,86;   59,973;   42,873;  102,176;28,83481
 250,46;   32,349;   16,775;   93,507;20,29704
 251,06;   32,908;   22,168;   65,375;24,85675
 251,66;   32,561;   20,771;   64,724;26,82424
 252,26;   40,849;   38,866;   70,261; 6,31506
 252,86;   57,690;   35,969;   89,070;40,90523
 253,46;    0,878;   -8,033;   22,118;29,55527
 254,06;   45,084;   31,766;   79,483;27,91096
 254,66;   49,838;   34,973;  100,155;22,80459
 255,26;   68,061;   39,073;  118,836;36,34292
 255,86;   44,872;   37,464;   55,631;40,77924
 256,46;   35,343;   19,870;   70,208;30,73900
 257,05;   25,973;   23,570;   59,565; 6,67375
 257,65;   75,549;   38,071;   97,684;62,86926
 258,25;   59,196;   37,372;  101,457;34,05461
 258,85;   40,190;   15,669;   51,770;67,92360
 259,45;   15,514;    6,869;   42,951;23,95873
 260,05;   42,378;   46,667;   85,818;-10,95424
 260,65;   39,949;   45,066;   83,561;-13,29359
 261,25;   51,637;   29,371;   85,943;39,35919
 261,85;    9,402;   -0,129;   47,622;19,95962
 262,45;   61,890;   46,169;  109,270;24,91415
 263,04;   80,549;   53,073;  116,295;43,45982
 263,64;   50,643;   33,767;   77,097;38,94735
 264,24;   49,014;   37,671;   89,062;22,07132
 264,84;   88,055;   58,974;  138,671;36,48962
 265,44;   38,319;   26,368;   67,716;28,90547
 266,04;   49,908;   48,865;   71,464; 4,61123
 266,64;   54,125;   39,866;   86,780;30,39369
 267,24;   34,325;   40,166;   68,980;-20,27207
 267,84;   41,449;   24,668;   76,573;32,32979
 268,43;   58,496;   48,368;   95,935;21,29232
 269,03;   52,925;   46,969;   87,892;14,55600
 269,63;   71,960;   58,566;   92,402;39,58683
 270,23;   19,131;   10,765;   39,045;29,58258
 270,83;   56,649;   55,266;   83,161; 4,95650
 271,43;   34,331;   23,967;   58,856;29,70514
 272,03;   58,519;   64,168;   99,116;-16,16160
 272,62;   36,878;   23,269;   68,730;29,93640
 273,22;   32,496;   11,970;   61,046;41,82500
 273,82;    9,954;   17,460;   26,403;-83,93588
 274,42;   18,060;   25,164;   46,890;-32,69433
 275,02;   40,702;   34,864;   60,388;22,86981
 275,62;   66,996;   31,972;  100,457;51,14101
 276,21;   34,931;   22,770;   69,267;26,15531
 276,81;   49,202;   46,767;   71,099;10,00742
 277,41;   51,579;   22,971;   96,341;38,99048
 278,01;   20,302;   21,364;   42,788;-4,96105
 278,61;   58,802;   38,869;   83,811;44,35302
 279,20;   76,173;   65,473;  119,076;19,96150
 279,80;  -10,252;    6,762;   11,539;-356,14884
 280,40;   46,072;   36,866;   79,742;21,47194
 281,00;    8,502;   -4,331;   33,311;34,09249
 281,60;   36,967;   20,774;   74,812;29,96621
 282,20;   45,443;   36,670;   70,108;26,23785
 282,79;   41,896;   29,568;   70,135;30,38959
 283,39;   32,360;   17,466;   44,702;54,68732
 283,99;   30,590;   23,165;   34,347;66,39899
 284,59;   27,367;   16,869;   45,289;36,93671
 285,19;   27,690;   27,067;   57,759; 2,03042
 285,78;   37,143;   23,270;   63,808;34,22315
 286,38;   42,478;   39,665;   59,207;14,39649
 286,98;   43,196;   35,168;   73,535;20,92454
 287,58;   34,826;    4,771;   61,403;53,07009
 288,17;   27,861;    8,973;   80,336;26,46778
 288,77;   52,191;   19,976;   92,504;44,41688
 289,37;   37,490;   11,269;   57,670;56,50976
 289,97;   39,790;   48,965;   66,647;-51,88496
 290,57;   52,955;   46,672;   93,260;13,48692
 291,16;   75,519;   63,868;  102,616;30,07079
 291,76;   33,396;    5,570;   47,346;66,60782
 292,36;   39,555;   34,367;   58,137;21,82379
 292,96;   19,585;   -3,127;   60,117;35,91152
 293,55;   38,702;   24,267;   65,399;35,09402
 294,15;   47,031;   26,870;   62,567;56,47871
 294,75;   43,378;   42,065;   66,207; 5,44024
 295,35;   27,119;   21,068;   52,016;19,55485
 295,94;   46,213;   42,967;   66,740;13,65804
 296,54;   35,461;   30,768;   70,613;11,77668
 297,14;   60,790;   29,971;   76,881;65,69803
 297,73;   19,243;   12,165;   40,085;25,34979
 298,33;   41,984;   28,066;   57,583;47,15338
 298,93;   46,372;   41,968;   82,554;10,85189
 299,53;   28,132;   24,872;   69,079; 7,37335
 300,12;   17,690;  -12,229;   59,481;41,72215
 300,72;   47,443;   41,567;   91,197;11,83900
 301,32;   54,049;   25,771;   99,584;38,31075
 301,92;   17,249;    3,664;   33,050;46,22849
 302,51;   36,966;   11,567;   49,978;66,12599
 303,11;   27,490;   14,667;   48,759;37,61356
 303,71;   45,937;   21,369;   82,132;40,43317
 304,30;   17,096;    5,466;   38,423;35,28819
 304,90;   23,684;   19,666;   44,283;16,32319
 305,50;   43,231;   18,565;   64,345;53,87952
 306,09;   35,872;   15,466;   49,042;60,77601
 306,69;   52,914;   34,171;   90,262;33,41469
 307,29;    9,966;   18,760;   33,144;-61,14186
 307,88;   62,367;   43,269;   72,489;65,35764
 308,48;   23,720;    0,070;   49,727;47,62610
 309,08;    3,543;   -4,437;   11,774;49,22423
 309,68;   18,643;   22,365;   39,585;-21,61569
 310,27;   22,478;   20,169;   49,830; 7,78542
 310,87;   26,261;   23,468;   54,813; 8,90865
 311,47;   66,578;   54,967;   92,918;30,59526
 312,06;   47,355;   47,865;   68,426;-2,48234
 312,66;   70,519;   51,168;  100,016;39,61642
 313,26;   62,761;   48,571;   96,224;29,77783
 313,85;   52,690;   38,267;   65,959;52,08447
 314,45;   54,902;   42,969;   86,611;27,34307
 315,04;   72,755;   52,165;   81,826;69,41669
 315,64;   38,143;   21,267;   47,897;63,37234
 316,24;   59,920;   40,770;   85,627;42,69054
 316,83;   45,272;   40,366;   76,742;13,48785
 317,43;   43,231;   35,167;   68,156;24,44394
 318,03;   46,496;   39,063;   70,012;24,01489
 318,62;   82,172;   73,061;   94,820;41,87192
 319,22;   38,549;    7,668;   66,973;52,07140
 319,82;   51,319;   40,768;   93,516;20,00424
 320,41;   71,637;   59,069;   98,732;31,68810
 321,01;   95,031;   80,465;  115,945;41,05412
 321,60;   76,260;   81,164;  102,790;-22,67287
 322,20;   88,938;   67,673;  132,855;32,62330
 322,80;   79,543;   54,567;   91,797;67,08589
 323,39;   60,013;   65,764;   94,828;-19,78711
 323,99;   76,349;   61,766;  102,661;35,65859
 324,59;   67,696;   73,063;   97,512;-21,95515
 325,18;   60,166;   40,967;   92,178;37,49105
 325,78;   86,843;   76,365;  108,885;32,21909
 326,37;   89,508;   74,868;  108,075;44,08643
 326,97;   89,343;   63,267;  111,497;54,06591
 327,57;   48,719;   42,263;   76,493;18,86085
 328,16;   71,272;   60,864;   93,631;31,76486
 328,76;   69,813;   50,467;  110,140;32,42152
 329,35;   89,849;   56,871;  137,484;40,90941
 329,95;   66,643;   27,470;   91,308;61,36357
 330,54;   70,578;   52,167;   94,018;43,99219
 331,14;   56,102;   26,967;   82,599;52,37055
 331,74;   73,531;   54,165;   96,145;46,13153
 332,33;   57,620;   35,370;  108,127;30,58084
 332,93;   57,749;   43,764;   79,250;39,40908
 333,52;   68,660;   42,466;   93,102;51,73125
 334,12;   94,925;   72,069;  140,392;33,45399
 334,71;   58,772;   50,666;   87,942;21,74672
 335,31;   86,790;   63,267;  119,859;41,56633
 335,90;   31,190;   32,362;   53,836;-5,46069
 336,50;   41,478;   30,665;   77,207;23,23353
 337,10;   72,878;   38,769;  121,530;41,21441
 337,69;   64,878;   51,765;   93,707;31,26540
 338,29;   58,655;   30,467;  101,037;39,94265
 338,88;   45,772;   22,468;   99,854;30,11456
 339,48;   78,301;   57,862;  111,677;37,98104
 340,07;   65,537;   48,566;  107,321;28,88415
 340,67;   56,249;   31,171;  124,784;26,78937
 341,26;   75,772;   48,466;   98,942;54,09734
 341,86;   81,855;   61,469;  138,348;26,51621
 342,45;   75,667;   45,669;  142,689;30,91877
 343,05;   73,567;   27,269;  115,689;52,36085
 343,64;   70,325;   47,366;  122,480;30,56540
 344,24;   52,178;   28,765;   92,107;36,96335
 344,83;   76,990;   71,365;  121,747;11,16507
 345,43;   56,613;   29,667;  114,240;31,86229
 346,02;   56,114;   41,469;  124,351;17,66946
 346,62;   79,961;   40,971;  140,424;39,20439
 347,21;   70,643;   42,165;  131,985;31,70524
 347,81;   74,055;   26,172;  140,560;41,86038
 348,40;   46,772;   29,064;  100,731;24,70931
 349,00;   54,496;   49,163;  137,712; 6,02186
 349,59;   88,596;   65,870;  177,846;20,29542
 350,19;   62,861;   32,571;  139,424;28,34740
 350,78;   68,590;   55,467;  140,759;15,38620
 351,38;   45,314;   15,869;  140,951;23,54039
 351,97;   61,713;   26,767;  136,040;31,98127
 352,57;   49,820;   42,570;  155,827; 6,40113
 353,16;   49,713;   30,564;  134,328;18,45441
 353,76;   65,096;   38,770;  169,846;20,08453
 354,35;   57,455;   27,669;  160,148;22,48311
 354,95;   70,831;   43,970;  182,067;19,45117
 355,54;   67,849;   38,368;  163,973;23,47096
 356,14;   65,555;   40,069;  164,749;20,44081
 356,73;   56,701;   29,162;  145,176;23,73781
 357,32;   51,237;   13,769;  164,432;24,86907
 357,92;   67,843;   17,772;  181,419;30,59712
 358,51;   82,732;   43,372;  214,179;23,04329
 359,11;   71,555;   36,772;  212,360;19,80960
 359,70;   61,273;   28,470;  189,965;20,31164
 360,30;   66,448;   54,562;  188,039; 8,90553
 360,89;   49,972;   31,168;  188,054;11,98600
 361,48;   87,831;   55,570;  216,467;20,05101
 362,08;   53,331;   19,867;  187,156;20,00358
 362,67;   50,819;   39,763;  192,693; 7,22949
 363,27;   89,366;   60,767;  247,678;15,30111
 363,86;   62,431;   35,765;  215,745;14,81603
 364,46;   93,972;   44,664;  257,231;23,19665
 365,05;  100,695;   64,659;  254,989;18,93364
 365,64;   89,013;   50,960;  269,706;17,39610
 366,24;   99,866;   38,558;  309,432;22,63330
 366,83;  134,213;   43,255;  335,383;31,13619
 367,43;  142,429;   51,545;  352,843;30,16441
 368,02;  141,888;   34,646;  399,757;29,37253
 368,61;  187,547;   62,239;  475,425;30,32721
 369,21;  150,751;   32,419;  445,299;28,66011
 369,80;  187,768;   43,007;  526,947;29,91299
 370,39;  230,662;   62,006;  604,971;31,06204
 370,99;  233,255;   42,089;  615,416;33,34326
 371,58;  241,771;   22,974;  630,953;35,98766
 372,18;  262,753;   37,166;  701,603;33,95163
 372,77;  256,899;   42,449;  679,385;33,66892
 373,36;  290,846;   42,747;  690,836;38,28161
 373,96;  260,921;   35,135;  639,498;37,35932
 374,55;  268,569;   29,844;  621,406;40,35505
 375,14;  226,611;   42,849;  573,826;34,60818
 375,74;  262,929;   69,157;  543,276;40,86984
 376,33;  196,194;   45,964;  464,589;35,88653
 376,92;  172,407;   33,278;  447,997;33,54774
 377,52;  242,862;   86,103;  548,460;33,90420
 378,11;  181,932;   46,703;  457,203;32,94263
 378,71;  200,068;   73,011;  514,270;28,79419
 379,30;  206,263;   59,517;  553,928;29,68091
 379,89;  211,004;   59,813;  556,103;30,46415
 380,49;  196,692;   31,018;  568,185;30,84223
 381,08;  244,038;   70,306;  570,990;34,69899
 381,67;  228,362;   55,008;  555,483;34,63793
 382,26;  209,738;   41,706;  539,390;33,76285
 382,86;  203,885;   54,003;  516,041;32,43935
 383,45;  211,062;   50,412;  562,105;31,39576
 384,04;  207,486;   38,712;  553,886;32,76051
 384,64;  212,633;   49,014;  566,760;31,60221
 385,23;  228,215;   64,406;  560,509;33,01907
 385,82;  241,192;   59,615;  592,774;34,05677
 386,42;  258,151;   61,024;  659,022;32,96459
 387,01;  236,657;   55,414;  580,541;34,51410
 387,60;  245,391;   69,009;  590,140;33,84616
 388,20;  227,662;   37,712;  590,805;34,34322
 388,79;  270,257;   72,418;  665,563;33,35417
 389,38;  224,438;   32,106;  564,890;36,09949
 389,97;  250,115;   45,415;  640,955;34,37224
 390,57;  273,298;   71,114;  654,038;34,68436
 391,16;  282,198;   62,514;  655,838;37,02589
 391,75;  276,792;   52,713;  638,562;38,24851
 392,34;  298,334;   60,821;  696,694;37,35224
 392,94;  304,533;   44,718;  689,683;40,28363
 393,53;  296,745;   41,016;  666,612;40,87767
 394,12;  329,334;   53,023;  719,105;41,48298
 394,72;  332,280;   54,213;  706,122;42,65425
 395,31;  329,392;   42,115;  694,874;44,00963
 395,90;  329,640;   42,924;  732,881;41,55557
 396,49;  393,622;   58,028;  779,187;46,53542
 397,09;  376,951;   47,417;  749,188;46,95749
 397,68;  396,693;   44,025;  800,719;46,60640
 398,27;  411,228;   54,626;  809,652;47,23041
 398,86;  425,946;   43,125;  807,657;50,07254
 399,45;  461,675;   56,630;  844,037;51,44041
 400,05;  440,528;   23,820;  799,518;53,72037
 400,64;  490,710;   56,419;  831,001;56,06776
 401,23;  470,881;   53,920;  859,956;51,72977
 401,82;  515,181;   67,220;  868,256;55,92265
 402,42;  560,522;   62,921;  873,953;61,35401
 403,01;  591,693;   81,525;  912,919;61,36294
 403,60;  595,881;   68,532;  940,513;60,47722
 404,19;  606,916;   76,024;  931,900;62,02908
 404,78;  598,928;   57,522;  909,929;63,51492
 405,38;  649,123;   68,332;  984,210;63,41353
 405,97;  635,552;   63,226;  953,933;64,25520
 406,56;  702,487;   71,528; 1004,366;67,63867
 407,15;  695,193;   68,829;  989,442;68,03772
 407,74;  718,411;   80,730; 1026,758;67,40610
 408,34;  713,699;   50,933; 1018,629;68,48910
 408,93;  745,617;   59,531; 1016,234;71,71354
 409,52;  766,276;   51,435; 1041,359;72,21166
 410,11;  817,093;   84,931; 1090,453;72,81412
 410,70;  778,693;   54,727; 1027,230;74,44353
 411,29;  813,811;   58,628; 1030,847;77,67619
 411,89;  851,941;   60,535; 1093,938;76,58248
 412,48;  837,399;   48,228; 1051,606;78,65137
 413,07;  871,517;   65,033; 1101,446;77,81494
 413,66;  898,264;   78,135; 1102,119;80,09199
 414,25;  936,988;   63,337; 1142,311;80,97049
 414,84;  928,717;   69,431; 1102,434;83,18326
 415,44;  950,334;   91,530; 1155,939;80,68366
 416,03;  954,535;   76,637; 1161,173;80,94684
 416,62;  961,094;   76,138; 1168,687;80,99916
 417,21;  982,658;   75,334; 1158,843;83,73942
 417,80; 1005,476;   65,037; 1162,871;85,66315
 418,39; 1015,753;   78,440; 1179,201;85,15133
 418,98;  996,405;   55,634; 1143,405;86,48614
 419,58; 1010,152;   64,033; 1142,067;87,76339
 420,17; 1027,499;   52,735; 1164,540;87,67401
 420,76; 1059,135;   72,537; 1192,873;88,06266
 421,35; 1023,429;   60,236; 1155,197;87,96593
 421,94; 1084,853;   88,340; 1223,501;87,78601
 422,53; 1044,329;   61,540; 1195,320;86,68252
 423,12; 1069,458;   64,039; 1190,766;89,23367
 423,71; 1063,141;   60,835; 1162,138;91,01089
 424,30; 1099,270;   85,236; 1210,695;90,09961
 424,90; 1053,629;   39,438; 1163,809;90,20077
 425,49; 1122,864;   70,140; 1216,242;91,85263
 426,08; 1123,264;   80,240; 1209,641;92,35196
 426,67; 1105,517;   57,436; 1168,257;94,35195
 427,26; 1103,218;   60,343; 1230,391;89,13093
 427,85; 1124,417;   63,238; 1209,968;92,53958
 428,44; 1123,476;   68,442; 1218,093;91,76994
 429,03; 1143,423;   85,341; 1233,155;92,18235
 429,62; 1147,335;   78,941; 1240,296;91,99548
 430,21; 1171,635;   81,443; 1277,807;91,12544
 430,80; 1144,982;   70,445; 1235,381;92,24007
 431,39; 1154,512;   53,344; 1246,926;92,25738
 431,99; 1165,740;   78,535; 1206,838;96,35760
 432,58; 1169,658;   82,639; 1251,166;93,02479
 433,17; 1179,964;   69,735; 1238,319;95,00637
 433,76; 1214,218;   71,347; 1288,314;93,91144
 434,35; 1210,506;   88,245; 1292,462;93,19427
 434,94; 1223,865;   70,849; 1318,887;92,38630
 435,53; 1229,482;   78,643; 1278,669;95,90117
 436,12; 1234,024;   70,044; 1294,267;95,07907
 436,71; 1256,906;   87,740; 1303,239;96,18812
 437,30; 1238,959;   76,941; 1299,177;95,07310
 437,89; 1263,518;   76,245; 1320,802;95,39720
 438,48; 1278,929;   65,942; 1305,731;97,83818
 439,07; 1269,482;   95,238; 1347,147;93,79630
 439,66; 1311,259;   83,648; 1375,711;95,01172
 440,25; 1281,323;   85,844; 1390,567;91,62709
 440,84; 1307,806;   79,850; 1387,984;93,87081
 441,43; 1328,871;   78,054; 1440,985;91,77404
 442,02; 1326,059;   79,650; 1411,022;93,61839
 442,61; 1342,712;   93,344; 1397,226;95,81906
 443,20; 1349,718;   94,249; 1446,625;92,83432
 443,79; 1334,388;   74,546; 1412,957;94,12974
 444,38; 1358,124;   84,248; 1461,789;92,47460
 444,97; 1387,547;   84,146; 1466,359;94,29814
 445,56; 1387,612;  101,846; 1477,038;93,49722
 446,15; 1398,577;   81,651; 1522,539;91,39685
 446,74; 1362,000;   58,644; 1462,286;92,85532
 447,33; 1406,088;   82,646; 1538,357;90,91384
 447,92; 1420,201;   78,151; 1570,720;89,91543
 448,51; 1435,035;   89,746; 1586,019;89,90938
 449,10; 1445,971;   92,045; 1608,840;89,26226
 449,69; 1459,636;   73,950; 1627,741;89,18094
 450,28; 1460,471;   66,948; 1608,251;90,41197
 450,87; 1478,794;   78,647; 1656,333;88,74693
 451,46; 1498,300;   96,048; 1702,208;87,30461
 452,05; 1506,306;   70,950; 1715,384;87,28572
 452,64; 1534,547;   70,850; 1725,182;88,47665
 453,23; 1611,118;  113,752; 1794,936;89,06617
 453,82; 1578,612;   83,451; 1800,660;87,06926
 454,40; 1612,148;   65,450; 1786,682;89,85992
 454,99; 1688,589;  101,253; 1871,891;89,64770
 455,58; 1641,841;   69,747; 1832,095;89,20456
 456,17; 1705,359;   63,852; 1873,634;90,70196
 456,76; 1718,301;   67,751; 1918,820;89,16738
 457,35; 1764,924;   78,348; 1930,490;91,06085
 457,94; 1807,542;   66,954; 1978,929;91,03614
 458,53; 1801,324;   67,350; 2010,101;89,25354
 459,12; 1908,848;   82,657; 2111,116;90,02849
 459,71; 1922,447;   58,148; 2060,071;93,12545
 460,30; 1958,059;   84,448; 2087,511;93,53730
 460,89; 1994,901;   57,551; 2129,920;93,48479
 461,48; 2050,442;   75,954; 2173,829;94,11849
 462,06; 2073,183;   68,050; 2187,303;94,61506
 462,65; 2077,877;   48,249; 2176,527;95,36478
 463,24; 2205,854;   87,456; 2288,680;96,23725
 463,83; 2197,183;   54,450; 2229,803;98,50045
 464,42; 2268,965;   88,349; 2333,687;97,11750
 465,01; 2292,548;   73,050; 2336,482;98,05895
 465,60; 2361,759;   64,050; 2384,322;99,02757
 466,19; 2394,342;   73,354; 2462,829;97,13381
 466,77; 2407,077;   81,551; 2462,939;97,65423
 467,36; 2431,360;   69,457; 2459,256;98,83269
 467,95; 2492,465;   79,551; 2466,098;101,10482
 468,54; 2512,095;   71,954; 2513,866;99,92746
 469,13; 2546,230;   69,452; 2535,977;100,41569
 469,72; 2585,824;   67,555; 2582,723;100,12329
 470,31; 2608,101;   87,855; 2629,242;99,16811
 470,90; 2642,495;   76,750; 2652,044;99,62920
 471,48; 2642,336;   32,057; 2671,875;98,88102
 472,07; 2690,330;  125,747; 2686,454;100,15134
 472,66; 2762,724;   67,853; 2748,412;100,53392
 473,25; 2711,177;   68,351; 2723,339;99,54192
 473,84; 2697,260;   55,955; 2766,545;97,44390
 474,43; 2756,884;   55,459; 2843,049;96,90897
 475,01; 2771,483;   69,254; 2885,926;95,93695
 475,60; 2763,736;   49,755; 2882,364;95,81206
 476,19; 2748,066;   74,158; 2956,932;92,75466
 476,78; 2802,560;   71,057; 2964,456;94,40463
 477,37; 2785,036;   59,355; 2945,364;94,44465
 477,95; 2763,077;   75,656; 3018,661;91,31555
 478,54; 2753,489;   63,253; 3023,691;90,87291
 479,13; 2740,289;   56,253; 3070,291;89,05117
 479,72; 2741,418;   81,154; 3090,147;88,41044
 480,31; 2758,160;   63,459; 3167,468;86,81357
 480,89; 2719,283;   60,254; 3171,026;85,47811
 481,48; 2724,578;   46,260; 3214,084;84,54755
 482,07; 2706,795;   61,654; 3233,866;83,38473
 482,66; 2673,377;   52,853; 3253,650;81,87098
 483,25; 2711,978;   78,960; 3319,884;81,24281
 483,83; 2716,071;   59,954; 3325,385;81,34047
 484,42; 2732,142;   54,354; 3355,129;81,12604
 485,01; 2724,789;   65,958; 3400,413;79,73810
 485,60; 2740,860;   73,764; 3490,590;78,05771
 486,18; 2730,577;   66,956; 3490,761;77,79710
 486,77; 2743,818;   67,252; 3519,736;77,52580
 487,36; 2774,649;   58,464; 3561,750;77,53249
 487,95; 2837,219;   59,161; 3640,781;77,56428
 488,53; 2841,931;   54,461; 3642,522;77,68735
 489,12; 2871,707;   50,563; 3722,252;76,83504
 489,71; 2851,625;   38,062; 3680,357;77,24698
 490,30; 2934,354;   61,460; 3742,503;78,04565
 490,88; 3006,207;   87,561; 3859,141;77,38524
 491,47; 2984,796;   60,663; 3867,512;76,81241
 492,06; 2989,954;   62,563; 3920,615;75,87746
 492,65; 3027,984;   59,161; 3947,060;76,36059
 493,23; 3081,490;   54,860; 3982,825;77,05338
 493,82; 3081,801;   65,853; 4018,031;76,31103
 494,41; 3099,860;   51,361; 4066,179;75,93119
 494,99; 3148,160;   73,655; 4126,945;75,85208
 495,58; 3200,254;   86,060; 4224,403;75,25219
 496,17; 3174,054;   56,356; 4198,681;75,26445
 496,76; 3197,177;   65,356; 4276,761;74,36523
 497,34; 3208,725;   54,557; 4305,235;74,20387
 497,93; 3212,536;   66,057; 4350,675;73,43663
 498,52; 3234,336;   60,059; 4454,387;72,23579
 499,10; 3277,113;   75,862; 4533,217;71,81953
 499,69; 3238,413;   55,360; 4537,006;71,02420
 500,28; 3234,160;   37,959; 4592,068;70,18279
 500,86; 3221,448;   62,862; 4698,539;68,13648
 501,45; 3205,848;   53,462; 4730,438;67,40223
 502,04; 3177,725;   53,362; 4813,958;65,62967
 502,62; 3200,154;   70,956; 4856,181;65,39291
 503,21; 3151,830;   57,856; 4939,699;63,37717
 503,80; 3159,601;   69,662; 5015,577;62,47458
 504,38; 3119,990;   58,460; 5081,425;60,95065
 504,97; 3042,301;   49,962; 5122,776;58,98775
 505,56; 3059,995;   70,859; 5194,989;58,33451
 506,14; 3029,337;   64,064; 5263,709;57,02837
 506,73; 2938,078;   23,565; 5292,507;55,31496
 507,32; 2937,931;   62,865; 5376,045;54,11196
 507,90; 2921,878;   70,860; 5443,284;53,06762
 508,49; 2899,566;   58,865; 5500,366;52,20437
 509,08; 2893,472;   67,264; 5571,931;51,34204
 509,66; 2858,366;   69,960; 5677,644;49,72474
 510,25; 2862,396;   63,561; 5737,400;49,32876
 510,83; 2810,278;   45,165; 5855,607;47,58869
 511,42; 2854,861;   61,968; 5895,913;47,87314
 512,01; 2848,913;   59,164; 5980,328;47,11488
 512,59; 2854,601;   46,562; 6041,676;46,83879
 513,18; 2845,760;   59,961; 6114,379;46,01266
 513,77; 2833,672;   42,257; 6171,797;45,54036
 514,35; 2873,066;   37,763; 6190,255;46,08382
 514,94; 2904,713;   58,662; 6323,517;45,42884
 515,52; 2937,572;   48,166; 6358,342;45,78963
 516,11; 3005,390;   80,665; 6474,047;45,74613
 516,69; 2943,048;   41,959; 6446,727;45,29577
 517,28; 3021,278;   83,358; 6541,973;45,48839
 517,87; 3028,301;   45,558; 6604,054;45,47908
 518,45; 3072,554;   74,858; 6626,192;45,75703
 519,04; 3112,719;   54,258; 6707,970;45,96623
 519,62; 3123,454;   55,863; 6774,114;45,66057
 520,21; 3169,660;   24,466; 6828,002;46,22882
 520,79; 3221,608;   52,068; 7000,875;45,61272
 521,38; 3243,343;   52,960; 6995,363;45,95502
 521,97; 3303,772;   43,068; 7141,554;45,93521
 522,55; 3318,107;   67,759; 7195,230;45,60311
 523,14; 3343,895;   26,759; 7180,289;46,37062
 523,72; 3425,131;   77,561; 7383,422;45,82033
 524,31; 3466,278;   71,665; 7406,107;46,28318
 524,89; 3493,219;   48,468; 7526,815;46,06301
 525,48; 3475,825;   21,666; 7603,580;45,55788
 526,06; 3462,213;   56,264; 7633,128;44,95196
 526,65; 3529,884;   72,370; 7803,105;44,72426
 527,23; 3503,978;   46,262; 7840,596;44,36191
 527,82; 3547,667;   37,967; 7905,978;44,60720
 528,41; 3560,637;   67,366; 8041,021;43,81016
 528,99; 3569,966;   66,365; 8108,167;43,56737
 529,58; 3576,590;   42,562; 8168,736;43,48944
 530,16; 3576,760;   49,461; 8315,379;42,67280
 530,75; 3611,625;   73,964; 8417,069;42,40221
 531,33; 3602,525;   45,566; 8440,980;42,36788
 531,92; 3578,966;   48,560; 8567,344;41,44261
 532,50; 3664,231;   87,770; 8706,468;41,49654
 533,09; 3671,819;   65,665; 8807,204;41,25308
 533,67; 3645,331;   63,458; 8952,011;40,29759
 534,26; 3619,601;   65,760; 9007,665;39,74367
 534,84; 3660,484;   68,461; 9127,061;39,65318
 535,42; 3689,425;   61,564; 9205,969;39,67301
 536,01; 3758,454;   79,263; 9330,215;39,77095
 536,59; 3705,061;   43,366; 9482,202;38,79392
 537,18; 3809,613;   77,360; 9568,605;39,32311
 537,76; 3864,967;   56,972; 9764,700;39,22643
 538,35; 3884,184;   59,368; 9892,694;38,89646
 538,93; 3983,613;   72,664; 9941,828;39,62797
 539,52; 4041,684;   57,370;10111,405;39,62901
 540,10; 4142,278;   63,269;10309,029;39,81168
 540,69; 4180,884;   68,763;10444,071;39,63372
 541,27; 4319,113;   58,262;10514,917;40,74775
 541,85; 4437,784;   47,366;10658,783;41,37448
 542,44; 4576,378;   56,460;10765,484;42,20663
 543,02; 4780,378;   80,369;10952,729;43,22897
 543,61; 4915,478;   77,067;11102,218;43,88521
 544,19; 5023,096;   55,066;11264,023;44,32196
 544,78; 5190,849;   62,766;11296,562;45,64871
 545,36; 5392,402;   77,469;11521,011;46,44482
 545,94; 5595,325;   54,564;11563,069;48,14492
 546,53; 5744,291;   52,771;11724,882;48,76170
 547,11; 5909,249;   90,668;11879,873;49,35516
 547,70; 6038,213;   75,860;11954,706;50,19303
 548,28; 6138,667;   47,965;12093,066;50,56580
 548,86; 6304,167;   81,365;12327,767;50,81331
 549,45; 6380,572;   33,768;12364,953;51,46954
 550,03; 6569,455;   76,467;12507,537;52,23193
 550,62; 6602,272;   63,566;12662,842;51,89748
 551,20; 6776,578;   61,467;12808,418;52,68014
 551,78; 6806,349;   61,164;12952,850;52,32198
 552,37; 6901,125;   55,864;13112,469;52,42757
 552,95; 6962,690;   56,765;13214,547;52,48548
 553,54; 7047,478;   49,965;13393,207;52,44238
 554,12; 7160,143;   67,167;13498,797;52,80801
 554,70; 7252,149;   67,568;13736,973;52,55957
 555,29; 7289,043;   61,965;13856,285;52,39169
 555,87; 7350,108;   60,170;13987,786;52,34161
 556,45; 7400,125;   57,162;14154,058;52,08922
 557,04; 7478,102;   43,667;14376,600;51,86960
 557,62; 7543,502;   68,867;14525,499;51,70385
 558,20; 7609,378;   42,671;14799,940;51,27444
 558,79; 7700,508;  100,368;14905,875;51,33320
 559,37; 7769,578;   49,867;15000,418;51,63496
 559,95; 7823,925;   46,669;15169,691;51,42660
 560,54; 7912,460;   71,768;15324,613;51,40478
 561,12; 7930,349;   50,866;15485,562;51,05046
 561,70; 8056,114;   50,369;15679,551;51,22306
 562,29; 8116,684;   61,768;15810,994;51,14484
 562,87; 8168,772;   73,168;16023,953;50,75364
 563,45; 8296,572;   71,068;16194,754;51,01504
 564,04; 8274,778;   54,362;16227,195;50,82855
 564,62; 8403,137;   37,769;16438,332;51,00659
 565,20; 8493,049;   59,962;16715,838;50,63130
 565,78; 8634,154;   70,765;16797,326;51,19635
 566,37; 8607,584;   71,066;17011,283;50,39202
 566,95; 8700,578;   52,969;17124,330;50,65565
 567,53; 8792,325;   67,262;17308,857;50,60473
 568,12; 8795,866;   62,265;17367,766;50,46720
 568,70; 8967,102;   85,264;17565,889;50,80961
 569,28; 9050,313;   61,069;17745,252;50,83212
 569,86; 9178,290;   67,767;17910,758;51,05939
 570,45; 9247,366;   78,569;18124,689;50,80758
 571,03; 9208,837;   53,962;18259,898;50,28511
 571,61; 9380,861;   46,571;18424,824;50,78987
 572,19; 9378,543;   54,263;18395,773;50,83703
 572,78; 9465,708;   70,668;18668,975;50,51557
 573,36; 9611,925;   84,264;18797,668;50,91356
 573,94; 9641,049;   44,064;18892,750;50,91594
 574,52; 9660,960;   54,559;19030,768;50,62339
 575,11; 9711,372;   37,264;19159,830;50,59001
 575,69; 9817,125;   53,566;19268,680;50,81187
 576,27; 9859,419;   47,161;19391,381;50,72450
 576,85; 9980,525;   43,264;19549,668;50,94358
 577,44;10004,725;   30,262;19814,158;50,41708
 578,02; 9993,036;   32,159;19753,887;50,50712
 578,60;10142,960;   50,464;20073,791;50,40369
 579,18;10206,607;   51,963;20160,752;50,49854
 579,76;10288,113;   40,264;20300,129;50,58202
 580,35;10308,743;   60,170;20436,707;50,29595
 580,93;10462,432;   59,667;20641,557;50,54329
 581,51;10472,132;   24,770;20697,168;50,53774
 582,09;10479,066;   58,663;20755,756;50,34719
 582,67;10550,278;   49,567;20971,318;50,19040
 583,26;10597,860;   28,568;21227,014;49,85881
 583,84;10666,837;   14,164;21413,709;49,77990
 584,42;10753,602;   48,064;21513,287;49,87387
 585,00;10904,325;   81,366;21772,180;49,89651
 585,58;10900,102;   25,167;21912,299;49,68643
 586,17;10980,131;   46,761;21948,521;49,92005
 586,75;10939,761;    6,666;22026,902;49,65022
 587,33;11035,566;   47,767;22191,678;49,61996
 587,91;11123,761;   74,866;22390,201;49,51256
 588,49;11145,024;   63,962;22349,758;49,72253
 589,07;11112,020;   45,468;22403,215;49,49762
 589,65;11080,113;   28,267;22444,439;49,30300
 590,24;11113,937;   42,562;22447,799;49,41423
 590,82;11088,084;   28,261;22484,160;49,25130
 591,40;11150,537;   41,464;22520,209;49,42034
 591,98;11118,148;   45,759;22558,227;49,18337
 592,56;11151,283;   61,161;22699,961;48,98723
 593,14;11239,048;   43,359;22728,928;49,35159
 593,72;11273,278;   29,765;22889,107;49,18564
 594,30;11254,036;   36,759;22797,486;49,28347
 594,89;11178,014;   41,364;22862,428;48,79987
 595,47;11240,831;   38,961;22922,623;48,95139
 596,05;11286,102;   30,267;23003,799;48,99479
 596,63;11270,401;   31,167;23056,199;48,81311
 597,21;11390,872;   36,766;23145,441;49,13352
 597,79;11394,813;   35,467;23166,039;49,10967
 598,37;11400,555;   36,669;23222,748;49,01167
 598,95;11399,561;   50,766;23305,301;48,80250
 599,53;11387,371;   46,757;23207,996;48,96376
 600,11;11427,390;   48,665;23341,947;48,84981
 600,70;11416,896;   57,363;23315,111;48,84193
 601,28;11502,037;   38,564;23424,809;49,01802
 601,86;11501,860;   61,766;23355,102;49,11317
 602,44;11492,584;   23,661;23449,660;48,95809
 603,02;11563,166;   38,656;23576,521;48,96158
 603,60;11636,166;   54,858;23663,232;49,05593
 604,18;11595,031;   69,263;23594,734;48,99272
 604,76;11595,466;   59,263;23642,154;48,91768
 605,34;11485,407;   27,565;23530,764;48,75014
 605,92;11486,472;   59,561;23453,719;48,84515
 606,50;11522,537;   17,662;23498,998;48,99583
 607,08;11483,925;   31,666;23394,881;49,01833
 607,66;11514,772;   39,266;23561,643;48,78549
 608,24;11456,090;   46,067;23522,059;48,60294
 608,82;11488,272;   26,164;23532,031;48,76276
 609,40;11396,937;   46,466;23471,021;48,45544
 609,98;11334,413;   18,864;23505,928;48,17779
 610,56;11368,343;   43,861;23497,662;48,28421
 611,14;11281,243;   30,765;23481,086;47,97580
 611,72;11216,366;   42,665;23572,467;47,48744
 612,30;11137,778;   24,962;23468,496;47,40248
 612,88;11171,607;   60,659;23517,730;47,36716
 613,46;11052,637;   21,862;23505,697;46,97178
 614,04;10952,249;   30,068;23461,873;46,61263
 614,62;10849,219;   41,561;23489,982;46,09120
 615,20;10751,520;   52,768;23402,416;45,81976
 615,78;10656,878;   25,569;23463,430;45,35955
 616,36;10538,349;   41,364;23400,150;44,93806
 616,94;10434,572;    7,666;23272,242;44,81881
 617,52;10268,932;   24,067;23373,656;43,87599
 618,10;10184,271;   63,559;23336,107;43,48777
 618,68;10020,684;   17,966;23253,184;43,04981
 619,26; 9803,396;   39,268;23398,834;41,79927
 619,84; 9648,631;   18,963;23277,133;41,40338
 620,42; 9500,979;   31,165;23313,506;40,67380
 621,00; 9373,878;   28,865;23209,607;40,31369
 621,58; 9140,013;   38,760;23216,406;39,26737
 622,16; 9009,772;   49,270;23335,164;38,48039
 622,74; 8827,272;   47,066;23327,742;37,71457
 623,32; 8621,195;   42,166;23291,223;36,90055
 623,90; 8571,749;   66,971;23311,484;36,58833
 624,48; 8363,137;   32,662;23196,598;35,96312
 625,05; 8326,736;   34,562;23105,098;35,94270
 625,63; 8155,737;   52,962;23188,799;35,02261
 626,21; 8099,478;   38,262;23117,596;34,92829
 626,79; 8157,878;   53,967;23219,719;34,98229
 627,37; 8188,313;   28,162;23090,717;35,38268
 627,95; 8223,220;   72,768;23200,215;35,24147
 628,53; 8292,979;   49,365;23176,607;35,64460
 629,11; 8366,983;   48,259;23043,449;36,17593
 629,69; 8505,237;   53,369;23256,932;36,42487
 630,27; 8672,531;   80,763;23105,434;37,31549
 630,84; 8730,236;   43,862;23021,197;37,80410
 631,42; 8853,731;   54,367;23319,656;37,82186
 632,00; 8966,060;   45,459;23125,768;38,65027
 632,58; 9036,684;   50,263;23105,172;38,97834
 633,16; 9104,584;   49,870;23096,906;39,28797
 633,74; 9075,302;   56,264;23018,488;39,27772
 634,32; 9131,107;   45,661;23007,842;39,56700
 634,90; 9255,096;   51,970;23195,746;39,76501
 635,47; 9161,566;   38,860;23035,645;39,66949
 636,05; 9125,507;   37,461;22989,342;39,59608
 636,63; 9067,078;   45,965;23104,807;39,12214
 637,21; 9058,813;   67,464;23150,529;38,95215
 637,79; 9009,020;   71,465;23192,904;38,65484
 638,37; 8870,313;   54,055;23070,883;38,30353
 638,94; 8802,643;   33,265;23100,686;38,01629
 639,52; 8704,442;   41,665;23195,285;37,41435
 640,10; 8630,171;   64,264;23215,900;36,99914
 640,68; 8516,329;   54,164;23175,334;36,59921
 641,26; 8399,888;   35,864;23250,268;36,02946
 641,84; 8333,446;   39,164;23235,002;35,75763
 642,41; 8249,204;   28,264;23192,936;35,48913
 642,99; 8145,763;   48,464;23145,568;35,05764
 643,57; 8112,121;   22,064;23158,402;34,96689
 644,15; 8034,379;   27,064;23178,035;34,58738
 644,73; 8066,438;   37,564;23277,568;34,54764
 645,30; 8064,396;   55,264;23230,303;34,55930
 645,88; 8053,554;   44,964;23362,635;34,34558
 646,46; 8118,013;   59,264;23447,568;34,45632
 647,04; 8133,571;   51,864;23367,902;34,66158
 647,61; 8171,329;   46,564;23396,336;34,79591
 648,19; 8214,588;   61,664;23433,369;34,88374
 648,77; 8207,046;   26,264;23442,002;34,93711
 649,35; 8261,704;   51,064;23590,137;34,88090
 649,92; 8288,563;   42,464;23596,070;35,00992
 650,50; 8182,821;   30,064;23551,104;34,66155
 651,08; 8194,979;   39,964;23450,537;34,83475
 651,66; 8245,838;   21,864;23534,770;34,97642
 652,23; 8267,796;   39,064;23561,004;34,98322
 652,81; 8254,754;   36,464;23644,137;34,81194
 653,39; 8285,112;   56,164;23647,170;34,88172
 653,97; 8231,071;   37,065;23882,504;34,36299
 654,54; 8202,929;   23,565;23823,137;34,36769
 655,12; 8217,188;   30,965;23831,971;34,39444
 655,70; 8293,446;   42,065;23962,805;34,49468
 656,28; 8278,304;   32,765;23947,037;34,47957
 656,85; 8280,263;   44,065;24051,070;34,30748
 657,43; 8238,221;   -1,035;23831,305;34,57175
 658,01; 8284,679;   21,465;24078,539;34,34837
 658,58; 8452,438;   55,165;24234,371;34,72932
 659,16; 8440,696;   51,965;24154,105;34,80492
 659,74; 8523,354;   59,465;24338,039;34,86156
 660,32; 8610,412;   71,665;24327,672;35,20261
 660,89; 8578,070;   34,265;24347,305;35,14084
 661,47; 8681,629;   51,665;24464,939;35,34947
 662,05; 8725,987;   25,365;24587,373;35,42309
 662,62; 8858,246;   59,665;24584,006;35,87693
 663,20; 8891,104;   80,665;24740,139;35,72842
 663,78; 8927,063;   47,965;24902,773;35,72386
 664,35; 8989,921;   52,465;24921,006;35,93880
 664,93; 9042,079;   64,465;25123,539;35,82580
 665,51; 9039,537;   49,565;25170,973;35,78610
 666,08; 9001,496;   30,165;25185,707;35,66344
 666,66; 9103,154;   47,465;25667,539;35,34607
 667,23; 9061,313;   51,765;25732,773;35,08253
 667,81; 9118,671;   65,865;25889,307;35,05654
 668,39; 9054,029;   43,265;26047,141;34,65162
 668,96; 9089,088;   54,665;26309,074;34,41107
 669,54; 9091,445;   38,765;26408,408;34,32993
 670,12; 9163,204;   51,165;26808,740;34,05405
 670,69; 9189,463;   64,165;26950,674;33,94006
 671,27; 9120,721;   25,565;27096,008;33,59810
 671,84; 9107,679;   40,665;27105,240;33,50141
 672,42; 9196,737;   66,265;27253,875;33,58321
 673,00; 9253,096;   57,165;27531,408;33,47110
 673,57; 9189,554;   59,965;27276,441;33,54434
 674,15; 9313,112;   64,065;27613,475;33,57258
 674,72; 9285,471;   58,565;27536,209;33,57968
 675,30; 9363,329;   69,466;27513,541;33,86474
 675,88; 9443,088;   36,266;27573,176;34,16078
 676,45; 9540,146;   59,466;27677,309;34,32810
 677,03; 9590,604;   67,866;27525,043;34,68215
 677,60; 9693,362;   41,466;27770,576;34,80781
 678,18; 9749,921;   59,466;27877,510;34,83514
 678,76; 9740,679;   40,766;27809,143;34,93151
 679,33; 9865,037;   57,666;27813,176;35,33486
 679,91; 9850,796;   44,266;27813,311;35,31461
 680,48; 9819,854;   28,766;27740,242;35,33225
 681,06; 9900,212;   50,866;27735,176;35,57736
 681,63; 9797,771;   37,566;27736,209;35,23712
 682,21; 9951,829;   67,966;27797,543;35,64376
 682,78; 9770,688;   20,566;27459,576;35,53379
 683,36; 9774,546;   46,966;27565,510;35,34918
 683,93; 9713,504;   30,466;27450,645;35,31355
 684,51; 9712,962;   26,166;27477,277;35,28745
 685,08; 9756,021;   38,966;27733,711;35,08628
 685,66; 9735,779;   53,066;27694,045;35,03028
 686,24; 9730,537;   33,766;27796,578;34,92719
 686,81; 9757,496;   57,666;27899,910;34,83854
 687,39; 9708,554;   38,866;27807,844;34,82191
 687,96; 9776,412;   54,166;27850,479;34,97675
 688,54; 9812,471;   30,866;27984,811;34,99186
 689,11; 9804,429;   26,966;28043,545;34,89885
 689,69; 9803,688;   29,666;28019,279;34,92017
 690,26; 9971,346;   59,466;28289,313;35,11135
 690,84;10015,704;   50,066;28239,846;35,35195
 691,41;10167,263;   35,966;28403,879;35,71393
 691,98;10211,721;   31,466;28427,912;35,85045
 692,56;10256,979;   32,866;28437,445;35,99459
 693,13;10414,138;   64,866;28655,080;36,19865
 693,71;10474,596;   24,466;28657,912;36,49623
 694,28;10522,854;   41,966;28715,945;36,55191
 694,86;10584,912;   47,266;28928,879;36,48566
 695,43;10746,671;   61,366;29100,912;36,79570
 696,01;10833,229;   36,266;29145,547;37,09113
 696,58;10833,587;   42,167;29083,879;37,15835
 697,16;10805,046;   38,067;29126,414;37,01475
 697,73;10896,104;   63,467;29338,246;37,00331
 698,30;10858,962;   51,867;29223,980;37,04598
 698,88;10824,121;   40,467;29558,613;36,53229
 699,45;10926,879;   35,367;29765,848;36,63416
 700,03;10986,037;   56,067;29750,980;36,80755
 700,60;10886,996;   56,267;29850,613;36,35163
 701,18;11015,954;   61,867;29963,947;36,63319
 701,75;11098,712;   74,367;30094,682;36,72295
 702,32;10978,570;   50,367;29901,914;36,60850
 702,90;11004,229;   52,467;30254,148;36,26209
 703,47;11097,888;   51,367;30428,881;36,36414
 704,05;11104,445;   67,767;30546,715;36,21082
 704,62;11179,504;   39,867;30587,848;36,46603
 705,19;11222,662;   43,667;30586,982;36,60046
 705,77;11274,121;   29,967;30618,314;36,75960
 706,34;11335,379;   61,667;30627,049;36,88392
 706,91;11383,438;   46,367;30673,883;37,01596
 707,49;11526,596;   57,267;30976,316;37,09470
 708,06;11670,154;   66,367;31089,049;37,40420
 708,64;11668,513;   25,767;31093,582;37,47526
 709,21;11886,271;   58,167;31179,316;38,00664
 709,78;12016,829;   41,367;31281,150;38,33401
 710,36;12163,987;   61,667;31419,684;38,59402
 710,93;12201,546;   50,567;31562,416;38,56003
 711,50;12350,504;   44,467;31506,049;39,11449
 712,08;12480,263;   76,567;31925,383;38,94555
 712,65;12499,221;   73,667;31775,916;39,19455
 713,22;12541,079;   69,067;31900,250;39,18174
 713,80;12580,138;   84,167;31966,883;39,19356
 714,37;12553,596;   55,767;31827,018;39,33691
 714,94;12565,954;   53,967;31727,551;39,50291
 715,52;12543,112;   47,867;31732,984;39,43569
 716,09;12580,671;   65,467;31891,918;39,32328
 716,66;12580,829;   73,467;31935,051;39,25530
 717,23;12623,287;   66,867;31908,484;39,43399
 717,81;12553,245;   50,168;31812,018;39,36508
 718,38;12472,604;   47,468;31671,252;39,29048
 718,95;12412,662;   59,068;31618,984;39,14331
 719,53;12402,221;   56,568;31661,418;39,06253
 720,10;12250,379;   59,968;31481,252;38,79667
 720,67;12282,337;   35,768;31355,984;39,10116
 721,24;12257,296;   59,468;31256,020;39,09992
 721,82;12249,554;   49,968;31236,053;39,11868
 722,39;12329,813;   64,068;31235,885;39,34883
 722,96;12390,070;   64,968;31261,420;39,50803
 723,53;12445,529;   88,268;31151,953;39,78041
 724,11;12581,388;   61,568;31207,486;40,19731
 724,68;12603,046;   71,568;31242,020;40,20307
 725,25;12750,504;   72,768;31399,953;40,46880
 725,82;12943,862;   96,068;31564,387;40,82771
 726,40;13060,820;   62,668;31714,820;41,06562
 726,97;13181,579;   62,168;31875,354;41,23891
 727,54;13311,537;   46,968;31801,486;41,77223
 728,11;13403,495;   49,568;32045,820;41,73591
 728,69;13465,854;   39,568;31938,953;42,08948
 729,26;13592,712;   53,568;32105,088;42,24182
 729,83;13677,671;   53,268;32264,621;42,29690
 730,40;13788,329;   66,768;32291,754;42,58050
 730,97;13849,188;   44,268;32590,588;42,41622
 731,55;14018,846;   41,468;32755,820;42,72552
 732,12;13997,504;   86,268;32841,656;42,47007
 732,69;13994,762;   66,968;32889,988;42,43300
 733,26;14025,320;   55,168;32930,520;42,49431
 733,83;14105,179;   41,168;32979,055;42,69858
 734,41;14146,537;   65,468;32991,590;42,76565
 734,98;14181,495;   51,368;33155,621;42,68372
 735,55;14145,654;   43,168;33183,656;42,55365
 736,12;14149,112;   65,968;33377,289;42,27735
 736,69;14181,971;   76,968;33377,922;42,35615
 737,26;14120,029;   57,468;33552,254;41,98433
 737,84;14101,487;   70,768;33487,188;41,98750
 738,41;14259,646;   63,168;33492,422;42,46723
 738,98;14248,404;   63,569;33375,055;42,58242
 739,55;14251,362;   49,669;33377,789;42,61175
 740,12;14310,421;   62,969;33678,023;42,38414
 740,69;14335,679;   70,569;33575,656;42,57595
 741,26;14420,337;   56,269;33557,391;42,87638
 741,83;14507,695;   53,869;33719,523;42,93345
 742,41;14695,554;   56,169;33833,055;43,34143
 742,98;14780,112;   91,469;33874,590;43,47924
 743,55;14794,171;   53,569;33836,824;43,63286
 744,12;14845,529;   50,469;33859,855;43,76022
 744,69;15042,387;   59,569;33848,492;44,34240
 745,26;15091,245;   42,169;33677,723;44,74157
 745,83;15150,004;   58,769;33854,355;44,65446
 746,40;15189,662;   57,969;33844,789;44,78579
 746,97;15303,421;   44,769;33828,125;45,16618
 747,55;15451,079;   62,269;33966,957;45,38844
 748,12;15538,237;   57,869;33910,191;45,72912
 748,69;15660,995;   68,769;33877,625;46,11876
 749,26;15651,754;   65,069;33958,559;45,98725
 749,83;15636,712;   42,569;33911,992;46,04195
 750,40;15657,171;   89,669;34158,824;45,69383
 750,97;15680,729;   96,269;34144,160;45,77217
 751,54;15675,887;   40,569;33980,793;46,06722
 752,11;15678,646;   52,969;33874,727;46,20007
 752,68;15682,004;   87,869;33912,859;46,10241
 753,25;15645,962;   60,269;33774,594;46,22870
 753,82;15684,120;   65,069;33810,527;46,28490
 754,39;15748,079;   75,169;33727,160;46,57350
 754,96;15611,938;   60,069;33616,395;46,34556
 755,53;15599,495;   29,469;33796,527;46,11010
 756,10;15520,254;   64,169;33720,961;45,92263
 756,67;15497,012;   73,369;33813,395;45,71319
 757,24;15362,971;   72,769;33740,426;45,41510
 757,81;15385,229;   16,469;33677,762;45,65707
 758,38;15468,087;   54,569;33822,695;45,64517
 758,95;15502,146;   79,469;33743,426;45,81362
 759,52;15414,903;   57,469;33615,859;45,76332
 760,09;15433,262;   68,570;33306,992;46,22570
 760,66;15382,021;   59,570;33309,727;46,08234
 761,23;15438,278;   91,070;33353,961;46,13913
 761,80;15362,438;   56,270;33295,793;46,04810
 762,37;15515,896;   68,970;33167,727;46,66920
 762,94;15597,254;   70,970;33187,461;46,88384
 763,51;15577,112;   36,070;32949,793;47,21752
 764,08;15573,570;   66,270;32998,527;47,08848
 764,65;15640,129;   69,570;32798,961;47,57363
 765,22;15617,587;   54,670;32804,496;47,52061
 765,79;15619,245;   77,370;32691,928;47,65318
 766,36;15717,504;   73,170;32743,063;47,88609
 766,93;15779,762;   68,970;32551,295;48,36720
 767,50;15809,721;   89,470;32828,328;48,01710
 768,07;15832,778;   63,870;32699,262;48,31843
 768,64;15862,037;   86,470;32572,596;48,56094
 769,21;15746,995;   57,970;32359,729;48,57019
 769,78;15751,454;   78,770;32244,963;48,72409
 770,34;15719,012;   45,570;32031,195;49,00152
 770,91;15609,170;   58,470;31921,430;48,80494
 771,48;15608,729;   62,370;31836,863;48,92716
 772,05;15575,487;   66,470;31610,697;49,16594
 772,62;15410,846;   42,670;31443,029;48,94267
 773,19;15563,204;   59,370;31579,764;49,18668
 773,76;15491,563;   71,070;31506,297;49,05482
 774,33;15378,221;   74,170;31447,330;48,78071
 774,90;15201,179;   52,870;31206,064;48,62522
 775,47;15273,137;   59,970;30957,498;49,23749
 776,03;15177,495;   73,470;30984,330;48,86317
 776,60;15061,554;   55,970;30757,863;48,87511
 777,17;15002,012;   65,470;30698,098;48,76024
 777,74;14983,670;   30,870;30522,031;49,03978
 778,31;14926,329;   68,970;30582,064;48,69175
 778,88;14958,887;   30,470;30366,898;49,20954
 779,45;14793,146;   75,770;30358,131;48,60049
 780,01;14784,104;   58,370;30299,664;48,69412
 780,58;14705,962;   60,570;30177,998;48,62763
 781,15;14720,021;   38,771;29979,432;49,03449
 781,72;14673,278;   66,771;29962,266;48,85856
 782,29;14646,337;   51,771;29667,100;49,28045
 782,86;14635,695;   55,571;29617,732;49,32022
 783,42;14546,354;   56,171;29598,166;49,04944
 783,99;14502,312;   66,671;29482,100;49,07506
 784,56;14435,971;   55,171;29320,232;49,13982
 785,13;14415,229;   40,271;29247,266;49,21752
 785,70;14367,287;   49,071;29060,299;49,35405
 786,26;14309,346;   51,671;28910,732;49,40450
 786,83;14313,304;   84,371;28889,166;49,39779
 787,40;14199,762;   57,171;28783,500;49,23215
 787,97;14164,420;   43,971;28581,133;49,48092
 788,54;14023,579;   70,371;28515,268;49,05347
 789,10;14068,937;   57,971;28344,400;49,53246
 789,67;13993,695;   70,371;28245,334;49,41737
 790,24;13991,854;   51,071;28193,768;49,53606
 790,81;13838,112;   88,271;27914,400;49,41342
 791,37;13867,670;   73,671;27872,135;49,62144
 791,94;13923,129;   70,771;27886,367;49,80069
 792,51;13681,887;   46,271;27539,201;49,59681
 793,08;13690,846;   69,771;27555,234;49,55738
 793,64;13637,104;   71,271;27455,168;49,53945
 794,21;13570,262;   69,671;27250,602;49,66935
 794,78;13516,721;   53,071;27147,035;49,69243
 795,35;13436,479;   73,471;27007,969;49,61298
 795,91;13331,337;   48,071;26789,301;49,67335
 796,48;13278,695;   55,771;26710,734;49,60774
 797,05;13168,454;   57,671;26624,369;49,35044
 797,62;13164,112;   41,971;26600,701;49,40801
 798,18;13038,670;   57,471;26410,736;49,25841
 798,75;13071,929;   56,571;26279,770;49,63299
 799,32;13066,487;   60,771;26209,102;49,73823
 799,88;13051,545;   55,971;26051,535;49,99150
 800,45;12974,004;   33,971;25945,270;49,93973
 801,02;12992,662;   65,271;25880,104;50,07738
 801,58;12992,420;   90,872;25660,436;50,45666
 802,15;12847,778;   72,872;25615,270;50,01452
 802,72;12806,637;   66,172;25404,703;50,28099
 803,28;12784,795;   49,172;25288,938;50,45856
 803,85;12782,653;   41,972;25144,871;50,75383
 804,42;12751,412;   77,772;24948,004;50,95908
 804,98;12605,170;  100,672;24935,537;50,35058
 805,55;12591,429;   56,972;24702,371;50,85922
 806,12;12492,087;   83,572;24611,004;50,59036
 806,68;12346,346;   66,472;24493,738;50,27118
 807,25;12344,703;   74,972;24436,271;50,36567
 807,82;12361,062;   86,872;24407,805;50,46759
 808,38;12321,820;   73,672;24367,037;50,41767
 808,95;12220,179;   62,972;24166,971;50,43647
 809,52;12209,437;   50,272;24162,004;50,42842
 810,08;12174,096;   55,172;23994,938;50,62257
 810,65;12274,153;   77,172;24169,672;50,62564
 811,21;12192,112;   69,972;24123,404;50,39672
 811,78;12216,870;   92,472;24337,539;50,00769
 812,35;12137,229;   64,972;24173,871;50,07386
 812,91;12125,887;   90,072;24239,705;49,83850
 813,48;12138,846;   68,172;24202,738;50,01405
 814,04;12165,403;   64,172;24088,373;50,37100
 814,61;12033,962;   77,572;24176,006;49,61480
 815,18;11880,620;   67,772;23892,539;49,58222
 815,74;11925,078;   69,772;23709,172;50,15062
 816,31;11891,637;   83,372;23614,406;50,18166
 816,87;11857,195;   43,272;23489,641;50,38701
 817,44;11743,254;   76,972;23452,273;49,90858
 818,00;11652,912;   43,272;23159,506;50,22289
 818,57;11657,870;   71,872;23076,340;50,36412
 819,14;11527,429;   82,872;22924,273;50,10444
 819,70;11407,987;   72,672;22792,707;49,89127
 820,27;11374,345;   62,972;22691,941;49,98625
 820,83;11281,703;   70,072;22541,373;49,89311
 821,40;11215,562;   98,072;22431,908;49,77868
 821,96;11258,720;   75,272;22315,541;50,28468
 822,53;11214,879;   70,973;22257,574;50,22809
 823,09;11085,837;   81,073;22073,309;50,03932
 823,66;10959,795;   68,173;21862,541;49,97448
 824,22;10935,754;   77,173;21851,674;49,86834
 824,79;10855,312;   75,473;21561,408;50,17161
 825,35;10890,670;   65,173;21648,041;50,15782
 825,92;10797,729;   75,173;21398,875;50,28468
 826,48;10762,587;   87,673;21501,309;49,85101
 827,05;10643,345;   89,573;21448,242;49,41212
 827,61;10575,104;   75,273;21249,076;49,58878
 828,18;10514,462;   60,873;21191,209;49,47195
 828,74;10513,320;   91,673;21053,543;49,71716
 829,31;10481,078;   83,373;21002,176;49,70507
 829,87;10421,537;   73,073;20733,709;50,08783
 830,44;10386,495;   85,173;20631,443;50,13719
 831,00;10366,153;   91,273;20673,977;49,91997
 831,57;10250,512;  101,573;20631,609;49,43459
 832,13;10082,070;   72,073;20323,344;49,42898
 832,69;10025,129;   58,173;20309,477;49,21637
 833,26;10065,387;   85,473;20322,711;49,31460
 833,82; 9927,945;   93,073;20197,744;48,91834
 834,39; 9926,203;   78,773;20137,477;49,09305
 834,95; 9906,861;   57,173;19959,410;49,49036
 835,52; 9819,620;   87,873;19851,744;49,24009
 836,08; 9891,278;   95,573;19951,877;49,33297
 836,64; 9859,736;   76,273;19800,711;49,60072
 837,21; 9733,595;   88,673;19552,443;49,55320
 837,77; 9763,254;   91,873;19491,777;49,85272
 838,34; 9606,212;   67,473;19470,012;49,16232
 838,90; 9605,370;   64,473;19306,045;49,58481
 839,46; 9584,028;   83,873;19312,479;49,40637
 840,03; 9529,187;   76,173;19300,811;49,17135
 840,59; 9530,345;   85,873;19175,645;49,47399
 841,16; 9547,703;  105,173;19156,578;49,56343
 841,72; 9396,562;   59,373;18965,512;49,38707
 842,28; 9420,521;   77,873;18857,246;49,74952
 842,85; 9390,879;   95,573;18812,578;49,66236
 843,41; 9397,837;  105,374;18740,813;49,86447
 843,97; 9386,595;   89,174;18686,846;49,99239
 844,54; 9342,653;  104,774;18624,979;49,88001
 845,10; 9366,111;   89,174;18523,713;50,32368
 845,67; 9197,470;   68,774;18413,445;49,76211
 846,23; 9179,328;   78,674;18361,080;49,77821
 846,79; 9104,587;   90,474;18265,613;49,59584
 847,36; 9038,646;   55,774;18179,047;49,56539
 847,92; 9070,903;   84,874;18034,680;50,06199
 848,48; 9014,361;   41,874;18039,213;49,85452
 849,04; 9008,220;   62,374;17949,447;50,01291
 849,61; 8851,979;   56,274;17918,580;49,24171
 850,17; 8894,236;   68,174;17819,514;49,72054
 850,73; 8792,195;   71,474;17764,848;49,28806
 851,30; 8694,754;   46,074;17669,881;49,07385
 851,86; 8700,812;   75,874;17597,914;49,22336
 852,42; 8707,670;   51,174;17568,348;49,41720
 852,99; 8747,328;   79,274;17583,082;49,52096
 853,55; 8701,287;   83,174;17542,514;49,36105
 854,11; 8685,646;   70,074;17432,049;49,62322
 854,67; 8659,903;   85,474;17420,881;49,46194
 855,24; 8537,962;   51,874;17213,414;49,44829
 855,80; 8523,320;   76,874;17244,848;49,19885
 856,36; 8514,179;   80,574;17175,881;49,33286
 856,92; 8445,736;   54,474;17027,215;49,43964
 857,49; 8462,695;   81,274;17048,248;49,39844
 858,05; 8381,354;   67,274;16968,482;49,19222
 858,61; 8377,812;   65,774;17003,316;49,07464
 859,17; 8297,470;   77,374;16904,250;48,85099
 859,74; 8275,628;   82,074;16836,883;48,90270
 860,30; 8286,287;   93,074;16663,016;49,44624
 860,86; 8233,945;   72,074;16692,350;49,10792
 861,42; 8186,803;   74,674;16545,883;49,25036
 861,99; 8081,962;   54,674;16506,717;48,79204
 862,55; 8131,620;   66,374;16393,051;49,39919
 863,11; 8135,979;   75,174;16437,283;49,26507
 863,67; 8083,837;   61,274;16290,117;49,43398
 864,23; 8072,495;   80,175;16199,351;49,58269
 864,80; 7991,253;   69,175;16081,384;49,47524
 865,36; 7922,212;   71,875;16120,817;48,91498
 865,92; 7923,770;   96,175;16088,751;48,94518
 866,48; 7886,928;   67,375;15987,384;49,11777
 867,04; 7842,987;   60,675;15891,418;49,15949
 867,60; 7826,345;   99,375;15884,451;48,95111
 868,17; 7798,403;   93,675;15884,685;48,79187
 868,73; 7653,262;   82,775;15672,618;48,56038
 869,29; 7622,820;   59,475;15470,151;49,07860
 869,85; 7699,479;  100,475;15369,685;49,76684
 870,41; 7560,937;   80,575;15293,418;49,17136
 870,97; 7542,095;   92,975;15232,252;49,20394
 871,54; 7461,653;   84,175;15178,686;48,87524
 872,10; 7495,212;   84,275;15055,419;49,50147
 872,66; 7393,070;   66,775;14910,652;49,35567
 873,22; 7315,928;   81,975;14890,586;48,84964
 873,78; 7219,086;   65,275;14742,419;48,74117
 874,34; 7185,045;   95,075;14662,652;48,66952
 874,90; 7204,645;  109,775;14536,053;49,18018
 875,46; 7137,545;   96,375;14412,952;49,18194
 876,03; 7038,645;   86,475;14363,353;48,69531
 876,59; 7001,645;   64,475;14153,253;49,23898
 877,15; 7014,245;  101,475;14166,853;49,14742
 877,71; 6969,745;   78,275;14064,652;49,27273
 878,27; 6904,045;   95,675;13910,553;49,28288
 878,83; 6926,645;  114,275;13971,753;49,16024
 879,39; 6882,145;   91,075;14082,753;48,53649
 879,95; 6789,745;   86,275;13964,253;48,30293
 880,51; 6832,045;   75,175;13927,253;48,77875
 881,07; 6927,245;   82,375;13978,753;49,25651
 881,63; 6923,245;   92,575;13971,253;49,21701
 882,19; 6946,245;   82,675;13921,553;49,59629
 882,75; 6911,445;   86,275;14019,553;48,98467
 883,31; 6928,845;   95,575;14187,853;48,48947
 883,88; 6923,145;   96,375;14174,353;48,49255
 884,44; 6937,445;   76,175;14175,753;48,66294
 885,00; 7017,945;  106,075;14266,952;48,80962
 885,56; 7011,445;  101,675;14299,452;48,66797
 886,12; 7050,445;  109,875;14421,152;48,49721
 886,68; 7001,145;   90,775;14436,753;48,16939
 887,24; 7134,545;  102,475;14574,952;48,58926
 887,80; 7121,745;   86,975;14671,753;48,23365
 888,36; 7153,545;  106,275;14715,652;48,23799
 888,92; 7143,345;   98,975;14773,353;48,00456
 889,48; 7277,845;   99,575;14973,853;48,25962
 890,04; 7271,845;   95,275;14803,053;48,79439
 890,60; 7336,745;  117,475;15014,652;48,46066
 891,16; 7420,745;   99,875;15075,853;48,88409
 891,72; 7449,345;  113,275;15058,452;49,08654
 892,28; 7408,045;  112,475;15126,053;48,59315
 892,84; 7329,745;   93,775;15039,853;48,41384
 893,39; 7305,445;  117,575;15112,952;47,93390
 893,95; 7285,845;  112,975;15044,753;48,03762
 894,51; 7278,345;   66,375;14891,253;48,64775
 895,07; 7291,345;  127,375;14906,353;48,47406
 895,63; 7111,145;   74,275;14689,952;48,14604
 896,19; 7058,845;   90,375;14601,952;48,02007
 896,75; 7065,545;  105,175;14460,152;48,48750
 897,31; 7004,045;   82,775;14295,853;48,69649
 897,87; 6940,845;   98,175;14146,853;48,70686
 898,43; 6805,545;   87,775;14075,753;48,02531
 898,99; 6795,345;  109,175;14002,753;48,12418
 899,55; 6727,845;  109,475;13940,652;47,85110
 900,11; 6628,645;  104,975;13747,553;47,81846
 900,67; 6557,545;   91,375;13658,652;47,66004
 901,22; 6546,145;  108,375;13601,952;47,70988
 901,78; 6453,245;   91,275;13560,053;47,23495
 902,34; 6406,445;  103,075;13451,152;47,22305
 902,90; 6404,345;   73,575;13350,652;47,68196
 903,46; 6291,245;   95,775;13236,353;47,14762
 904,02; 6268,045;   88,075;13091,553;47,52552
 904,58; 6168,245;   67,075;12918,152;47,47594
 905,14; 6175,545;   63,975;12874,553;47,70722
 905,70; 6045,245;   66,775;12696,053;47,33818
 906,25; 6027,945;   84,375;12708,452;47,08122
 906,81; 5993,145;   87,675;12732,152;46,70395
 907,37; 5985,845;   79,275;12616,152;47,11357
 907,93; 5925,445;   74,775;12588,152;46,75532
 908,49; 5918,245;  101,875;12497,652;46,92219
 909,05; 5832,145;   89,675;12425,553;46,55096
 909,60; 5828,245;   86,575;12340,452;46,85595
 910,16; 5654,745;   67,675;12291,853;45,70508
 910,72; 5701,345;  100,475;12207,753;46,26036
 911,28; 5629,845;   90,875;12156,053;45,90873
 911,84; 5674,545;   79,575;12106,753;46,51939
 912,39; 5605,645;   73,475;12049,353;46,19428
 912,95; 5550,745;  104,475;12001,452;45,77860
 913,51; 5543,245;   85,375;11945,253;46,01961
 914,07; 5479,345;   83,775;11813,452;45,99931
 914,63; 5422,845;   64,775;11748,053;45,86102
 915,18; 5360,545;   77,475;11617,853;45,77900
 915,74; 5283,345;   63,975;11632,652;45,11640
 916,30; 5253,745;   61,475;11588,553;45,04411
 916,86; 5233,845;   83,575;11514,652;45,05499
 917,42; 5250,245;   82,275;11425,152;45,56137
 917,97; 5163,345;   75,375;11265,452;45,46859
 918,53; 5147,445;   67,775;11196,253;45,64568
 919,09; 5063,145;   88,975;11223,753;44,67238
 919,65; 5009,745;   83,375;11083,452;44,78487
 920,20; 4930,445;   61,875;10983,053;44,57916
 920,76; 4866,645;   65,475;10849,452;44,52133
 921,32; 4854,245;   82,675;10770,952;44,64302
 921,87; 4840,945;   97,475;10670,253;44,86493
 922,43; 4736,445;   64,675;10561,353;44,50713
 922,99; 4674,145;   61,875;10406,753;44,58506
 923,55; 4639,345;   63,775;10357,353;44,45073
 924,10; 4566,745;   73,575;10282,853;44,01066
 924,66; 4546,445;   78,675;10170,152;44,27270
 925,22; 4438,445;   43,275;10093,952;43,73009
 925,77; 4392,245;   66,075; 9927,053;43,87161
 926,33; 4332,245;   90,375; 9903,253;43,22758
 926,89; 4247,245;   71,975; 9692,753;43,39847
 927,44; 4176,645;   52,175; 9580,553;43,28617
 928,00; 4146,945;   66,875; 9533,753;43,09837
 928,56; 4108,045;   80,375; 9372,253;43,34613
 929,12; 4062,245;   72,775; 9275,152;43,35260
 929,67; 3942,645;   67,575; 9091,053;42,94431
 930,23; 3837,145;   50,975; 8915,253;42,71267
 930,78; 3832,745;  100,675; 8842,553;42,69186
 931,34; 3749,445;   61,975; 8632,152;43,02677
 931,90; 3643,945;   61,675; 8494,353;42,48081
 932,45; 3535,145;   78,775; 8290,753;42,08937
 933,01; 3453,845;   52,975; 8024,453;42,66298
 933,57; 3329,645;   72,175; 7753,252;42,40902
 934,12; 3158,245;   70,475; 7399,553;42,13040
 934,68; 3001,345;   59,075; 7020,252;42,26684
 935,24; 2847,445;   67,875; 6614,752;42,45642
 935,79; 2690,345;   72,975; 6254,853;42,33940
 936,35; 2502,845;   91,375; 5812,252;42,15210
 936,90; 2321,045;   80,275; 5348,752;42,53164
 937,46; 2130,845;   72,775; 4956,953;42,13749
 938,02; 1977,845;   63,375; 4549,152;42,67867
 938,57; 1861,145;   73,175; 4265,053;42,65320
 939,13; 1697,945;   70,575; 3986,752;41,55506
 939,68; 1558,945;   57,375; 3713,452;41,07052
 940,24; 1473,845;   68,775; 3504,052;40,90121
 940,79; 1459,945;   91,875; 3391,052;41,46700
 941,35; 1398,145;   79,675; 3217,552;42,01789
 941,91; 1337,045;   71,375; 3122,252;41,48544
 942,46; 1302,645;   75,075; 3063,552;41,07677
 943,02; 1280,245;   65,375; 3050,752;40,69402
 943,57; 1216,145;   61,275; 2982,452;39,53440
 944,13; 1242,345;   67,375; 2974,452;40,41757
 944,68; 1250,945;   65,975; 3041,752;39,82052
 945,24; 1289,145;   82,275; 3060,052;40,52922
 945,79; 1284,045;   68,775; 3104,052;40,03819
 946,35; 1289,645;   51,775; 3194,752;39,38527
 946,90; 1327,845;   98,575; 3283,552;38,59588
 947,46; 1291,945;   52,175; 3311,052;38,04285
 948,01; 1343,645;   51,575; 3390,052;38,70237
 948,57; 1409,445;   86,775; 3552,952;38,15933
 949,12; 1391,545;   65,875; 3613,353;37,36937
 949,68; 1459,245;   76,275; 3732,653;37,82350
 950,23; 1485,345;   70,075; 3833,252;37,60838
 950,79; 1501,645;   75,775; 3933,452;36,96188
 951,34; 1556,445;   83,275; 4070,952;36,94306
 951,90; 1562,645;   57,475; 4140,853;36,86091
 952,45; 1621,045;   81,075; 4292,152;36,56950
 953,01; 1623,545;   65,975; 4364,252;36,23708
 953,56; 1677,745;   87,975; 4500,853;36,02570
 954,12; 1656,345;   42,075; 4567,553;35,67071
 954,67; 1713,645;   70,875; 4720,453;35,33160
 955,23; 1739,045;   61,975; 4804,553;35,36199
 955,78; 1770,445;   67,175; 4882,953;35,36853
 956,33; 1744,245;   58,575; 4947,252;34,48110
 956,89; 1770,245;   53,475; 5038,553;34,43818
 957,44; 1775,345;   53,675; 5170,752;33,64557
 958,00; 1793,445;   49,475; 5238,353;33,60977
 958,55; 1807,045;   70,475; 5313,953;33,11867
 959,10; 1809,645;   52,375; 5370,252;33,04458
 959,66; 1844,445;   74,275; 5488,752;32,69327
 960,21; 1838,345;   78,475; 5567,453;32,06189
 960,77; 1851,745;   54,275; 5606,152;32,37590
 961,32; 1828,745;   48,375; 5663,453;31,70695
 961,87; 1839,945;   79,775; 5738,752;31,10403
 962,43; 1840,245;   68,975; 5780,652;31,01138
 962,98; 1845,045;   76,175; 5828,652;30,74971
 963,54; 1783,145;   27,075; 5820,652;30,31063
 964,09; 1824,045;   56,275; 5873,953;30,38618
 964,64; 1820,545;   64,975; 5901,053;30,08133
 965,20; 1780,845;   44,375; 5966,652;29,32098
 965,75; 1770,445;   66,575; 5976,353;28,83137
 966,30; 1761,045;   75,275; 6068,553;28,12768
 966,86; 1782,445;   62,975; 6121,953;28,37888
 967,41; 1768,445;   81,075; 6084,453;28,10701
 967,96; 1738,445;   75,175; 6108,953;27,56598
 968,52; 1767,345;   81,775; 6126,353;27,88565
 969,07; 1714,345;   72,975; 6120,152;27,14275
 969,62; 1742,645;   77,175; 6134,953;27,49309
 970,18; 1718,745;   57,575; 6147,652;27,27666
 970,73; 1686,545;   66,475; 6203,553;26,39807
 971,28; 1704,045;   95,775; 6197,053;26,35956
 971,84; 1645,145;   55,075; 6118,752;26,22287
 972,39; 1679,445;   95,875; 6148,652;26,16270
 972,94; 1642,445;   54,975; 6140,652;26,08535
 973,49; 1622,245;   64,575; 6141,252;25,63358
 974,05; 1608,545;   64,375; 6178,053;25,25763
 974,60; 1572,445;   88,575; 6213,252;24,22772
 975,15; 1579,845;   77,675; 6231,553;24,41014
 975,71; 1549,145;   62,375; 6121,453;24,53789
 976,26; 1534,545;   77,575; 6110,252;24,15130
 976,81; 1506,045;   90,675; 6134,152;23,41980
 977,36; 1509,645;   84,775; 6156,953;23,46555
 977,92; 1485,945;   90,175; 6209,353;22,80976
 978,47; 1464,645;   77,175; 6060,252;23,18991
 979,02; 1440,145;   95,475; 6085,652;22,44792
 979,57; 1418,745;   86,775; 6058,453;22,30479
 980,13; 1379,745;   76,175; 6038,752;21,86253
 980,68; 1353,445;   77,075; 6010,553;21,51133
 981,23; 1369,245;   89,175; 6054,652;21,45796
 981,78; 1323,545;   82,075; 5974,152;21,07016
 982,33; 1308,745;   79,275; 5893,252;21,14680
 982,89; 1295,345;   94,375; 5938,152;20,55126
 983,44; 1259,945;   65,675; 5935,853;20,34470
 983,99; 1269,945;  104,775; 5949,453;19,93557
 984,54; 1221,445;   81,475; 5900,053;19,59190
 985,09; 1215,945;   87,275; 5873,752;19,50530
 985,65; 1189,645;   69,375; 5811,853;19,50848
 986,20; 1204,845;  106,575; 5791,152;19,32017
 986,75; 1172,545;   95,875; 5823,953;18,79636
 987,30; 1162,545;   97,175; 5726,053;18,92686
 987,85; 1114,145;   92,475; 5721,353;18,15051
 988,40; 1121,645;   96,675; 5693,953;18,31194
 988,96; 1127,145;  114,875; 5666,553;18,23359
 989,51; 1100,645;  108,875; 5644,053;17,91758
 990,06; 1097,745;  128,275; 5680,853;17,45982
 990,61; 1047,745;   93,575; 5569,053;17,42624
 991,16; 1058,845;  104,375; 5558,053;17,50140
 991,71;  998,145;   79,875; 5505,853;16,92359
 992,26; 1015,445;   93,475; 5457,252;17,18882
 992,81;  993,645;   75,075; 5427,053;17,16319
 993,37;  996,045;  113,475; 5390,553;16,72460
 993,92;  953,145;  108,375; 5368,953;16,05850
 994,47;  970,645;  117,475; 5329,652;16,36878
 995,02;  947,645;  118,475; 5313,252;15,96161
 995,57;  895,945;   90,875; 5274,652;15,53057
 996,12;  950,745;  133,575; 5247,553;15,97915
 996,67;  901,245;  132,375; 5191,652;15,19723
 997,22;  875,545;   99,875; 5128,652;15,42462
 997,77;  866,445;  115,275; 5110,553;15,03760
 998,32;  826,145;  103,775; 5015,652;14,70660
 998,87;  822,945;  114,275; 5018,752;14,44945
 999,42;  827,645;  101,675; 4972,553;14,90430
 999,97;  789,845;  109,975; 4956,353;14,02842
1000,53;  805,845;  123,475; 4993,752;14,01091
1001,08;  754,545;   98,375; 4879,053;13,72546
1001,63;  783,845;  144,475; 4878,053;13,50712
1002,18;  706,645;   85,075; 4777,453;13,24638
1002,73;  755,145;  131,375; 4813,853;13,32137
1003,28;  736,545;  103,575; 4811,953;13,44348
1003,83;  704,945;  119,075; 4691,752;12,81241
1004,38;  720,845;  137,775; 4703,152;12,77156
1004,93;  683,145;  114,375; 4680,953;12,45506
1005,48;  666,045;  104,075; 4573,053;12,57491
1006,03;  670,845;  112,775; 4525,652;12,64640
1006,58;  644,745;  111,475; 4486,553;12,18881
1007,13;  617,745;   94,475; 4466,252;11,96927
1007,68;  637,145;  104,975; 4462,453;12,21280
1008,23;  637,245;  114,575; 4425,853;12,12332
1008,78;  613,145;  107,375; 4384,152;11,82596
1009,33;  628,945;  121,875; 4307,752;12,11383
1009,88;  591,645;   84,775; 4329,553;11,94103
1010,43;  600,045;  118,875; 4320,752;11,45131
1010,98;  587,745;  100,675; 4310,053;11,57107
1011,52;  569,545;   97,075; 4264,953;11,33599
1012,07;  603,245;  144,475; 4319,252;10,98909
1012,62;  561,245;  103,875; 4259,152;11,00697
1013,17;  548,445;   97,175; 4172,053;11,07444
1013,72;  530,545;   94,575; 4143,453;10,76768
1014,27;  535,945;  100,275; 4105,853;10,87658
1014,82;  517,945;   86,875; 4042,952;10,89640
1015,37;  489,445;   84,375; 3964,853;10,43866
1015,92;  525,445;  109,475; 3894,252;10,99061
1016,47;  464,645;   90,275; 3819,452;10,03894
1017,02;  463,945;   81,075; 3732,153;10,48649
1017,57;  470,045;   96,475; 3718,853;10,31284
1018,11;  437,545;   77,275; 3656,252;10,06628
1018,66;  478,745;  120,175; 3636,552;10,19714
1019,21;  441,245;  109,675; 3579,552; 9,55567
1019,76;  407,245;   77,675; 3497,353; 9,63746
1020,31;  398,045;   71,975; 3446,452; 9,66283
1020,86;  417,545;   96,175; 3448,052; 9,58776
1021,41;  399,545;   80,175; 3387,052; 9,65775
1021,96;  393,345;   83,675; 3385,853; 9,37775
1022,50;  424,245;  105,975; 3332,952; 9,86279
1023,05;  380,545;   94,675; 3288,052; 8,95196
1023,60;  387,045;   97,975; 3251,353; 9,16700
1024,15;  366,745;   81,075; 3184,853; 9,20395
1024,70;  398,445;   95,075; 3176,252; 9,84591
1025,25;  354,645;   81,175; 3127,452; 8,97719
1025,79;  362,445;  101,175; 3110,752; 8,68129
1026,34;  362,645;   83,475; 3044,653; 9,42767
1026,89;  356,045;  102,175; 3039,052; 8,64422
1027,44;  350,245;   95,875; 2952,952; 8,90315
1027,99;  349,045;   93,475; 2944,552; 8,96398
1028,53;  338,845;   89,675; 2900,052; 8,86607
1029,08;  343,645;  114,775; 2876,653; 8,28675
1029,63;  360,545;  114,875; 2854,952; 8,96581
1030,18;  338,445;   92,075; 2788,552; 9,13674
1030,73;  310,945;   91,175; 2739,552; 8,29829
1031,27;  299,345;   85,875; 2715,252; 8,11865
1031,82;  314,045;   81,875; 2686,452; 8,91392
1032,37;  322,245;   98,875; 2688,853; 8,62440
1032,92;  314,045;  100,575; 2675,452; 8,29049
1033,46;  304,245;   99,775; 2599,252; 8,18051
1034,01;  293,045;   78,375; 2582,952; 8,57111
1034,56;  307,645;   98,875; 2559,252; 8,48528
1035,11;  296,745;   92,375; 2523,552; 8,40621
1035,65;  302,245;   87,575; 2478,052; 8,98021
1036,20;  284,245;   99,375; 2454,452; 7,84985
1036,75;  304,845;  118,675; 2446,353; 7,99810
1037,29;  269,145;   90,275; 2398,252; 7,75008
1037,84;  262,445;   78,375; 2347,252; 8,11282
1038,39;  261,745;   91,075; 2329,952; 7,62302
1038,94;  247,545;   73,075; 2277,153; 7,91578
1039,48;  263,745;   83,575; 2278,552; 8,20828
1040,03;  271,145;  102,875; 2245,252; 7,85436
1040,58;  263,545;  101,175; 2194,552; 7,75637
1041,12;  246,345;   91,375; 2191,653; 7,37855
1041,67;  260,245;  101,075; 2166,752; 7,70546
1042,22;  260,945;  118,475; 2145,252; 7,02939
1042,76;  241,445;   99,275; 2118,452; 7,04099
1043,31;  243,545;   90,675; 2060,653; 7,75999
1043,86;  261,945;   98,875; 2044,252; 8,38244
1044,40;  247,445;   92,975; 2018,052; 8,02409
1044,95;  247,245;   94,175; 1988,552; 8,08023
1045,50;  217,545;   75,375; 1934,353; 7,64775
1046,04;  255,945;  114,375; 1930,453; 7,79537
1046,59;  221,145;   96,175; 1878,353; 7,01221
1047,13;  245,245;  121,075; 1879,453; 7,06162
1047,68;  242,745;  115,675; 1860,052; 7,28455
1048,23;  232,545;  118,775; 1866,752; 6,50867
1048,77;  220,445;   90,175; 1784,953; 7,68655
1049,32;  216,845;  104,175; 1785,953; 6,69946
1049,86;  228,945;   92,675; 1760,552; 8,17026
1050,41;  196,645;   82,475; 1735,552; 6,90651
1050,96;  222,545;  100,875; 1698,652; 7,61495
1051,50;  212,445;  101,675; 1663,252; 7,09347
1052,05;  216,545;   94,675; 1664,052; 7,76550
1052,59;  213,345;   82,975; 1624,152; 8,45912
1053,14;  204,745;   84,475; 1582,652; 8,02775
1053,69;  204,245;   98,475; 1571,453; 7,18069
1054,23;  220,545;  104,575; 1569,052; 7,91887
1054,78;  196,645;  100,775; 1550,152; 6,61456
1055,32;  219,245;  123,075; 1550,453; 6,73753
1055,87;  175,945;   68,875; 1491,752; 7,52489
1056,41;  182,145;   78,775; 1469,552; 7,43253
1056,96;  188,445;   96,775; 1451,052; 6,76892
1057,50;  214,945;  113,375; 1470,853; 7,48226
1058,05;  169,445;   82,075; 1401,953; 6,61955
1058,59;  195,045;   95,875; 1396,552; 7,62449
1059,14;  190,645;  103,575; 1370,453; 6,87280
1059,68;  167,545;   75,975; 1329,353; 7,30586
1060,23;  208,345;  126,875; 1383,752; 6,48194
1060,77;  180,745;   97,375; 1317,052; 6,83541
1061,32;  207,445;  108,575; 1320,652; 8,15707
1061,86;  182,345;  111,175; 1289,752; 6,03864
1062,41;  195,945;   93,975; 1242,953; 8,87485
1062,95;  177,245;  109,575; 1230,853; 6,03508
1063,50;  192,845;  111,075; 1230,052; 7,30756
1064,04;  173,245;   90,475; 1197,453; 7,47712
1064,59;  191,945;  114,775; 1210,052; 7,04570
1065,13;  185,045;  103,475; 1170,552; 7,64424
1065,68;  179,045;  107,275; 1161,353; 6,80880
1066,22;  195,545;  115,875; 1166,453; 7,58345
1066,76;  196,445;  130,175; 1145,252; 6,52857
1067,31;  169,145;   99,875; 1110,552; 6,85382
1067,85;  182,945;  100,975; 1090,252; 8,28585
1068,40;  183,245;  110,275; 1095,353; 7,40754
1068,94;  170,145;   99,175; 1079,353; 7,24053
1069,49;  164,145;   98,175; 1041,652; 6,99222
1070,03;  162,845;  111,175; 1034,353; 5,59697
1070,57;  157,545;   88,775; 1012,852; 7,44202
1071,12;  149,645;   75,875;  987,153; 8,09523
1071,66;  203,645;  131,775; 1039,953; 7,91365
1072,21;  191,845;  112,475; 1011,352; 8,82990
1072,75;  162,845;  104,475;  978,552; 6,67790
1073,29;  145,645;   77,075;  942,453; 7,92371
1073,84;  161,745;   95,975;  941,153; 7,78180
1074,38;  153,145;   93,875;  928,253; 7,10350
1074,92;  170,145;  107,275;  940,153; 7,54853
1075,47;  173,045;  112,775;  938,852; 7,29593
1076,01;  180,045;  121,775;  926,253; 7,24321
1076,56;  167,845;   97,275;  891,953; 8,88033
1077,10;  142,945;   86,075;  865,253; 7,29872
1077,64;  160,945;   97,875;  884,453; 8,01828
1078,19;  188,745;  123,175;  887,753; 8,57598
1078,73;  171,945;   98,775;  853,852; 9,69040
1079,27;  180,245;  121,075;  875,552; 7,84251
1079,81;  172,145;  121,375;  860,953; 6,86473
1080,36;  169,945;  105,975;  836,052; 8,76208
1080,90;  149,745;   96,375;  819,753; 7,37789
1081,44;  131,545;   82,475;  789,552; 6,93983
1081,99;  133,945;   70,375;  771,753; 9,06359
1082,53;  157,345;  113,075;  798,653; 6,45733
1083,07;  155,045;  104,175;  791,453; 7,40167
1083,62;  159,545;  101,275;  772,552; 8,68046
1084,16;  148,245;   98,975;  782,453; 7,20872
1084,70;  160,145;  107,475;  767,153; 7,98420
1085,24;  168,345;  108,775;  750,653; 9,28059
1085,79;  135,645;  109,175;  747,552; 4,14645
1086,33;  129,045;   99,075;  711,453; 4,89404
1086,87;  143,845;  102,075;  714,852; 6,81650
1087,41;  141,045;   84,475;  686,852; 9,39112
1087,96;  157,845;  124,575;  732,552; 5,47224
1088,50;  136,245;  112,075;  696,953; 4,13249
1089,04;  166,845;  121,775;  715,153; 7,59550
1089,58;  132,445;   82,375;  655,953; 8,72942
1090,13;  138,045;  102,975;  653,153; 6,37431
1090,67;  143,545;  101,775;  678,753; 7,23945
1091,21;  133,045;   92,075;  651,852; 7,31898
1091,75;  140,345;  106,875;  647,153; 6,19496
1092,29;  157,145;  105,875;  642,552; 9,55322
1092,84;  149,645;  105,975;  628,352; 8,35986
1093,38;  168,145;  128,175;  662,753; 7,47693
1093,92;  160,945;  113,475;  640,052; 9,01482
1094,46;  172,145;  128,175;  638,852; 8,61013
1095,00;  136,245;   93,975;  602,052; 8,31960
1095,54;  139,145;   89,975;  591,352; 9,80698
1096,09;  157,245;  114,975;  597,352; 8,76285
1096,63;  143,045;  117,175;  598,453; 5,37528
1097,17;  139,345;  102,575;  573,052; 7,81547
1097,71;  162,945;  122,875;  582,453; 8,71888
1098,25;  134,645;  103,275;  553,653; 6,96527
1098,79;  152,645;  104,775;  568,753;10,31731
1099,33;  151,545;  111,975;  572,052; 8,60072
1099,88;  140,945;  110,775;  562,253; 6,68250
1100,42;  123,745;   83,275;  521,253; 9,24020

