0146 ELITRO MELMAN
Integration time [ms]:   8,000
Averaging Nr. [scans]: 10
Smoothing Nr. [pixels]: 0
Data measured with spectrometer [name]: 7314920SP
Wave   ;Sample   ;Dark     ;Reference;Reflectance
[nm]   ;[counts] ;[counts] ;[counts] ;[%]

 199,42;   99,209;   63,873;  150,055;41,00127
 200,02;  100,129;   92,669;  145,732;14,05879
 200,62;   85,367;   67,563;   88,793;83,86459
 201,22;  104,706;   86,969;  138,011;34,75076
 201,82;   96,642;   66,174;  141,790;40,29222
 202,42;  118,703;  101,668;  154,973;31,95686
 203,03;   58,073;   60,168;   91,775;-6,62630
 203,63;   91,570;   69,967;  109,037;55,29208
 204,23;   87,095;   70,671;  129,903;27,72756
 204,83;   96,318;   74,567;  123,718;44,25339
 205,43;   85,109;   56,673;  123,555;42,51624
 206,03;   68,992;   50,167;   90,459;46,72242
 206,63;   74,078;   68,865;  100,007;16,74050
 207,24;  116,549;   74,675;  162,566;47,64246
 207,84;   59,666;   39,967;   83,699;45,04563
 208,44;   63,606;   50,669;   95,011;29,17653
 209,04;   60,804;   47,365;   85,066;35,64604
 209,64;   90,953;   69,972;  127,998;36,15835
 210,24;   57,618;   45,367;   97,218;23,62739
 210,84;   75,932;   51,469;  101,970;48,44084
 211,44;  102,036;   86,470;  122,908;42,71890
 212,05;   64,304;   60,865;   99,266; 8,95565
 212,65;   77,973;   66,368;  112,975;24,90075
 213,25;  104,003;   93,768;  142,073;21,18729
 213,85;   92,807;   84,465;  114,904;27,40598
 214,45;   60,818;   53,367;  100,418;15,83613
 215,05;   50,732;   39,369;  100,070;18,71978
 215,65;   67,858;   55,169;  105,630;25,14616
 216,25;   59,318;   40,267;   82,518;45,09002
 216,85;   48,980;   34,069;   89,651;26,82797
 217,45;   59,973;   49,068;   97,375;22,57541
 218,05;   81,113;   58,270;  112,886;41,82500
 218,66;   49,255;   28,769;   75,692;43,65853
 219,26;   47,670;   26,567;   79,337;39,98978
 219,86;   47,443;   36,771;   81,584;23,81456
 220,46;   73,687;   54,270;  104,127;38,94647
 221,06;   70,195;   51,871;  115,903;28,61630
 221,66;   74,072;   43,471;  103,481;50,99286
 222,26;   63,653;   39,772;  102,398;38,13313
 222,86;   70,551;   67,268;  118,954; 6,35158
 223,46;   66,518;   51,767;   88,918;39,70552
 224,06;   93,169;   64,971;  120,343;50,92380
 224,66;   75,365;   57,570;  105,805;36,89181
 225,26;   74,110;   48,169;  113,748;39,55584
 225,86;   74,731;   42,173;  112,376;46,37700
 226,46;   72,577;   49,968;  102,913;42,70218
 227,06;   59,565;   27,670;   87,705;53,12691
 227,66;   52,582;   37,665;   74,845;40,11972
 228,27;   53,487;   29,270;   96,227;36,16881
 228,87;  106,639;   89,170;  143,046;32,42473
 229,47;   58,479;   29,172;   92,357;46,38265
 230,07;   23,110;   11,169;   59,648;24,62990
 230,67;   60,080;   38,169;   84,651;47,13970
 231,27;   49,087;   27,670;   76,327;44,01739
 231,87;   61,580;   43,169;  100,751;31,97442
 232,47;   88,297;   43,775;  132,047;50,43706
 233,07;   58,852;   42,965;   75,547;48,76069
 233,67;   63,473;   53,768;   94,275;23,96005
 234,27;   29,692;    0,567;   53,259;55,27482
 234,87;   56,143;   34,771;  106,084;29,96930
 235,47;   35,710;   16,169;   74,148;33,70242
 236,07;   32,811;   30,266;   72,042; 6,09220
 236,67;   48,114;   49,966;   85,180;-5,25901
 237,27;   68,160;   28,873;  109,074;48,98614
 237,87;   58,565;   25,370;   99,805;44,59563
 238,47;   36,529;   14,269;   68,032;41,40370
 239,07;   53,527;   33,272;   95,738;32,42607
 239,67;   85,233;   43,477;  131,421;47,48103
 240,27;   70,331;   46,773;  119,176;32,53750
 240,87;   63,486;   50,773;  119,533;18,48875
 241,47;   44,871;   39,164;   76,131;15,43893
 242,07;   50,625;   39,968;   92,894;20,13579
 242,67;   24,635;  -11,027;   77,914;40,09547
 243,27;   33,018;    7,767;   46,418;65,33061
 243,87;   65,969;   48,671;  108,343;28,98789
 244,47;   59,995;   22,371;   99,703;48,65205
 245,07;   17,532;    2,669;   55,770;27,99024
 245,67;   55,873;   31,068;   85,575;45,50868
 246,27;   33,078;   34,965;   69,007;-5,54208
 246,87;   37,051;   26,668;   63,154;28,45748
 247,46;   11,367;   19,663;   23,793;-200,86796
 248,06;   43,813;   20,470;   69,786;47,33376
 248,66;   54,853;   31,072;  105,898;31,78204
 249,26;   42,611;   32,366;   70,742;26,69636
 249,86;   56,431;   42,873;  102,176;22,86256
 250,46;   40,423;   16,775;   93,507;30,81863
 251,06;   38,173;   22,168;   65,375;37,04365
 251,66;   24,417;   20,771;   64,724; 8,29582
 252,26;   35,963;   38,866;   70,261;-9,24792
 252,86;   37,332;   35,969;   89,070; 2,56697
 253,46;    6,118;   -8,033;   22,118;46,93370
 254,06;   30,385;   31,766;   79,483;-2,89340
 254,66;   46,509;   34,973;  100,155;17,69757
 255,26;   67,257;   39,073;  118,836;35,33479
 255,86;   30,271;   37,464;   55,631;-39,59106
 256,46;   41,136;   19,870;   70,208;42,24626
 257,05;   47,591;   23,570;   59,565;66,73398
 257,65;   64,443;   38,071;   97,684;44,23863
 258,25;   57,879;   37,372;  101,457;31,99948
 258,85;   25,232;   15,669;   51,770;26,48984
 259,45;   19,780;    6,869;   42,951;35,78377
 260,05;   45,418;   46,667;   85,818;-3,18996
 260,65;   45,963;   45,066;   83,561; 2,32913
 261,25;   53,169;   29,371;   85,943;42,06600
 261,85;   20,746;   -0,129;   47,622;43,71683
 262,45;   59,032;   46,169;  109,270;20,38493
 263,04;   67,983;   53,073;  116,295;23,58317
 263,64;   51,396;   33,767;   77,097;40,68456
 264,24;   61,120;   37,671;   89,062;45,62898
 264,84;   95,890;   58,974;  138,671;46,32012
 265,44;   41,147;   26,368;   67,716;35,74497
 266,04;   48,133;   48,865;   71,464;-3,23983
 266,64;   50,414;   39,866;   86,780;22,48399
 267,24;   50,314;   40,166;   68,980;35,21956
 267,84;   45,403;   24,668;   76,573;39,94735
 268,43;   62,299;   48,368;   95,935;29,28798
 269,03;   59,355;   46,969;   87,892;30,26629
 269,63;   70,237;   58,566;   92,402;34,49265
 270,23;   17,782;   10,765;   39,045;24,81065
 270,83;   57,163;   55,266;   83,161; 6,79906
 271,43;   35,622;   23,967;   58,856;33,40366
 272,03;   72,147;   64,168;   99,116;22,83346
 272,62;   32,858;   23,269;   68,730;21,09276
 273,22;   19,739;   11,970;   61,046;15,83078
 273,82;   12,950;   17,460;   26,403;-50,43895
 274,42;   25,497;   25,164;   46,890; 1,53317
 275,02;   35,526;   34,864;   60,388; 2,59315
 275,62;   66,879;   31,972;  100,457;50,97011
 276,21;   44,262;   22,770;   69,267;46,22124
 276,81;   49,666;   46,767;   71,099;11,91655
 277,41;   47,098;   22,971;   96,341;32,88371
 278,01;   29,326;   21,364;   42,788;37,16419
 278,61;   58,406;   38,869;   83,811;43,47273
 279,20;   79,931;   65,473;  119,076;26,97268
 279,80;   -0,117;    6,762;   11,539;-144,00043
 280,40;   56,111;   36,866;   79,742;44,88507
 281,00;   10,206;   -4,331;   33,311;38,62041
 281,60;   39,264;   20,774;   74,812;34,21691
 282,20;   49,236;   36,670;   70,108;37,57982
 282,79;   34,999;   29,568;   70,135;13,38865
 283,39;   19,137;   17,466;   44,702; 6,13477
 283,99;   12,152;   23,165;   34,347;-98,47604
 284,59;   34,884;   16,869;   45,289;63,38774
 285,19;   23,792;   27,067;   57,759;-10,66943
 285,78;   31,536;   23,270;   63,808;20,39076
 286,38;   37,878;   39,665;   59,207;-9,14250
 286,98;   42,899;   35,168;   73,535;20,15116
 287,58;   26,395;    4,771;   61,403;38,18265
 288,17;   33,157;    8,973;   80,336;33,88883
 288,77;   55,252;   19,976;   92,504;48,63808
 289,37;   26,332;   11,269;   57,670;32,46288
 289,97;   54,952;   48,965;   66,647;33,86113
 290,57;   68,450;   46,672;   93,260;46,74601
 291,16;   62,347;   63,868;  102,616;-3,92318
 291,76;   35,039;    5,570;   47,346;70,54101
 292,36;   52,170;   34,367;   58,137;74,89532
 292,96;   28,105;   -3,127;   60,117;49,38406
 293,55;   35,166;   24,267;   65,399;26,49873
 294,15;   40,262;   26,870;   62,567;37,51451
 294,75;   39,478;   42,065;   66,207;-10,71421
 295,35;   25,047;   21,068;   52,016;12,85976
 295,94;   49,440;   42,967;   66,740;27,23173
 296,54;   28,977;   30,768;   70,613;-4,49597
 297,14;   47,672;   29,971;   76,881;37,73357
 297,73;   14,156;   12,165;   40,085; 7,12960
 298,33;   37,385;   28,066;   57,583;31,57279
 298,93;   44,751;   41,968;   82,554; 6,85675
 299,53;   42,602;   24,872;   69,079;40,10598
 300,12;   23,672;  -12,229;   59,481;50,06389
 300,72;   55,196;   41,567;   91,197;27,46026
 301,32;   52,343;   25,771;   99,584;35,99907
 301,92;   11,523;    3,664;   33,050;26,74351
 302,51;   33,244;   11,567;   49,978;56,43453
 303,11;   31,892;   14,667;   48,759;50,52623
 303,71;   27,629;   21,369;   82,132;10,30238
 304,30;   14,959;    5,466;   38,423;28,80543
 304,90;   19,285;   19,666;   44,283;-1,54626
 305,50;   31,982;   18,565;   64,345;29,30640
 306,09;   32,111;   15,466;   49,042;49,57382
 306,69;   52,320;   34,171;   90,262;32,35675
 307,29;   13,024;   18,760;   33,144;-39,88185
 307,88;   49,684;   43,269;   72,489;21,95297
 308,48;   26,987;    0,070;   49,727;54,20692
 309,08;   -0,484;   -4,437;   11,774;24,38357
 309,68;   26,756;   22,365;   39,585;25,49673
 310,27;   15,858;   20,169;   49,830;-14,53512
 310,87;   36,177;   23,468;   54,813;40,54447
 311,47;   55,818;   54,967;   92,918; 2,24260
 312,06;   44,230;   47,865;   68,426;-17,67993
 312,66;   66,147;   51,168;  100,016;30,66622
 313,26;   68,417;   48,571;   96,224;41,64683
 313,85;   51,892;   38,267;   65,959;49,20338
 314,45;   68,906;   42,969;   86,611;59,43259
 315,04;   60,030;   52,165;   81,826;26,51590
 315,64;   32,896;   21,267;   47,897;43,66745
 316,24;   59,187;   40,770;   85,627;41,05835
 316,83;   48,911;   40,366;   76,742;23,49078
 317,43;   33,422;   35,167;   68,156;-5,29244
 318,03;   45,619;   39,063;   70,012;21,18306
 318,62;   77,031;   73,061;   94,820;18,24419
 319,22;   34,703;    7,668;   66,973;45,58590
 319,82;   57,047;   40,768;   93,516;30,86341
 320,41;   76,229;   59,069;   98,732;43,26414
 321,01;   92,082;   80,465;  115,945;32,74093
 321,60;   74,797;   81,164;  102,790;-29,43998
 322,20;   92,709;   67,673;  132,855;38,40892
 322,80;   71,296;   54,567;   91,797;44,93325
 323,39;   53,400;   65,764;   94,828;-42,54007
 323,99;   73,163;   61,766;  102,661;27,86788
 324,59;   73,519;   73,063;   97,512; 1,86455
 325,18;   61,944;   40,967;   92,178;40,96192
 325,78;   81,256;   76,365;  108,885;15,03866
 326,37;   71,373;   74,868;  108,075;-10,52298
 326,97;   86,696;   63,267;  111,497;48,57697
 327,57;   42,067;   42,263;   76,493;-0,57155
 328,16;   68,771;   60,864;   93,631;24,13184
 328,76;   74,940;   50,467;  110,140;41,01316
 329,35;   86,943;   56,871;  137,484;37,30414
 329,95;   53,936;   27,470;   91,308;41,45795
 330,54;   75,618;   52,167;   94,018;56,03439
 331,14;   45,766;   26,967;   82,599;33,79245
 331,74;   64,782;   54,165;   96,145;25,28932
 332,33;   60,587;   35,370;  108,127;34,65997
 332,93;   56,523;   43,764;   79,250;35,95458
 333,52;   66,737;   42,466;   93,102;47,93223
 334,12;   94,055;   72,069;  140,392;32,17931
 334,71;   51,211;   50,666;   87,942; 1,46231
 335,31;   90,292;   63,267;  119,859;47,75481
 335,90;   38,612;   32,362;   53,836;29,10467
 336,50;   37,978;   30,665;   77,207;15,71339
 337,10;   65,758;   38,769;  121,530;32,61084
 337,69;   60,078;   51,765;   93,707;19,82099
 338,29;   49,570;   30,467;  101,037;27,06902
 338,88;   44,651;   22,468;   99,854;28,66539
 339,48;   68,786;   57,862;  111,677;20,29962
 340,07;   67,689;   48,566;  107,321;32,54620
 340,67;   62,443;   31,171;  124,784;33,40561
 341,26;   65,711;   48,466;   98,942;34,16469
 341,86;   92,010;   61,469;  138,348;39,72518
 342,45;   84,384;   45,669;  142,689;39,90385
 343,05;   72,984;   27,269;  115,689;51,70183
 343,64;   76,014;   47,366;  122,480;38,13959
 344,24;   48,878;   28,765;   92,107;31,75350
 344,83;   86,952;   71,365;  121,747;30,93834
 345,43;   54,640;   29,667;  114,240;29,52928
 346,02;   51,780;   41,469;  124,351;12,44126
 346,62;   79,417;   40,971;  140,424;38,65744
 347,21;   58,856;   42,165;  131,985;18,58223
 347,81;   61,750;   26,172;  140,560;31,10295
 348,40;   43,071;   29,064;  100,731;19,54497
 349,00;   66,819;   49,163;  137,712;19,93917
 349,59;   99,939;   65,870;  177,846;30,42540
 350,19;   65,017;   32,571;  139,424;30,36514
 350,78;   63,092;   55,467;  140,759; 8,94030
 351,38;   46,780;   15,869;  140,951;24,71301
 351,97;   54,940;   26,767;  136,040;25,78295
 352,57;   65,887;   42,570;  155,827;20,58819
 353,16;   57,300;   30,564;  134,328;25,76624
 353,76;   84,639;   38,770;  169,846;34,99431
 354,35;   54,610;   27,669;  160,148;20,33554
 354,95;   76,962;   43,970;  182,067;23,89021
 355,54;   72,003;   38,368;  163,973;26,77804
 356,14;   60,410;   40,069;  164,749;16,31416
 356,73;   56,586;   29,162;  145,176;23,63855
 357,32;   52,429;   13,769;  164,432;25,65989
 357,92;   66,376;   17,772;  181,419;29,70033
 358,51;   84,502;   43,372;  214,179;24,07959
 359,11;   72,350;   36,772;  212,360;20,26224
 359,70;   63,891;   28,470;  189,965;21,93299
 360,30;   84,183;   54,562;  188,039;22,19193
 360,89;   46,351;   31,168;  188,054; 9,67766
 361,48;   98,862;   55,570;  216,467;26,90643
 362,08;   54,522;   19,867;  187,156;20,71514
 362,67;   63,467;   39,763;  192,693;15,50015
 363,27;   90,544;   60,767;  247,678;15,93106
 363,86;   87,782;   35,765;  215,745;28,90125
 364,46;   93,371;   44,664;  257,231;22,91385
 365,05;  110,039;   64,659;  254,989;23,84294
 365,64;  112,920;   50,960;  269,706;28,32538
 366,24;  116,584;   38,558;  309,432;28,80520
 366,83;  132,240;   43,255;  335,383;30,46102
 367,43;  135,821;   51,545;  352,843;27,97121
 368,02;  172,332;   34,646;  399,757;37,71071
 368,61;  207,383;   62,239;  475,425;35,12791
 369,21;  190,129;   32,419;  445,299;38,19759
 369,80;  218,970;   43,007;  526,947;36,36062
 370,39;  276,063;   62,006;  604,971;39,42382
 370,99;  263,276;   42,089;  615,416;38,57964
 371,58;  282,477;   22,974;  630,953;42,68297
 372,18;  303,876;   37,166;  701,603;40,14080
 372,77;  295,992;   42,449;  679,385;39,80669
 373,36;  321,949;   42,747;  690,836;43,08084
 373,96;  298,201;   35,135;  639,498;43,52769
 374,55;  285,657;   29,844;  621,406;43,24370
 375,14;  259,367;   42,849;  573,826;40,77720
 375,74;  271,168;   69,157;  543,276;42,60760
 376,33;  219,665;   45,964;  464,589;41,49333
 376,92;  173,780;   33,278;  447,997;33,87879
 377,52;  276,023;   86,103;  548,460;41,07653
 378,11;  218,368;   46,703;  457,203;41,81860
 378,71;  257,350;   73,011;  514,270;41,77578
 379,30;  277,964;   59,517;  553,928;44,18318
 379,89;  284,213;   59,813;  556,103;45,21548
 380,49;  272,819;   31,018;  568,185;45,01410
 381,08;  316,315;   70,306;  570,990;49,13460
 381,67;  314,603;   55,008;  555,483;51,86986
 382,26;  289,115;   41,706;  539,390;49,71209
 382,86;  280,872;   54,003;  516,041;49,10172
 383,45;  304,283;   50,412;  562,105;49,61395
 384,04;  324,432;   38,712;  553,886;55,46076
 384,64;  318,568;   49,014;  566,760;52,06305
 385,23;  341,467;   64,406;  560,509;55,84742
 385,82;  358,679;   59,615;  592,774;56,09279
 386,42;  399,909;   61,024;  659,022;56,67003
 387,01;  373,016;   55,414;  580,541;60,48112
 387,60;  394,959;   69,009;  590,140;62,54668
 388,20;  365,483;   37,712;  590,805;59,26148
 388,79;  428,096;   72,418;  665,563;59,96478
 389,38;  390,215;   32,106;  564,890;67,21467
 389,97;  428,827;   45,415;  640,955;64,38059
 390,57;  449,446;   71,114;  654,038;64,90239
 391,16;  462,446;   62,514;  655,838;67,40526
 391,75;  460,039;   52,713;  638,562;69,52738
 392,34;  489,288;   60,821;  696,694;67,38255
 392,94;  501,548;   44,718;  689,683;70,83027
 393,53;  505,282;   41,016;  666,612;74,21188
 394,12;  530,328;   53,023;  719,105;71,65862
 394,72;  536,965;   54,213;  706,122;74,05201
 395,31;  545,779;   42,115;  694,874;77,15925
 395,90;  589,735;   42,924;  732,881;79,25295
 396,49;  624,334;   58,028;  779,187;78,52720
 397,09;  609,589;   47,417;  749,188;80,10772
 397,68;  651,739;   44,025;  800,719;80,31171
 398,27;  671,901;   54,626;  809,652;81,75549
 398,86;  649,642;   43,125;  807,657;79,33184
 399,45;  696,278;   56,630;  844,037;81,23473
 400,05;  679,081;   23,820;  799,518;84,47376
 400,64;  729,200;   56,419;  831,001;86,85725
 401,23;  740,285;   53,920;  859,956;85,15312
 401,82;  762,085;   67,220;  868,256;86,74576
 402,42;  763,014;   62,921;  873,953;86,32124
 403,01;  811,539;   81,525;  912,919;87,80601
 403,60;  835,385;   68,532;  940,513;87,94380
 404,19;  841,487;   76,024;  931,900;89,43620
 404,78;  804,021;   57,522;  909,929;87,57542
 405,38;  873,414;   68,332;  984,210;87,90277
 405,97;  850,949;   63,226;  953,933;88,43801
 406,56;  887,112;   71,528; 1004,366;87,43040
 407,15;  894,019;   68,829;  989,442;89,63486
 407,74;  924,800;   80,730; 1026,758;89,22250
 408,34;  915,066;   50,933; 1018,629;89,29798
 408,93;  935,407;   59,531; 1016,234;91,55151
 409,52;  946,158;   51,435; 1041,359;90,38294
 410,11;  977,559;   84,931; 1090,453;88,77258
 410,70;  951,679;   54,727; 1027,230;92,23124
 411,29;  981,160;   58,628; 1030,847;94,88934
 411,89; 1019,135;   60,535; 1093,938;92,76154
 412,48;  997,586;   48,228; 1051,606;94,61615
 413,07; 1036,547;   65,033; 1101,446;93,73817
 413,66; 1065,384;   78,135; 1102,119;96,41252
 414,25; 1061,572;   63,337; 1142,311;92,51703
 414,84; 1051,907;   69,431; 1102,434;95,10873
 415,44; 1100,348;   91,530; 1155,939;94,77730
 416,03; 1095,068;   76,637; 1161,173;93,90478
 416,62; 1110,879;   76,138; 1168,687;94,70887
 417,21; 1118,977;   75,334; 1158,843;96,32062
 417,80; 1113,598;   65,037; 1162,871;95,51180
 418,39; 1118,190;   78,440; 1179,201;94,45734
 418,98; 1097,973;   55,634; 1143,405;95,82340
 419,58; 1101,270;   64,033; 1142,067;96,21557
 420,17; 1120,906;   52,735; 1164,540;96,07536
 420,76; 1135,968;   72,537; 1192,873;94,92074
 421,35; 1113,361;   60,236; 1155,197;96,17923
 421,94; 1166,890;   88,340; 1223,501;95,01292
 422,53; 1148,541;   61,540; 1195,320;95,87410
 423,12; 1171,157;   64,039; 1190,766;98,25965
 423,71; 1144,535;   60,835; 1162,138;98,40167
 424,30; 1153,591;   85,236; 1210,695;94,92615
 424,90; 1107,701;   39,438; 1163,809;95,00989
 425,49; 1139,964;   70,140; 1216,242;93,34459
 426,08; 1147,564;   80,240; 1209,641;94,50348
 426,67; 1111,387;   57,436; 1168,257;94,88040
 427,26; 1163,607;   60,343; 1230,391;94,29224
 427,85; 1137,927;   63,238; 1209,968;93,71771
 428,44; 1159,278;   68,442; 1218,093;94,88405
 429,03; 1175,774;   85,341; 1233,155;95,00084
 429,62; 1146,748;   78,941; 1240,296;91,94497
 430,21; 1154,588;   81,443; 1277,807;89,70055
 430,80; 1132,925;   70,445; 1235,381;91,20503
 431,39; 1121,640;   53,344; 1246,926;89,50336
 431,99; 1120,135;   78,535; 1206,838;92,31568
 432,58; 1138,757;   82,639; 1251,166;90,38028
 433,17; 1094,084;   69,735; 1238,319;87,65727
 433,76; 1151,087;   71,347; 1288,314;88,72390
 434,35; 1138,073;   88,245; 1292,462;87,17934
 434,94; 1148,624;   70,849; 1318,887;86,35753
 435,53; 1127,185;   78,643; 1278,669;87,37658
 436,12; 1120,014;   70,044; 1294,267;85,76628
 436,71; 1139,093;   87,740; 1303,239;86,49559
 437,30; 1107,497;   76,941; 1299,177;84,31724
 437,89; 1160,347;   76,245; 1320,802;87,10748
 438,48; 1137,181;   65,942; 1305,731;86,40495
 439,07; 1139,705;   95,238; 1347,147;83,42995
 439,66; 1179,517;   83,648; 1375,711;84,81543
 440,25; 1157,314;   85,844; 1390,567;82,12246
 440,84; 1182,653;   79,850; 1387,984;84,30352
 441,43; 1221,411;   78,054; 1440,985;83,88953
 442,02; 1220,257;   79,650; 1411,022;85,67150
 442,61; 1256,240;   93,344; 1397,226;89,18721
 443,20; 1264,327;   94,249; 1446,625;86,52019
 443,79; 1231,732;   74,546; 1412,957;86,45971
 444,38; 1306,694;   84,248; 1461,789;88,74117
 444,97; 1293,303;   84,146; 1466,359;87,47975
 445,56; 1345,380;  101,846; 1477,038;90,42625
 446,15; 1389,538;   81,651; 1522,539;90,76952
 446,74; 1359,166;   58,644; 1462,286;92,65342
 447,33; 1430,832;   82,646; 1538,357;92,61360
 447,92; 1452,686;   78,151; 1570,720;92,09192
 448,51; 1500,528;   89,746; 1586,019;94,28645
 449,10; 1522,551;   92,045; 1608,840;94,31107
 449,69; 1577,208;   73,950; 1627,741;96,74777
 450,28; 1578,891;   66,948; 1608,251;98,09508
 450,87; 1599,039;   78,647; 1656,333;96,36851
 451,46; 1662,246;   96,048; 1702,208;97,51193
 452,05; 1669,253;   70,950; 1715,384;97,19471
 452,64; 1718,683;   70,850; 1725,182;99,60714
 453,23; 1799,467;  113,752; 1794,936;100,26952
 453,82; 1803,960;   83,451; 1800,660;100,19217
 454,40; 1790,483;   65,450; 1786,682;100,22081
 454,99; 1879,352;  101,253; 1871,891;100,42140
 455,58; 1868,536;   69,747; 1832,095;102,06775
 456,17; 1894,397;   63,852; 1873,634;101,14727
 456,76; 1910,986;   67,751; 1918,820;99,57680
 457,35; 1959,494;   78,348; 1930,490;101,56602
 457,94; 1981,256;   66,954; 1978,929;100,12171
 458,53; 2010,034;   67,350; 2010,101;99,99658
 459,12; 2070,903;   82,657; 2111,116;98,01754
 459,71; 2019,043;   58,148; 2060,071;97,95057
 460,30; 2066,617;   84,448; 2087,511;98,95688
 460,89; 2071,786;   57,551; 2129,920;97,19483
 461,48; 2094,956;   75,954; 2173,829;96,24034
 462,06; 2101,505;   68,050; 2187,303;95,95147
 462,65; 2068,598;   48,249; 2176,527;94,92879
 463,24; 2138,570;   87,456; 2288,680;93,18059
 463,83; 2108,505;   54,450; 2229,803;94,42396
 464,42; 2142,824;   88,349; 2333,687;91,49958
 465,01; 2122,883;   73,050; 2336,482;90,56303
 465,60; 2133,157;   64,050; 2384,322;89,17517
 466,19; 2152,556;   73,354; 2462,829;87,01502
 466,77; 2150,738;   81,551; 2462,939;86,88996
 467,36; 2161,377;   69,457; 2459,256;87,53537
 467,95; 2144,064;   79,551; 2466,098;86,50625
 468,54; 2144,559;   71,954; 2513,866;84,87630
 469,13; 2121,842;   69,452; 2535,977;83,20977
 469,72; 2134,514;   67,555; 2582,723;82,17976
 470,31; 2163,966;   87,855; 2629,242;81,69203
 470,90; 2139,579;   76,750; 2652,044;80,10073
 471,48; 2147,729;   32,057; 2671,875;80,14459
 472,07; 2201,561;  125,747; 2686,454;81,06410
 472,66; 2210,674;   67,853; 2748,412;79,93934
 473,25; 2203,738;   68,351; 2723,339;80,42925
 473,84; 2247,037;   55,955; 2766,545;80,83414
 474,43; 2312,765;   55,459; 2843,049;80,97698
 475,01; 2346,585;   69,254; 2885,926;80,85183
 475,60; 2372,789;   49,755; 2882,364;82,01039
 476,19; 2440,584;   74,158; 2956,932;82,08848
 476,78; 2491,977;   71,057; 2964,456;83,67044
 477,37; 2507,989;   59,355; 2945,364;84,84497
 477,95; 2576,518;   75,656; 3018,661;84,97646
 478,54; 2609,252;   63,253; 3023,691;86,00076
 479,13; 2655,652;   56,253; 3070,291;86,24309
 479,72; 2735,707;   81,154; 3090,147;88,22064
 480,31; 2759,317;   63,459; 3167,468;86,85085
 480,89; 2792,485;   60,254; 3171,026;87,83128
 481,48; 2852,198;   46,260; 3214,084;88,57619
 482,07; 2860,159;   61,654; 3233,866;88,21935
 482,66; 2891,378;   52,853; 3253,650;88,68181
 483,25; 2969,598;   78,960; 3319,884;89,19178
 483,83; 2978,611;   59,954; 3325,385;89,38043
 484,42; 3006,556;   54,354; 3355,129;89,43966
 485,01; 3055,132;   65,958; 3400,413;89,64505
 485,60; 3071,597;   73,764; 3490,590;87,73735
 486,18; 3069,918;   66,956; 3490,761;87,70831
 486,77; 3061,367;   67,252; 3519,736;86,72351
 487,36; 3106,423;   58,464; 3561,750;87,00285
 487,95; 3141,127;   59,161; 3640,781;86,04950
 488,53; 3108,602;   54,461; 3642,522;85,11952
 489,12; 3116,193;   50,563; 3722,252;83,49373
 489,71; 3090,435;   38,062; 3680,357;83,80354
 490,30; 3129,850;   61,460; 3742,503;83,35653
 490,88; 3128,753;   87,561; 3859,141;80,63443
 491,47; 3048,019;   60,663; 3867,512;78,47320
 492,06; 3100,290;   62,563; 3920,615;78,73733
 492,65; 3076,905;   59,161; 3947,060;77,61889
 493,23; 3041,272;   54,860; 3982,825;76,02950
 493,82; 3027,626;   65,853; 4018,031;74,94028
 494,41; 3004,157;   51,361; 4066,179;73,54743
 494,99; 3000,937;   73,655; 4126,945;72,21990
 495,58; 3005,150;   86,060; 4224,403;70,53764
 496,17; 2959,370;   56,356; 4198,681;70,08175
 496,76; 2999,918;   65,356; 4276,761;69,68130
 497,34; 2915,954;   54,557; 4305,235;67,31626
 497,93; 2909,229;   66,057; 4350,675;66,35764
 498,52; 2938,069;   60,059; 4454,387;65,49374
 499,10; 2917,760;   75,862; 4533,217;63,75751
 499,69; 2901,920;   55,360; 4537,006;63,51596
 500,28; 2888,617;   37,959; 4592,068;62,59529
 500,86; 2938,283;   62,862; 4698,539;62,02807
 501,45; 2911,783;   53,462; 4730,438;61,11472
 502,04; 2954,234;   53,362; 4813,958;60,93507
 502,62; 3007,870;   70,956; 4856,181;61,37463
 503,21; 2947,521;   57,856; 4939,699;59,19210
 503,80; 3004,386;   69,662; 5015,577;59,33633
 504,38; 3037,072;   58,460; 5081,425;59,29988
 504,97; 2992,186;   49,962; 5122,776;57,99984
 505,56; 3032,039;   70,859; 5194,989;57,78893
 506,14; 3097,249;   64,064; 5263,709;58,33445
 506,73; 3061,678;   23,565; 5292,507;57,66078
 507,32; 3139,182;   62,865; 5376,045;57,89972
 507,90; 3125,098;   70,860; 5443,284;56,85027
 508,49; 3152,404;   58,865; 5500,366;56,85084
 509,08; 3189,971;   67,264; 5571,931;56,72836
 509,66; 3214,024;   69,960; 5677,644;56,06707
 510,25; 3241,979;   63,561; 5737,400;56,01883
 510,83; 3264,878;   45,165; 5855,607;55,41253
 511,42; 3336,377;   61,968; 5895,913;56,12684
 512,01; 3306,300;   59,164; 5980,328;54,83949
 512,59; 3327,386;   46,562; 6041,676;54,72496
 513,18; 3361,457;   59,961; 6114,379;54,53036
 513,77; 3393,551;   42,257; 6171,797;54,67448
 514,35; 3405,164;   37,763; 6190,255;54,73231
 514,94; 3453,060;   58,662; 6323,517;54,18159
 515,52; 3448,011;   48,166; 6358,342;53,87876
 516,11; 3516,452;   80,665; 6474,047;53,73974
 516,69; 3449,943;   41,959; 6446,727;53,21010
 517,28; 3464,358;   83,358; 6541,973;52,34869
 517,87; 3436,806;   45,558; 6604,054;51,70772
 518,45; 3458,910;   74,858; 6626,192;51,65439
 519,04; 3438,687;   54,258; 6707,970;50,86527
 519,62; 3444,090;   55,863; 6774,114;50,43317
 520,21; 3394,237;   24,466; 6828,002;49,52970
 520,79; 3414,273;   52,068; 7000,875;48,38536
 521,38; 3398,776;   52,960; 6995,363;48,19391
 521,97; 3409,851;   43,068; 7141,554;47,42959
 522,55; 3365,613;   67,759; 7195,230;46,26963
 523,14; 3302,239;   26,759; 7180,289;45,78831
 523,72; 3375,001;   77,561; 7383,422;45,13418
 524,31; 3334,278;   71,665; 7406,107;44,48346
 524,89; 3339,147;   48,468; 7526,815;44,00277
 525,48; 3319,814;   21,666; 7603,580;43,50021
 526,06; 3382,600;   56,264; 7633,128;43,90122
 526,65; 3398,465;   72,370; 7803,105;43,02430
 527,23; 3429,338;   46,262; 7840,596;43,40430
 527,82; 3518,444;   37,967; 7905,978;44,23579
 528,41; 3597,289;   67,366; 8041,021;44,26982
 528,99; 3682,204;   66,365; 8108,167;44,96305
 529,58; 3777,212;   42,562; 8168,736;45,95828
 530,16; 3925,557;   49,461; 8315,379;46,89250
 530,75; 4143,875;   73,964; 8417,069;48,78172
 531,33; 4256,015;   45,566; 8440,980;50,15176
 531,92; 4429,624;   48,560; 8567,344;51,42828
 532,50; 4618,562;   87,770; 8706,468;52,56933
 533,09; 4776,007;   65,665; 8807,204;53,88459
 533,67; 4960,062;   63,458; 8952,011;55,08887
 534,26; 5071,446;   65,760; 9007,665;55,98009
 534,84; 5199,605;   68,461; 9127,061;56,64390
 535,42; 5339,274;   61,564; 9205,969;57,71519
 536,01; 5494,690;   79,263; 9330,215;58,53913
 536,59; 5607,937;   43,366; 9482,202;58,95400
 537,18; 5705,220;   77,360; 9568,605;59,29528
 537,76; 5805,024;   56,972; 9764,700;59,21109
 538,35; 5964,225;   59,368; 9892,694;60,04944
 538,93; 6016,000;   72,664; 9941,828;60,22127
 539,52; 6128,165;   57,370;10111,405;60,38168
 540,10; 6253,858;   63,269;10309,029;60,42098
 540,69; 6329,545;   68,763;10444,071;60,34309
 541,27; 6420,760;   58,262;10514,917;60,84640
 541,85; 6502,685;   47,366;10658,783;60,83371
 542,44; 6577,298;   56,460;10765,484;60,89105
 543,02; 6742,958;   80,369;10952,729;61,28006
 543,61; 6778,718;   77,067;11102,218;60,78512
 544,19; 6822,259;   55,066;11264,023;60,37309
 544,78; 6880,263;   62,766;11296,562;60,68738
 545,36; 7011,706;   77,469;11521,011;60,59520
 545,94; 7030,174;   54,564;11563,069;60,61265
 546,53; 7126,972;   52,771;11724,882;60,60773
 547,11; 7223,803;   90,668;11879,873;60,50565
 547,70; 7210,920;   75,860;11954,706;60,06527
 548,28; 7259,804;   47,965;12093,066;59,87362
 548,86; 7377,404;   81,365;12327,767;59,57700
 549,45; 7462,951;   33,768;12364,953;60,24711
 550,03; 7575,170;   76,467;12507,537;60,32226
 550,62; 7636,511;   63,566;12662,842;60,10619
 551,20; 7752,218;   61,467;12808,418;60,33405
 551,78; 7752,023;   61,164;12952,850;59,65751
 552,37; 7824,575;   55,864;13112,469;59,50024
 552,95; 7871,652;   56,765;13214,547;59,39365
 553,54; 7980,778;   49,965;13393,207;59,43693
 554,12; 8015,196;   67,167;13498,797;59,17397
 554,70; 8161,903;   67,568;13736,973;59,21498
 555,29; 8190,156;   61,965;13856,285;58,92419
 555,87; 8262,113;   60,170;13987,786;58,88979
 556,45; 8327,734;   57,162;14154,058;58,66946
 557,04; 8385,366;   43,667;14376,600;58,19953
 557,62; 8437,366;   68,867;14525,499;57,88692
 558,20; 8564,198;   42,671;14799,940;57,74461
 558,79; 8657,673;  100,368;14905,875;57,79812
 559,37; 8674,818;   49,867;15000,418;57,68986
 559,95; 8785,454;   46,669;15169,691;57,78465
 560,54; 8926,977;   71,768;15324,613;58,05611
 561,12; 8939,463;   50,866;15485,562;57,58842
 561,70; 9024,181;   50,369;15679,551;57,41703
 562,29; 9138,925;   61,768;15810,994;57,63557
 562,87; 9196,051;   73,168;16023,953;57,19394
 563,45; 9284,851;   71,068;16194,754;57,14439
 564,04; 9351,138;   54,362;16227,195;57,48390
 564,62; 9445,929;   37,769;16438,332;57,36486
 565,20; 9557,282;   59,962;16715,838;57,02084
 565,78; 9634,830;   70,765;16797,326;57,17891
 566,37; 9724,285;   71,066;17011,283;56,98403
 566,95; 9761,158;   52,969;17124,330;56,86828
 567,53; 9916,034;   67,262;17308,857;57,12216
 568,12; 9880,804;   62,265;17367,766;56,73652
 568,70;10081,626;   85,264;17565,889;57,18538
 569,28;10141,181;   61,069;17745,252;57,00072
 569,86;10214,393;   67,767;17910,758;56,86617
 570,45;10324,084;   78,569;18124,689;56,77406
 571,03;10346,709;   53,962;18259,898;56,53512
 571,61;10561,517;   46,571;18424,824;57,21407
 572,19;10494,115;   54,263;18395,773;56,91926
 572,78;10589,273;   70,668;18668,975;56,55679
 573,36;10726,574;   84,264;18797,668;56,86999
 573,94;10765,322;   44,064;18892,750;56,88067
 574,52;10850,517;   54,559;19030,768;56,89207
 575,11;10886,071;   37,264;19159,830;56,73301
 575,69;10956,814;   53,566;19268,680;56,74308
 576,27;11003,527;   47,161;19391,381;56,63897
 576,85;11095,475;   43,264;19549,668;56,65940
 577,44;11207,935;   30,262;19814,158;56,49884
 578,02;11212,769;   32,159;19753,887;56,69184
 578,60;11350,896;   50,464;20073,791;56,43634
 579,18;11447,293;   51,963;20160,752;56,66840
 579,76;11454,000;   40,264;20300,129;56,33668
 580,35;11547,036;   60,170;20436,707;56,37301
 580,93;11623,922;   59,667;20641,557;56,18655
 581,51;11587,661;   24,770;20697,168;55,93396
 582,09;11685,063;   58,663;20755,756;56,17408
 582,67;11790,918;   49,567;20971,318;56,12031
 583,26;11943,477;   28,568;21227,014;56,20652
 583,84;11862,448;   14,164;21413,709;55,36699
 584,42;12014,426;   48,064;21513,287;55,74767
 585,00;12152,114;   81,366;21772,180;55,64913
 585,58;12109,466;   25,167;21912,299;55,21189
 586,17;12222,201;   46,761;21948,521;55,59115
 586,75;12200,937;    6,666;22026,902;55,37756
 587,33;12311,844;   47,767;22191,678;55,38352
 587,91;12307,137;   74,866;22390,201;54,81554
 588,49;12342,734;   63,962;22349,758;55,09685
 589,07;12339,747;   45,468;22403,215;54,98890
 589,65;12404,341;   28,267;22444,439;55,21047
 590,24;12362,309;   42,562;22447,799;54,98601
 590,82;12293,705;   28,261;22484,160;54,62014
 591,40;12346,448;   41,464;22520,209;54,74053
 591,98;12394,742;   45,759;22558,227;54,85397
 592,56;12474,105;   61,161;22699,961;54,83040
 593,14;12485,843;   43,359;22728,928;54,84757
 593,72;12442,078;   29,765;22889,107;54,29865
 594,30;12502,269;   36,759;22797,486;54,76762
 594,89;12487,200;   41,364;22862,428;54,53662
 595,47;12524,201;   38,961;22922,623;54,55963
 596,05;12518,966;   30,267;23003,799;54,36125
 596,63;12656,166;   31,167;23056,199;54,83162
 597,21;12639,711;   36,766;23145,441;54,53772
 597,79;12667,440;   35,467;23166,039;54,61159
 598,37;12597,910;   36,669;23222,748;54,17579
 598,95;12654,437;   50,766;23305,301;54,19876
 599,53;12653,651;   46,757;23207,996;54,43100
 600,11;12731,752;   48,665;23341,947;54,44955
 600,70;12603,520;   57,363;23315,111;53,94399
 601,28;12618,349;   38,564;23424,809;53,79138
 601,86;12605,737;   61,766;23355,102;53,85219
 602,44;12638,705;   23,661;23449,660;53,85061
 603,02;12561,544;   38,656;23576,521;53,20316
 603,60;12577,983;   54,858;23663,232;53,04527
 604,18;12485,342;   69,263;23594,734;52,77717
 604,76;12376,764;   59,263;23642,154;52,23066
 605,34;12263,233;   27,565;23530,764;52,05959
 605,92;12077,131;   59,561;23453,719;51,36996
 606,50;11902,009;   17,662;23498,998;50,61189
 607,08;11676,515;   31,666;23394,881;49,84266
 607,66;11519,711;   39,266;23561,643;48,80648
 608,24;11225,592;   46,067;23522,059;47,62110
 608,82;10958,571;   26,164;23532,031;46,50927
 609,40;10587,089;   46,466;23471,021;44,99818
 609,98;10277,500;   18,864;23505,928;43,67781
 610,56;10045,376;   43,861;23497,662;42,64347
 611,14; 9748,155;   30,765;23481,086;41,43820
 611,72; 9574,804;   42,665;23572,467;40,51092
 612,30; 9377,738;   24,962;23468,496;39,89491
 612,88; 9254,514;   60,659;23517,730;39,19438
 613,46; 9113,908;   21,862;23505,697;38,71619
 614,04; 9089,503;   30,068;23461,873;38,66298
 614,62; 9080,428;   41,561;23489,982;38,54787
 615,20; 9091,247;   52,768;23402,416;38,70927
 615,78; 9078,558;   25,569;23463,430;38,62549
 616,36; 9121,522;   41,364;23400,150;38,87256
 616,94; 9117,011;    7,666;23272,242;39,15543
 617,52; 9051,521;   24,067;23373,656;38,66215
 618,10; 9047,991;   63,559;23336,107;38,60528
 618,68; 9014,785;   17,966;23253,184;38,72062
 619,26; 9028,100;   39,268;23398,834;38,48030
 619,84; 8983,441;   18,963;23277,133;38,54335
 620,42; 8970,178;   31,165;23313,506;38,39396
 621,00; 8967,678;   28,865;23209,607;38,56137
 621,58; 9061,320;   38,760;23216,406;38,92785
 622,16; 9114,491;   49,270;23335,164;38,93010
 622,74; 9127,511;   47,066;23327,742;39,00421
 623,32; 9271,259;   42,166;23291,223;39,69663
 623,90; 9326,143;   66,971;23311,484;39,83379
 624,48; 9326,908;   32,662;23196,598;40,12378
 625,05; 9536,709;   34,562;23105,098;41,18737
 625,63; 9612,108;   52,962;23188,799;41,31749
 626,21; 9643,538;   38,262;23117,596;41,61851
 626,79; 9788,518;   53,967;23219,719;42,02130
 627,37; 9729,061;   28,162;23090,717;42,06342
 627,95; 9855,848;   72,768;23200,215;42,30073
 628,53; 9753,178;   49,365;23176,607;41,95837
 629,11; 9714,065;   48,259;23043,449;42,03404
 629,69; 9833,528;   53,369;23256,932;42,14939
 630,27; 9667,241;   80,763;23105,434;41,63568
 630,84; 9620,509;   43,862;23021,197;41,67867
 631,42; 9633,821;   54,367;23319,656;41,17488
 632,00; 9500,117;   45,459;23125,768;40,96418
 632,58; 9475,745;   50,263;23105,172;40,88275
 633,16; 9419,365;   49,870;23096,906;40,65380
 633,74; 9299,426;   56,264;23018,488;40,25377
 634,32; 9251,453;   45,661;23007,842;40,09111
 634,90; 9293,939;   51,970;23195,746;39,93285
 635,47; 9104,624;   38,860;23035,645;39,42188
 636,05; 8924,953;   37,461;22989,342;38,72228
 636,63; 8914,678;   45,965;23104,807;38,46122
 637,21; 8792,400;   67,464;23150,529;37,79800
 637,79; 8694,808;   71,465;23192,904;37,29587
 638,37; 8464,340;   54,055;23070,883;36,53972
 638,94; 8336,655;   33,265;23100,686;35,99618
 639,52; 8196,355;   41,665;23195,285;35,21994
 640,10; 8159,848;   64,264;23215,900;34,96765
 640,68; 8079,014;   54,164;23175,334;34,70780
 641,26; 7952,480;   35,864;23250,268;34,10217
 641,84; 7914,246;   39,164;23235,002;33,95041
 642,41; 7805,412;   28,264;23192,936;33,57331
 642,99; 7826,377;   48,464;23145,568;33,67484
 643,57; 7849,543;   22,064;23158,402;33,83197
 644,15; 7914,310;   27,064;23178,035;34,06875
 644,73; 7999,275;   37,564;23277,568;34,25865
 645,30; 8036,542;   55,264;23230,303;34,43911
 645,88; 8104,308;   44,964;23362,635;34,56324
 646,46; 8177,073;   59,264;23447,568;34,70884
 647,04; 8251,439;   51,864;23367,902;35,16710
 647,61; 8377,705;   46,564;23396,336;35,67975
 648,19; 8388,171;   61,664;23433,369;35,62644
 648,77; 8416,037;   26,264;23442,002;35,82963
 649,35; 8458,903;   51,064;23590,137;35,71865
 649,92; 8371,469;   42,464;23596,070;35,36191
 650,50; 8321,835;   30,064;23551,104;35,25257
 651,08; 8252,801;   39,964;23450,537;35,08174
 651,66; 8192,167;   21,864;23534,770;34,74816
 652,23; 8016,933;   39,064;23561,004;33,91671
 652,81; 7934,499;   36,464;23644,137;33,45537
 653,39; 7875,465;   56,164;23647,170;33,14526
 653,97; 7751,831;   37,065;23882,504;32,35321
 654,54; 7676,597;   23,565;23823,137;32,15618
 655,12; 7702,863;   30,965;23831,971;32,23350
 655,70; 7719,229;   42,065;23962,805;32,09417
 656,28; 7782,294;   32,765;23947,037;32,40546
 656,85; 7836,960;   44,065;24051,070;32,46092
 657,43; 7875,227;   -1,035;23831,305;33,04863
 658,01; 8066,192;   21,465;24078,539;33,44017
 658,58; 8268,059;   55,165;24234,371;33,96676
 659,16; 8405,725;   51,965;24154,105;34,65983
 659,74; 8549,490;   59,465;24338,039;34,96921
 660,32; 8745,656;   71,665;24327,672;35,76018
 660,89; 8803,022;   34,265;24347,305;36,06607
 661,47; 8965,788;   51,665;24464,939;36,51343
 662,05; 9002,654;   25,365;24587,373;36,54949
 662,62; 9146,020;   59,665;24584,006;37,05035
 663,20; 9168,786;   80,665;24740,139;36,85448
 663,78; 9218,552;   47,965;24902,773;36,89663
 664,35; 9145,418;   52,465;24921,006;36,56408
 664,93; 9184,483;   64,465;25123,539;36,39408
 665,51; 9117,149;   49,565;25170,973;36,09505
 666,08; 9004,815;   30,165;25185,707;35,67663
 666,66; 9133,281;   47,465;25667,539;35,46366
 667,23; 8988,548;   51,765;25732,773;34,79919
 667,81; 9063,913;   65,865;25889,307;34,84450
 668,39; 9115,779;   43,265;26047,141;34,88908
 668,96; 9190,945;   54,665;26309,074;34,79903
 669,54; 9256,411;   38,765;26408,408;34,95552
 670,12; 9412,577;   51,165;26808,740;34,98603
 670,69; 9572,543;   64,165;26950,674;35,36487
 671,27; 9659,810;   25,565;27096,008;35,58953
 671,84; 9737,675;   40,665;27105,240;35,82916
 672,42; 9939,141;   66,265;27253,875;36,31388
 673,00;10069,507;   57,165;27531,408;36,44265
 673,57;10092,873;   59,965;27276,441;36,86336
 674,15;10173,339;   64,065;27613,475;36,69506
 674,72;10184,905;   58,565;27536,209;36,85301
 675,30;10257,371;   69,466;27513,541;37,12242
 675,88;10408,236;   36,266;27573,176;37,66570
 676,45;10465,402;   59,466;27677,309;37,67831
 677,03;10499,169;   67,866;27525,043;37,99117
 677,60;10587,135;   41,466;27770,576;38,03104
 678,18;10680,900;   59,466;27877,510;38,18182
 678,76;10703,566;   40,766;27809,143;38,39908
 679,33;10840,633;   57,666;27813,176;38,84983
 679,91;10969,698;   44,266;27813,311;39,34393
 680,48;11082,864;   28,766;27740,242;39,88997
 681,06;11233,330;   50,866;27735,176;40,39279
 681,63;11292,096;   37,566;27736,209;40,63206
 682,21;11473,063;   67,966;27797,543;41,12972
 682,78;11383,229;   20,566;27459,576;41,41061
 683,36;11625,294;   46,966;27565,510;42,07464
 683,93;11716,960;   30,466;27450,645;42,62005
 684,51;11848,326;   26,166;27477,277;43,06624
 685,08;12039,691;   38,966;27733,711;43,33214
 685,66;12041,058;   53,066;27694,045;43,37036
 686,24;12164,224;   33,766;27796,578;43,69319
 686,81;12220,290;   57,666;27899,910;43,68406
 687,39;12258,155;   38,866;27807,844;44,00338
 687,96;12323,321;   54,166;27850,479;44,13951
 688,54;12293,987;   30,866;27984,811;43,86902
 689,11;12343,453;   26,966;28043,545;43,96142
 689,69;12298,819;   29,666;28019,279;43,83467
 690,26;12433,785;   59,466;28289,313;43,83417
 690,84;12404,052;   50,066;28239,846;43,82434
 691,41;12419,417;   35,966;28403,879;43,65302
 691,98;12421,983;   31,466;28427,912;43,63404
 692,56;12472,350;   32,866;28437,445;43,79394
 693,13;12580,315;   64,866;28655,080;43,77529
 693,71;12651,381;   24,466;28657,912;44,09848
 694,28;12776,747;   41,966;28715,945;44,41232
 694,86;12870,813;   47,266;28928,879;44,40038
 695,43;12998,579;   61,366;29100,912;44,55033
 696,01;13137,545;   36,266;29145,547;45,00722
 696,58;13315,110;   42,167;29083,879;45,70303
 697,16;13421,377;   38,067;29126,414;46,00918
 697,73;13701,942;   63,467;29338,246;46,58780
 698,30;13702,108;   51,867;29223,980;46,79209
 698,88;13884,375;   40,467;29558,613;46,89965
 699,45;14039,541;   35,367;29765,848;47,10376
 700,03;14156,507;   56,067;29750,980;47,48436
 700,60;14306,173;   56,267;29850,613;47,82755
 701,18;14352,438;   61,867;29963,947;47,79123
 701,75;14585,904;   74,367;30094,682;48,33906
 702,32;14487,971;   50,367;29901,914;48,36468
 702,90;14572,736;   52,467;30254,148;48,07769
 703,47;14692,002;   51,367;30428,881;48,19563
 704,05;14640,269;   67,767;30546,715;47,81170
 704,62;14657,534;   39,867;30587,848;47,85150
 705,19;14710,500;   43,667;30586,982;48,01978
 705,77;14759,366;   29,967;30618,314;48,15363
 706,34;14847,132;   61,667;30627,049;48,37324
 706,91;14861,998;   46,367;30673,883;48,37360
 707,49;15027,764;   57,267;30976,316;48,41836
 708,06;15183,729;   66,367;31089,049;48,73003
 708,64;15254,796;   25,767;31093,582;49,01867
 709,21;15353,762;   58,167;31179,316;49,14855
 709,78;15502,728;   41,367;31281,150;49,49253
 710,36;15694,193;   61,667;31419,684;49,85177
 710,93;15840,260;   50,567;31562,416;50,10716
 711,50;16015,525;   44,467;31506,049;50,76368
 712,08;16159,592;   76,567;31925,383;50,49803
 712,65;16207,857;   73,667;31775,916;50,89289
 713,22;16393,924;   69,067;31900,250;51,28574
 713,80;16462,889;   84,167;31966,883;51,37179
 714,37;16475,455;   55,767;31827,018;51,68096
 714,94;16478,721;   53,967;31727,551;51,85632
 715,52;16713,486;   47,867;31732,984;52,59762
 716,09;16756,754;   65,467;31891,918;52,44470
 716,66;16744,818;   73,467;31935,051;52,32430
 717,23;16820,186;   66,867;31908,484;52,61453
 717,81;16711,951;   50,168;31812,018;52,45848
 718,38;16695,816;   47,468;31671,252;52,64502
 718,95;16708,982;   59,068;31618,984;52,75652
 719,53;16764,748;   56,568;31661,418;52,86587
 720,10;16642,914;   59,968;31481,252;52,77616
 720,67;16658,980;   35,768;31355,984;53,07502
 721,24;16531,846;   59,468;31256,020;52,80192
 721,82;16572,912;   49,968;31236,053;52,98178
 722,39;16700,979;   64,068;31235,885;53,37164
 722,96;16629,645;   64,968;31261,420;53,09795
 723,53;16592,211;   88,268;31151,953;53,12938
 724,11;16769,775;   61,568;31207,486;53,64493
 724,68;16791,643;   71,568;31242,020;53,64078
 725,25;16832,508;   72,768;31399,953;53,49903
 725,82;17056,174;   96,068;31564,387;53,89581
 726,40;16994,939;   62,668;31714,820;53,49485
 726,97;17129,906;   62,168;31875,354;53,64989
 727,54;17253,172;   46,968;31801,486;54,18506
 728,11;17281,238;   49,568;32045,820;53,85528
 728,69;17331,805;   39,568;31938,953;54,20868
 729,26;17380,270;   53,568;32105,088;54,05891
 729,83;17679,535;   53,268;32264,621;54,72067
 730,40;17711,301;   66,768;32291,754;54,75420
 730,97;17809,367;   44,268;32590,588;54,58405
 731,55;17857,033;   41,468;32755,820;54,45795
 732,12;17907,299;   86,268;32841,656;54,40641
 732,69;17939,266;   66,968;32889,988;54,45050
 733,26;18070,432;   55,168;32930,520;54,79869
 733,83;18102,598;   41,168;32979,055;54,83482
 734,41;18241,164;   65,468;32991,590;55,20145
 734,98;18168,430;   51,368;33155,621;54,72729
 735,55;18239,895;   43,168;33183,656;54,90784
 736,12;18379,262;   65,968;33377,289;54,97619
 736,69;18425,027;   76,968;33377,922;55,09770
 737,26;18459,492;   57,468;33552,254;54,93997
 737,84;18464,260;   70,768;33487,188;55,04327
 738,41;18456,025;   63,168;33492,422;55,02024
 738,98;18358,592;   63,569;33375,055;54,92107
 739,55;18292,758;   49,669;33377,789;54,73783
 740,12;18309,023;   62,969;33678,023;54,27941
 740,69;18426,988;   70,569;33575,656;54,78696
 741,26;18366,855;   56,269;33557,391;54,65664
 741,83;18437,721;   53,869;33719,523;54,60714
 742,41;18560,986;   56,169;33833,055;54,78545
 742,98;18497,854;   91,469;33874,590;54,48397
 743,55;18509,918;   53,569;33836,824;54,63165
 744,12;18519,385;   50,469;33859,855;54,62659
 744,69;18479,551;   59,569;33848,492;54,51485
 745,26;18523,916;   42,169;33677,723;54,94706
 745,83;18646,682;   58,769;33854,355;55,00101
 746,40;18648,648;   57,969;33844,789;55,02347
 746,97;18715,314;   44,769;33828,125;55,26551
 747,55;18747,480;   62,269;33966,957;55,11100
 748,12;18706,846;   57,869;33910,191;55,08921
 748,69;18774,512;   68,769;33877,625;55,32794
 749,26;18801,277;   65,069;33958,559;55,27967
 749,83;18755,943;   42,569;33911,992;55,25153
 750,40;18758,811;   89,669;34158,824;54,79778
 750,97;18889,875;   96,269;34144,160;55,19756
 751,54;18890,441;   40,569;33980,793;55,53844
 752,11;18846,908;   52,969;33874,727;55,56760
 752,68;18785,674;   87,869;33912,859;55,27808
 753,25;18849,340;   60,269;33774,594;55,73023
 753,82;18753,105;   65,069;33810,527;55,37941
 754,39;18803,371;   75,169;33727,160;55,65258
 754,96;18821,938;   60,069;33616,395;55,91157
 755,53;18777,004;   29,469;33796,527;55,52019
 756,10;18717,869;   64,169;33720,961;55,42329
 756,67;18708,734;   73,369;33813,395;55,23222
 757,24;18566,102;   72,769;33740,426;54,92907
 757,81;18510,268;   16,469;33677,762;54,94084
 758,38;18675,434;   54,569;33822,695;55,14332
 758,95;18731,100;   79,469;33743,426;55,40534
 759,52;18439,064;   57,469;33615,859;54,77496
 760,09;18415,531;   68,570;33306,992;55,19805
 760,66;18381,396;   59,570;33309,727;55,10298
 761,23;18414,463;   91,070;33353,961;55,08659
 761,80;18342,729;   56,270;33295,793;55,01420
 762,37;18220,494;   68,970;33167,727;54,84050
 762,94;18324,961;   70,970;33187,461;55,12055
 763,51;18122,527;   36,070;32949,793;54,95111
 764,08;18146,092;   66,270;32998,527;54,90004
 764,65;18142,359;   69,570;32798,961;55,21884
 765,22;18108,125;   54,670;32804,496;55,12535
 765,79;18094,090;   77,370;32691,928;55,24134
 766,36;18097,256;   73,170;32743,063;55,17033
 766,93;18173,623;   68,970;32551,295;55,73694
 767,50;18204,588;   89,470;32828,328;55,33216
 768,07;18161,154;   63,870;32699,262;55,45294
 768,64;18073,621;   86,470;32572,596;55,36872
 769,21;17968,787;   57,970;32359,729;55,44843
 769,78;17925,951;   78,770;32244,963;55,48428
 770,34;17671,918;   45,570;32031,195;55,10709
 770,91;17821,084;   58,470;31921,430;55,74691
 771,48;17763,850;   62,370;31836,863;55,70971
 772,05;17691,115;   66,470;31610,697;55,87281
 772,62;17503,281;   42,670;31443,029;55,60641
 773,19;17568,748;   59,370;31579,764;55,54936
 773,76;17580,713;   71,070;31506,297;55,70070
 774,33;17488,980;   74,170;31447,330;55,50863
 774,90;17326,746;   52,870;31206,064;55,44817
 775,47;17316,211;   59,970;30957,498;55,84991
 776,03;17215,979;   73,470;30984,330;55,45788
 776,60;17107,443;   55,970;30757,863;55,53883
 777,17;17106,309;   65,470;30698,098;55,62970
 777,74;17007,375;   30,870;30522,031;55,67681
 778,31;17024,242;   68,970;30582,064;55,56720
 778,88;16979,008;   30,470;30366,898;55,86860
 779,45;16806,873;   75,770;30358,131;55,25033
 780,01;16815,738;   58,370;30299,664;55,41221
 780,58;16647,404;   60,570;30177,998;55,07387
 781,15;16517,172;   38,771;29979,432;55,03687
 781,72;16580,637;   66,771;29962,266;55,23864
 782,29;16451,504;   51,771;29667,100;55,37583
 782,86;16410,469;   55,571;29617,732;55,32376
 783,42;16377,135;   56,171;29598,166;55,24665
 783,99;16276,801;   66,671;29482,100;55,10758
 784,56;16242,566;   55,171;29320,232;55,31304
 785,13;16110,033;   40,271;29247,266;55,02025
 785,70;16025,799;   49,071;29060,299;55,07084
 786,26;16006,364;   51,671;28910,732;55,28487
 786,83;16036,331;   84,371;28889,166;55,37953
 787,40;15977,696;   57,171;28783,500;55,42137
 787,97;15996,463;   43,971;28581,133;55,90077
 788,54;15989,028;   70,371;28515,268;55,96314
 789,10;15872,994;   57,971;28344,400;55,91028
 789,67;15858,860;   70,371;28245,334;56,03730
 790,24;15840,026;   51,071;28193,768;56,10321
 790,81;15580,692;   88,271;27914,400;55,67580
 791,37;15445,658;   73,671;27872,135;55,29797
 791,94;15572,324;   70,771;27886,367;55,72972
 792,51;15395,990;   46,271;27539,201;55,83151
 793,08;15313,556;   69,771;27555,234;55,46126
 793,64;15241,322;   71,271;27455,168;55,39771
 794,21;15073,588;   69,671;27250,602;55,20016
 794,78;14983,254;   53,071;27147,035;55,10520
 795,35;14898,720;   73,471;27007,969;55,04186
 795,91;14888,786;   48,071;26789,301;55,49750
 796,48;14779,651;   55,771;26710,734;55,23879
 797,05;14671,518;   57,671;26624,369;55,00814
 797,62;14627,384;   41,971;26600,701;54,91758
 798,18;14355,550;   57,471;26410,736;54,25543
 798,75;14299,415;   56,571;26279,770;54,31391
 799,32;14347,382;   60,771;26209,102;54,63680
 799,88;14253,247;   55,971;26051,535;54,61422
 800,45;14102,113;   33,971;25945,270;54,29347
 801,02;14056,579;   65,271;25880,104;54,19872
 801,58;13978,045;   90,872;25660,436;54,31134
 802,15;13860,411;   72,872;25615,270;53,97903
 802,72;13838,877;   66,172;25404,703;54,35479
 803,28;13788,443;   49,172;25288,938;54,43502
 803,85;13769,009;   41,972;25144,871;54,68307
 804,42;13662,775;   77,772;24948,004;54,62355
 804,98;13710,841;  100,672;24935,537;54,80267
 805,55;13520,707;   56,972;24702,371;54,62981
 806,12;13577,272;   83,572;24611,004;55,01473
 806,68;13403,539;   66,472;24493,738;54,59910
 807,25;13408,104;   74,972;24436,271;54,73079
 807,82;13327,671;   86,872;24407,805;54,44199
 808,38;13252,937;   73,672;24367,037;54,25047
 808,95;13291,402;   62,972;24166,971;54,88065
 809,52;13219,469;   50,272;24162,004;54,61738
 810,08;13097,734;   55,172;23994,938;54,48074
 810,65;13226,101;   77,172;24169,672;54,57685
 811,21;13193,166;   69,972;24123,404;54,55851
 811,78;13178,332;   92,472;24337,539;53,97329
 812,35;13173,298;   64,972;24173,871;54,37132
 812,91;13227,765;   90,072;24239,705;54,40121
 813,48;13202,130;   68,172;24202,738;54,41970
 814,04;13151,596;   64,172;24088,373;54,47600
 814,61;13081,962;   77,572;24176,006;53,96363
 815,18;12963,028;   67,772;23892,539;54,12542
 815,74;12879,194;   69,772;23709,172;54,18675
 816,31;12849,460;   83,372;23614,406;54,25213
 816,87;12692,025;   43,272;23489,641;53,94760
 817,44;12661,392;   76,972;23452,273;53,83639
 818,00;12553,357;   43,272;23159,506;54,11818
 818,57;12536,023;   71,872;23076,340;54,18144
 819,14;12497,290;   82,872;22924,273;54,35051
 819,70;12485,455;   72,672;22792,707;54,63364
 820,27;12355,521;   62,972;22691,941;54,32218
 820,83;12374,188;   70,072;22541,373;54,75480
 821,40;12312,554;   98,072;22431,908;54,69048
 821,96;12322,119;   75,272;22315,541;55,06609
 822,53;12295,585;   70,973;22257,574;55,09908
 823,09;12240,151;   81,073;22073,309;55,28805
 823,66;12227,217;   68,173;21862,541;55,78984
 824,22;12128,383;   77,173;21851,674;55,34552
 824,79;12007,649;   75,473;21561,408;55,53483
 825,35;11901,515;   65,173;21648,041;54,84138
 825,92;11828,181;   75,173;21398,875;55,11711
 826,48;11810,146;   87,673;21501,309;54,74303
 827,05;11692,913;   89,573;21448,242;54,32614
 827,61;11670,279;   75,273;21249,076;54,76109
 828,18;11589,645;   60,873;21191,209;54,56029
 828,74;11503,811;   91,673;21053,543;54,44236
 829,31;11377,377;   83,373;21002,176;53,98972
 829,87;11377,242;   73,073;20733,709;54,71356
 830,44;11232,009;   85,173;20631,443;54,25236
 831,00;11236,574;   91,273;20673,977;54,14887
 831,57;11273,341;  101,573;20631,609;54,41670
 832,13;11087,606;   72,073;20323,344;54,39428
 832,69;11024,473;   58,173;20309,477;54,15108
 833,26;11053,738;   85,473;20322,711;54,19843
 833,82;10913,004;   93,073;20197,744;53,81799
 834,39;10912,170;   78,773;20137,477;54,00846
 834,95;10899,836;   57,173;19959,410;54,47962
 835,52;10802,302;   87,873;19851,744;54,21220
 836,08;10793,068;   95,573;19951,877;53,87455
 836,64;10783,834;   76,273;19800,711;54,28576
 837,21;10741,400;   88,673;19552,443;54,73106
 837,77;10748,866;   91,873;19491,777;54,93323
 838,34;10674,032;   67,473;19470,012;54,66583
 838,90;10541,798;   64,473;19306,045;54,45150
 839,46;10555,363;   83,873;19312,479;54,45788
 840,03;10663,130;   76,173;19300,811;55,06973
 840,59;10620,796;   85,873;19175,645;55,18622
 841,16;10532,262;  105,173;19156,578;54,73134
 841,72;10366,527;   59,373;18965,512;54,51750
 842,28;10259,493;   77,873;18857,246;54,21704
 842,85;10292,560;   95,573;18812,578;54,47980
 843,41;10262,825;  105,374;18740,813;54,50610
 843,97;10209,392;   89,174;18686,846;54,41658
 844,54;10138,357;  104,774;18624,979;54,17642
 845,10; 9961,724;   89,174;18523,713;53,55463
 845,67; 9953,689;   68,774;18413,445;53,88440
 846,23; 9827,755;   78,674;18361,080;53,32493
 846,79; 9782,321;   90,474;18265,613;53,32475
 847,36; 9776,787;   55,774;18179,047;53,63829
 847,92; 9819,453;   84,874;18034,680;54,23223
 848,48; 9765,319;   41,874;18039,213;54,02713
 849,04; 9663,685;   62,374;17949,447;53,67737
 849,61; 9675,451;   56,274;17918,580;53,85182
 850,17; 9634,017;   68,174;17819,514;53,88800
 850,73; 9654,482;   71,474;17764,848;54,16157
 851,30; 9609,948;   46,074;17669,881;54,26679
 851,86; 9535,314;   75,874;17597,914;53,98595
 852,42; 9563,381;   51,174;17568,348;54,30218
 852,99; 9615,746;   79,274;17583,082;54,48227
 853,55; 9648,313;   83,174;17542,514;54,78522
 854,11; 9513,078;   70,074;17432,049;54,38900
 854,67; 9480,845;   85,474;17420,881;54,19758
 855,24; 9463,511;   51,874;17213,414;54,84145
 855,80; 9470,776;   76,874;17244,848;54,71760
 856,36; 9348,442;   80,574;17175,881;54,21294
 856,92; 9236,408;   54,474;17027,215;54,09812
 857,49; 9327,774;   81,274;17048,248;54,49705
 858,05; 9265,840;   67,274;16968,482;54,42549
 858,61; 9245,606;   65,774;17003,316;54,19814
 859,17; 9167,472;   77,374;16904,250;54,02130
 859,74; 9196,238;   82,074;16836,883;54,39730
 860,30; 9164,104;   93,074;16663,016;54,74388
 860,86; 9014,670;   72,074;16692,350;53,80534
 861,42; 9063,235;   74,674;16545,883;54,57135
 861,99; 8997,201;   54,674;16506,717;54,35512
 862,55; 8897,168;   66,374;16393,051;54,08813
 863,11; 8908,334;   75,174;16437,283;53,98546
 863,67; 8881,499;   61,274;16290,117;54,34907
 864,23; 8941,966;   80,175;16199,351;54,97670
 864,80; 8874,432;   69,175;16081,384;54,99089
 865,36; 8857,197;   71,875;16120,817;54,74082
 865,92; 8862,463;   96,175;16088,751;54,81473
 866,48; 8733,229;   67,375;15987,384;54,43373
 867,04; 8630,095;   60,675;15891,418;54,13151
 867,60; 8660,261;   99,375;15884,451;54,23405
 868,17; 8671,027;   93,675;15884,685;54,31795
 868,73; 8649,393;   82,775;15672,618;54,94999
 869,29; 8567,359;   59,475;15470,151;55,20773
 869,85; 8568,925;  100,475;15369,685;55,46096
 870,41; 8529,791;   80,575;15293,418;55,54002
 870,97; 8428,057;   92,975;15232,252;55,05601
 871,54; 8276,623;   84,175;15178,686;54,27435
 872,10; 8281,389;   84,275;15055,419;54,75275
 872,66; 8232,354;   66,775;14910,652;55,00975
 873,22; 8227,521;   81,975;14890,586;55,00547
 873,78; 8108,387;   65,275;14742,419;54,80025
 874,34; 8035,353;   95,075;14662,652;54,50651
 874,90; 7939,353;  109,775;14536,053;54,27303
 875,46; 7826,152;   96,375;14412,952;53,99180
 876,03; 7839,553;   86,475;14363,353;54,30514
 876,59; 7739,453;   64,475;14153,253;54,47582
 877,15; 7737,953;  101,475;14166,853;54,29273
 877,71; 7688,553;   78,275;14064,652;54,41207
 878,27; 7602,553;   95,675;13910,553;54,33908
 878,83; 7645,453;  114,275;13971,753;54,34739
 879,39; 7589,953;   91,075;14082,753;53,59527
 879,95; 7487,652;   86,275;13964,253;53,33181
 880,51; 7520,853;   75,175;13927,253;53,75134
 881,07; 7557,752;   82,375;13978,753;53,79371
 881,63; 7582,953;   92,575;13971,253;53,97040
 882,19; 7624,152;   82,675;13921,553;54,49486
 882,75; 7673,853;   86,275;14019,553;54,45652
 883,31; 7685,553;   95,575;14187,853;53,85913
 883,88; 7696,553;   96,375;14174,353;53,98629
 884,44; 7688,652;   76,175;14175,753;53,99082
 885,00; 7783,752;  106,075;14266,952;54,21753
 885,56; 7730,353;  101,675;14299,452;53,73149
 886,12; 7810,053;  109,875;14421,152;53,80496
 886,68; 7792,252;   90,775;14436,753;53,68388
 887,24; 7883,553;  102,475;14574,952;53,76466
 887,80; 7846,152;   86,975;14671,753;53,20052
 888,36; 7884,453;  106,275;14715,652;53,24099
 888,92; 7851,353;   98,975;14773,353;52,82935
 889,48; 7973,053;   99,575;14973,853;52,93351
 890,04; 7854,053;   95,275;14803,053;52,75289
 890,60; 7910,353;  117,475;15014,652;52,31110
 891,16; 7892,152;   99,875;15075,853;52,03184
 891,72; 7930,853;  113,275;15058,452;52,30836
 892,28; 7918,553;  112,475;15126,053;51,99345
 892,84; 7841,853;   93,775;15039,853;51,84021
 893,39; 7855,053;  117,575;15112,952;51,59909
 893,95; 7791,152;  112,975;15044,753;51,42172
 894,51; 7691,152;   66,375;14891,253;51,43231
 895,07; 7705,752;  127,375;14906,353;51,27809
 895,63; 7568,252;   74,275;14689,952;51,27356
 896,19; 7594,652;   90,375;14601,952;51,71235
 896,75; 7543,252;  105,175;14460,152;51,81532
 897,31; 7471,053;   82,775;14295,853;51,98225
 897,87; 7338,652;   98,175;14146,853;51,53850
 898,43; 7285,453;   87,775;14075,753;51,45617
 898,99; 7253,752;  109,175;14002,753;51,42360
 899,55; 7246,853;  109,475;13940,652;51,60354
 900,11; 7142,953;  104,975;13747,553;51,58833
 900,67; 7041,453;   91,375;13658,652;51,22677
 901,22; 7007,652;  108,375;13601,952;51,13008
 901,78; 6886,752;   91,275;13560,053;50,45356
 902,34; 6862,853;  103,075;13451,152;50,64233
 902,90; 6762,853;   73,575;13350,652;50,38215
 903,46; 6725,953;   95,775;13236,353;50,45576
 904,02; 6611,252;   88,075;13091,553;50,16487
 904,58; 6440,853;   67,075;12918,152;49,59722
 905,14; 6348,152;   63,975;12874,553;49,05460
 905,70; 6274,853;   66,775;12696,053;49,15624
 906,25; 6285,853;   84,375;12708,452;49,12421
 906,81; 6245,553;   87,675;12732,152;48,70014
 907,37; 6152,353;   79,275;12616,152;48,44171
 907,93; 6062,953;   74,775;12588,152;47,85421
 908,49; 5995,353;  101,875;12497,652;47,54424
 909,05; 5971,152;   89,675;12425,553;47,67782
 909,60; 5946,453;   86,575;12340,452;47,82060
 910,16; 5842,252;   67,675;12291,853;47,23899
 910,72; 5843,453;  100,475;12207,753;47,43409
 911,28; 5753,353;   90,875;12156,053;46,93240
 911,84; 5718,652;   79,575;12106,753;46,88612
 912,39; 5661,553;   73,475;12049,353;46,66111
 912,95; 5729,353;  104,475;12001,452;47,27989
 913,51; 5639,853;   85,375;11945,253;46,83419
 914,07; 5564,252;   83,775;11813,452;46,72317
 914,63; 5464,853;   64,775;11748,053;46,22057
 915,18; 5433,252;   77,475;11617,853;46,40903
 915,74; 5354,053;   63,975;11632,652;45,72759
 916,30; 5329,252;   61,475;11588,553;45,69916
 916,86; 5331,252;   83,575;11514,652;45,90711
 917,42; 5232,453;   82,275;11425,152;45,40451
 917,97; 5154,453;   75,375;11265,452;45,38912
 918,53; 5066,252;   67,775;11196,253;44,91609
 919,09; 5002,453;   88,975;11223,753;44,12731
 919,65; 4928,953;   83,375;11083,452;44,05040
 920,20; 4822,353;   61,875;10983,053;43,58942
 920,76; 4689,853;   65,475;10849,452;42,88193
 921,32; 4595,853;   82,675;10770,952;42,22549
 921,87; 4490,553;   97,475;10670,253;41,55084
 922,43; 4370,553;   64,675;10561,353;41,02134
 922,99; 4278,953;   61,875;10406,753;40,76489
 923,55; 4237,353;   63,775;10357,353;40,54545
 924,10; 4176,652;   73,575;10282,853;40,18969
 924,66; 4086,752;   78,675;10170,152;39,71745
 925,22; 3926,452;   43,275;10093,952;38,63598
 925,77; 3923,653;   66,075; 9927,053;39,11963
 926,33; 3859,353;   90,375; 9903,253;38,40848
 926,89; 3738,552;   71,975; 9692,753;38,11103
 927,44; 3669,653;   52,175; 9580,553;37,96530
 928,00; 3611,052;   66,875; 9533,753;37,43766
 928,56; 3548,052;   80,375; 9372,253;37,31945
 929,12; 3490,252;   72,775; 9275,152;37,13690
 929,67; 3407,653;   67,575; 9091,053;37,01541
 930,23; 3280,452;   50,975; 8915,253;36,43249
 930,78; 3282,052;  100,675; 8842,553;36,39238
 931,34; 3137,653;   61,975; 8632,152;35,88814
 931,90; 3029,752;   61,675; 8494,353;35,19733
 932,45; 2915,752;   78,775; 8290,753;34,54682
 933,01; 2764,653;   52,975; 8024,453;34,01725
 933,57; 2621,552;   72,175; 7753,252;33,19036
 934,12; 2482,052;   70,475; 7399,553;32,90424
 934,68; 2298,353;   59,075; 7020,252;32,16809
 935,24; 2128,952;   67,875; 6614,752;31,48184
 935,79; 1981,853;   72,975; 6254,853;30,87860
 936,35; 1826,152;   91,375; 5812,252;30,32363
 936,90; 1674,652;   80,275; 5348,752;30,26259
 937,46; 1487,552;   72,775; 4956,953;28,96654
 938,02; 1343,252;   63,375; 4549,152;28,53190
 938,57; 1264,252;   73,175; 4265,053;28,41394
 939,13; 1178,752;   70,575; 3986,752;28,29743
 939,68; 1069,252;   57,375; 3713,452;27,67659
 940,24;  994,352;   68,775; 3504,052;26,94331
 940,79;  978,753;   91,875; 3391,052;26,88178
 941,35;  911,052;   79,675; 3217,552;26,49490
 941,91;  862,852;   71,375; 3122,252;25,94262
 942,46;  842,253;   75,075; 3063,552;25,67118
 943,02;  845,653;   65,375; 3050,752;26,13665
 943,57;  818,852;   61,275; 2982,452;25,93398
 944,13;  821,753;   67,375; 2974,452;25,94969
 944,68;  818,753;   65,975; 3041,752;25,29683
 945,24;  846,653;   82,275; 3060,052;25,66940
 945,79;  839,453;   68,775; 3104,052;25,39068
 946,35;  839,953;   51,775; 3194,752;25,07742
 946,90;  885,552;   98,575; 3283,552;24,70904
 947,46;  848,653;   52,175; 3311,052;24,44024
 948,01;  853,453;   51,575; 3390,052;24,01926
 948,57;  912,653;   86,775; 3552,952;23,82675
 949,12;  882,153;   65,875; 3613,353;23,01008
 949,68;  911,352;   76,275; 3732,653;22,83893
 950,23;  901,153;   70,075; 3833,252;22,08446
 950,79;  888,453;   75,775; 3933,452;21,06650
 951,34;  913,653;   83,275; 4070,952;20,82359
 951,90;  898,453;   57,475; 4140,853;20,59514
 952,45;  898,153;   81,075; 4292,152;19,40305
 953,01;  880,253;   65,975; 4364,252;18,94428
 953,56;  908,052;   87,975; 4500,853;18,58374
 954,12;  870,552;   42,075; 4567,553;18,30696
 954,67;  911,153;   70,875; 4720,453;18,07213
 955,23;  904,253;   61,975; 4804,553;17,75991
 955,78;  896,653;   67,175; 4882,953;17,22417
 956,33;  890,352;   58,575; 4947,252;17,01437
 956,89;  880,953;   53,475; 5038,553;16,59909
 957,44;  917,253;   53,675; 5170,752;16,87638
 958,00;  922,753;   49,475; 5238,353;16,82980
 958,55;  917,453;   70,475; 5313,953;16,15297
 959,10;  905,352;   52,375; 5370,252;16,03981
 959,66;  938,653;   74,275; 5488,752;15,96419
 960,21;  940,552;   78,475; 5567,453;15,70561
 960,77;  917,352;   54,275; 5606,152;15,54569
 961,32;  929,352;   48,375; 5663,453;15,68950
 961,87;  947,552;   79,775; 5738,752;15,33453
 962,43;  928,753;   68,975; 5780,652;15,05298
 962,98;  943,552;   76,175; 5828,652;15,07833
 963,54;  895,153;   27,075; 5820,652;14,98345
 964,09;  890,153;   56,275; 5873,953;14,33351
 964,64;  894,352;   64,975; 5901,053;14,21121
 965,20;  861,653;   44,375; 5966,652;13,80005
 965,75;  869,253;   66,575; 5976,353;13,58219
 966,30;  847,052;   75,275; 6068,553;12,87739
 966,86;  817,753;   62,975; 6121,953;12,45718
 967,41;  807,852;   81,075; 6084,453;12,10614
 967,96;  781,753;   75,175; 6108,953;11,71037
 968,52;  798,253;   81,775; 6126,353;11,85323
 969,07;  754,953;   72,975; 6120,152;11,27762
 969,62;  738,253;   77,175; 6134,953;10,91287
 970,18;  717,253;   57,575; 6147,652;10,83201
 970,73;  717,753;   66,475; 6203,553;10,61218
 971,28;  751,153;   95,775; 6197,053;10,74164
 971,84;  706,352;   55,075; 6118,752;10,74064
 972,39;  736,153;   95,875; 6148,652;10,57824
 972,94;  693,653;   54,975; 6140,652;10,49476
 973,49;  685,552;   64,575; 6141,252;10,21903
 974,05;  694,653;   64,375; 6178,053;10,30930
 974,60;  707,253;   88,575; 6213,252;10,10139
 975,15;  703,453;   77,675; 6231,553;10,16883
 975,71;  694,653;   62,375; 6121,453;10,43521
 976,26;  701,653;   77,575; 6110,252;10,34495
 976,81;  700,852;   90,675; 6134,152;10,09646
 977,36;  716,753;   84,775; 6156,953;10,40776
 977,92;  702,552;   90,175; 6209,353;10,00751
 978,47;  699,352;   77,175; 6060,252;10,39895
 979,02;  706,352;   95,475; 6085,652;10,19799
 979,57;  697,453;   86,775; 6058,453;10,22623
 980,13;  671,953;   76,175; 6038,752; 9,99195
 980,68;  645,753;   77,075; 6010,553; 9,58422
 981,23;  672,953;   89,175; 6054,652; 9,78593
 981,78;  644,552;   82,075; 5974,152; 9,54634
 982,33;  630,653;   79,275; 5893,252; 9,48365
 982,89;  627,253;   94,375; 5938,152; 9,11872
 983,44;  615,953;   65,675; 5935,853; 9,37412
 983,99;  628,352;  104,775; 5949,453; 8,95819
 984,54;  593,653;   81,475; 5900,053; 8,80245
 985,09;  608,953;   87,275; 5873,752; 9,01546
 985,65;  571,253;   69,375; 5811,853; 8,73974
 986,20;  596,953;  106,575; 5791,152; 8,62646
 986,75;  590,052;   95,875; 5823,953; 8,62728
 987,30;  591,352;   97,175; 5726,053; 8,77933
 987,85;  557,852;   92,475; 5721,353; 8,26768
 988,40;  561,852;   96,675; 5693,953; 8,31078
 988,96;  568,052;  114,875; 5666,553; 8,16289
 989,51;  565,352;  108,875; 5644,053; 8,24684
 990,06;  603,753;  128,275; 5680,853; 8,56319
 990,61;  538,953;   93,575; 5569,053; 8,13404
 991,16;  578,052;  104,375; 5558,053; 8,68547
 991,71;  524,153;   79,875; 5505,853; 8,18797
 992,26;  530,253;   93,475; 5457,252; 8,14310
 992,81;  512,052;   75,075; 5427,053; 8,16479
 993,37;  574,552;  113,475; 5390,553; 8,73736
 993,92;  554,453;  108,375; 5368,953; 8,47963
 994,47;  561,953;  117,475; 5329,652; 8,52767
 995,02;  555,153;  118,475; 5313,252; 8,40609
 995,57;  522,852;   90,875; 5274,652; 8,33326
 996,12;  559,352;  133,575; 5247,553; 8,32576
 996,67;  546,653;  132,375; 5191,652; 8,18847
 997,22;  505,052;   99,875; 5128,652; 8,05718
 997,77;  530,552;  115,275; 5110,553; 8,31340
 998,32;  506,953;  103,775; 5015,652; 8,20822
 998,87;  508,953;  114,275; 5018,752; 8,04729
 999,42;  490,953;  101,675; 4972,553; 7,99194
 999,97;  483,152;  109,975; 4956,353; 7,70013
1000,53;  495,652;  123,475; 4993,752; 7,64181
1001,08;  465,353;   98,375; 4879,053; 7,67627
1001,63;  484,353;  144,475; 4878,053; 7,18014
1002,18;  414,753;   85,075; 4777,453; 7,02581
1002,73;  469,152;  131,375; 4813,853; 7,21365
1003,28;  450,953;  103,575; 4811,953; 7,37786
1003,83;  453,253;  119,075; 4691,752; 7,30814
1004,38;  461,552;  137,775; 4703,152; 7,09202
1004,93;  426,052;  114,375; 4680,953; 6,82519
1005,48;  427,052;  104,075; 4573,053; 7,22710
1006,03;  427,453;  112,775; 4525,652; 7,13089
1006,58;  414,753;  111,475; 4486,553; 6,93193
1007,13;  401,052;   94,475; 4466,252; 7,01265
1007,68;  402,052;  104,975; 4462,453; 6,81765
1008,23;  418,253;  114,575; 4425,853; 7,04379
1008,78;  412,353;  107,375; 4384,152; 7,13101
1009,33;  409,853;  121,875; 4307,752; 6,87974
1009,88;  385,453;   84,775; 4329,553; 7,08347
1010,43;  413,953;  118,875; 4320,752; 7,02252
1010,98;  396,152;  100,675; 4310,053; 7,01951
1011,52;  381,453;   97,075; 4264,953; 6,82308
1012,07;  432,253;  144,475; 4319,252; 6,89324
1012,62;  390,552;  103,875; 4259,152; 6,89912
1013,17;  390,052;   97,175; 4172,053; 7,18739
1013,72;  382,052;   94,575; 4143,453; 7,10018
1014,27;  394,353;  100,275; 4105,853; 7,34170
1014,82;  370,052;   86,875; 4042,952; 7,15804
1015,37;  362,853;   84,375; 3964,853; 7,17637
1015,92;  375,353;  109,475; 3894,252; 7,02492
1016,47;  340,652;   90,275; 3819,452; 6,71401
1017,02;  332,953;   81,075; 3732,153; 6,89872
1017,57;  350,052;   96,475; 3718,853; 7,00031
1018,11;  331,552;   77,275; 3656,252; 7,10475
1018,66;  360,152;  120,175; 3636,552; 6,82457
1019,21;  339,853;  109,675; 3579,552; 6,63359
1019,76;  306,453;   77,675; 3497,353; 6,69003
1020,31;  302,953;   71,975; 3446,452; 6,84484
1020,86;  305,152;   96,175; 3448,052; 6,23464
1021,41;  305,453;   80,175; 3387,052; 6,81239
1021,96;  303,652;   83,675; 3385,853; 6,66159
1022,50;  338,253;  105,975; 3332,952; 7,19799
1023,05;  318,152;   94,675; 3288,052; 6,99815
1023,60;  305,052;   97,975; 3251,353; 6,56685
1024,15;  298,152;   81,075; 3184,853; 6,99398
1024,70;  309,052;   95,075; 3176,252; 6,94467
1025,25;  293,652;   81,175; 3127,452; 6,97499
1025,79;  309,052;  101,175; 3110,752; 6,90720
1026,34;  308,453;   83,475; 3044,653; 7,59757
1026,89;  316,253;  102,175; 3039,052; 7,28929
1027,44;  307,052;   95,875; 2952,952; 7,39138
1027,99;  301,253;   93,475; 2944,552; 7,28768
1028,53;  286,453;   89,675; 2900,052; 7,00182
1029,08;  305,953;  114,775; 2876,653; 6,92201
1029,63;  312,552;  114,875; 2854,952; 7,21430
1030,18;  295,353;   92,075; 2788,552; 7,53863
1030,73;  281,253;   91,175; 2739,552; 7,17713
1031,27;  280,052;   85,875; 2715,252; 7,38492
1031,82;  277,552;   81,875; 2686,452; 7,51283
1032,37;  279,253;   98,875; 2688,853; 6,96444
1032,92;  291,152;  100,575; 2675,452; 7,40142
1033,46;  283,052;   99,775; 2599,252; 7,33263
1034,01;  250,553;   78,375; 2582,952; 6,87451
1034,56;  283,353;   98,875; 2559,252; 7,49794
1035,11;  267,152;   92,375; 2523,552; 7,18901
1035,65;  262,453;   87,575; 2478,052; 7,31559
1036,20;  270,753;   99,375; 2454,452; 7,27694
1036,75;  285,753;  118,675; 2446,353; 7,17786
1037,29;  267,652;   90,275; 2398,252; 7,68541
1037,84;  241,553;   78,375; 2347,252; 7,19199
1038,39;  251,253;   91,075; 2329,952; 7,15437
1038,94;  226,452;   73,075; 2277,153; 6,95881
1039,48;  245,652;   83,575; 2278,552; 7,38402
1040,03;  260,853;  102,875; 2245,252; 7,37393
1040,58;  239,452;  101,175; 2194,552; 6,60547
1041,12;  236,753;   91,375; 2191,653; 6,92182
1041,67;  238,152;  101,075; 2166,752; 6,63596
1042,22;  256,152;  118,475; 2145,252; 6,79293
1042,76;  244,952;   99,275; 2118,452; 7,21470
1043,31;  233,753;   90,675; 2060,653; 7,26290
1043,86;  236,053;   98,875; 2044,252; 7,05146
1044,40;  246,053;   92,975; 2018,052; 7,95176
1044,95;  227,352;   94,175; 1988,552; 7,03015
1045,50;  213,553;   75,375; 1934,353; 7,43298
1046,04;  261,953;  114,375; 1930,453; 8,12617
1046,59;  223,452;   96,175; 1878,353; 7,14168
1047,13;  241,753;  121,075; 1879,453; 6,86300
1047,68;  236,553;  115,675; 1860,052; 6,92955
1048,23;  231,452;  118,775; 1866,752; 6,44616
1048,77;  224,053;   90,175; 1784,953; 7,89941
1049,32;  221,053;  104,175; 1785,953; 6,94964
1049,86;  218,452;   92,675; 1760,552; 7,54117
1050,41;  211,352;   82,475; 1735,552; 7,79622
1050,96;  222,452;  100,875; 1698,652; 7,60916
1051,50;  212,152;  101,675; 1663,252; 7,07474
1052,05;  220,053;   94,675; 1664,052; 7,98900
1052,59;  199,652;   82,975; 1624,152; 7,57067
1053,14;  193,952;   84,475; 1582,652; 7,30738
1053,69;  199,952;   98,475; 1571,453; 6,88928
1054,23;  227,152;  104,575; 1569,052; 8,37005
1054,78;  206,053;  100,775; 1550,152; 7,26364
1055,32;  227,253;  123,075; 1550,453; 7,29853
1055,87;  168,753;   68,875; 1491,752; 7,01940
1056,41;  172,152;   78,775; 1469,552; 6,71405
1056,96;  192,452;   96,775; 1451,052; 7,06484
1057,50;  220,753;  113,375; 1470,853; 7,91008
1058,05;  172,553;   82,075; 1401,953; 6,85499
1058,59;  183,952;   95,875; 1396,552; 6,77166
1059,14;  208,253;  103,575; 1370,453; 8,26264
1059,68;  163,253;   75,975; 1329,353; 6,96339
1060,23;  204,452;  126,875; 1383,752; 6,17224
1060,77;  196,352;   97,375; 1317,052; 8,11505
1061,32;  195,152;  108,575; 1320,652; 7,14290
1061,86;  188,852;  111,175; 1289,752; 6,59078
1062,41;  193,152;   93,975; 1242,953; 8,63180
1062,95;  196,852;  109,575; 1230,853; 7,78375
1063,50;  191,352;  111,075; 1230,052; 7,17418
1064,04;  176,952;   90,475; 1197,453; 7,81204
1064,59;  189,053;  114,775; 1210,052; 6,78162
1065,13;  184,852;  103,475; 1170,552; 7,62620
1065,68;  175,753;  107,275; 1161,353; 6,49644
1066,22;  198,753;  115,875; 1166,453; 7,88876
1066,76;  195,152;  130,175; 1145,252; 6,40124
1067,31;  168,553;   99,875; 1110,552; 6,79519
1067,85;  170,652;  100,975; 1090,252; 7,04327
1068,40;  182,152;  110,275; 1095,353; 7,29663
1068,94;  175,253;   99,175; 1079,353; 7,76160
1069,49;  167,253;   98,175; 1041,652; 7,32158
1070,03;  167,452;  111,175; 1034,353; 6,09606
1070,57;  166,553;   88,775; 1012,852; 8,41677
1071,12;  143,152;   75,875;  987,153; 7,38277
1071,66;  203,753;  131,775; 1039,953; 7,92549
1072,21;  189,952;  112,475; 1011,352; 8,61936
1072,75;  169,753;  104,475;  978,552; 7,46816
1073,29;  152,553;   77,075;  942,453; 8,72192
1073,84;  164,852;   95,975;  941,153; 8,14947
1074,38;  169,253;   93,875;  928,253; 9,03398
1074,92;  177,352;  107,275;  940,153; 8,41390
1075,47;  171,152;  112,775;  938,852; 7,06683
1076,01;  183,053;  121,775;  926,253; 7,61706
1076,56;  165,253;   97,275;  891,953; 8,55410
1077,10;  151,152;   86,075;  865,253; 8,35208
1077,64;  158,053;   97,875;  884,453; 7,65055
1078,19;  186,952;  123,175;  887,753; 8,34153
1078,73;  157,152;   98,775;  853,852; 7,73133
1079,27;  176,852;  121,075;  875,552; 7,39286
1079,81;  180,753;  121,375;  860,953; 8,02857
1080,36;  168,053;  105,975;  836,052; 8,50287
1080,90;  147,753;   96,375;  819,753; 7,10245
1081,44;  145,852;   82,475;  789,552; 8,96330
1081,99;  126,552;   70,375;  771,753; 8,00960
1082,53;  162,753;  113,075;  798,653; 7,24608
1083,07;  163,553;  104,175;  791,453; 8,63952
1083,62;  170,152;  101,275;  772,552;10,26066
1084,16;  158,652;   98,975;  782,453; 8,73145
1084,70;  171,253;  107,475;  767,153; 9,66798
1085,24;  169,053;  108,775;  750,653; 9,39081
1085,79;  153,753;  109,175;  747,552; 6,98294
1086,33;  147,553;   99,075;  711,453; 7,91628
1086,87;  157,652;  102,075;  714,852; 9,06977
1087,41;  154,553;   84,475;  686,852;11,63349
1087,96;  181,053;  124,575;  732,552; 9,28941
1088,50;  149,553;  112,075;  696,953; 6,40775
1089,04;  172,253;  121,775;  715,153; 8,50681
1089,58;  135,852;   82,375;  655,953; 9,32350
1090,13;  145,753;  102,975;  653,153; 7,77522
1090,67;  160,652;  101,775;  678,753;10,20447
1091,21;  130,652;   92,075;  651,852; 6,89158
1091,75;  142,053;  106,875;  647,153; 6,51101
1092,29;  157,753;  105,875;  642,552; 9,66642
1092,84;  140,553;  105,975;  628,352; 6,61926
1093,38;  174,952;  128,175;  662,753; 8,75037
1093,92;  153,952;  113,475;  640,052; 7,68690
1094,46;  168,452;  128,175;  638,852; 7,88707
1095,00;  153,553;   93,975;  602,052;11,72607
1095,54;  134,652;   89,975;  591,352; 8,91095
1096,09;  157,952;  114,975;  597,352; 8,90952
1096,63;  164,553;  117,175;  598,453; 9,84411
1097,17;  139,952;  102,575;  573,052; 7,94459
1097,71;  169,152;  122,875;  582,453;10,06957
1098,25;  134,952;  103,275;  553,653; 7,03354
1098,79;  161,253;  104,775;  568,753;12,17247
1099,33;  153,253;  111,975;  572,052; 8,97186
1099,88;  156,753;  110,775;  562,253;10,18379
1100,42;  132,753;   83,275;  521,253;11,29681

