0136 ELITRO MAX
Integration time [ms]:   8,000
Averaging Nr. [scans]: 10
Smoothing Nr. [pixels]: 0
Data measured with spectrometer [name]: 7314920SP
Wave   ;Sample   ;Dark     ;Reference;Reflectance
[nm]   ;[counts] ;[counts] ;[counts] ;[%]

 199,42;  114,261;   63,873;  150,055;58,46708
 200,02;  112,066;   92,669;  145,732;36,55545
 200,62;   73,464;   67,563;   88,793;27,79342
 201,22;   89,098;   86,969;  138,011; 4,17133
 201,82;   98,457;   66,174;  141,790;42,69260
 202,42;  125,822;  101,668;  154,973;45,31312
 203,03;   66,202;   60,168;   91,775;19,09246
 203,63;   88,926;   69,967;  109,037;48,52653
 204,23;   85,158;   70,671;  129,903;24,45738
 204,83;   90,539;   74,567;  123,718;32,49486
 205,43;   91,761;   56,673;  123,555;52,46265
 206,03;   67,295;   50,167;   90,459;42,50931
 206,63;   74,891;   68,865;  100,007;19,35156
 207,24;  110,908;   74,675;  162,566;41,22510
 207,84;   60,251;   39,967;   83,699;46,38188
 208,44;   70,098;   50,669;   95,011;43,81690
 209,04;   58,935;   47,365;   85,066;30,68928
 209,64;  100,497;   69,972;  127,998;52,60600
 210,24;   68,839;   45,367;   97,218;45,26725
 210,84;   72,742;   51,469;  101,970;42,12384
 211,44;  105,218;   86,470;  122,908;51,45197
 212,05;   82,335;   60,865;   99,266;55,91009
 212,65;   91,802;   66,368;  112,975;54,57210
 213,25;  117,322;   93,768;  142,073;48,76140
 213,85;  103,211;   84,465;  114,904;61,58441
 214,45;   65,239;   53,367;  100,418;25,23129
 215,05;   54,842;   39,369;  100,070;25,49044
 215,65;   79,386;   55,169;  105,630;47,99173
 216,25;   64,139;   40,267;   82,518;56,49925
 216,85;   52,654;   34,069;   89,651;33,43745
 217,45;   65,602;   49,068;   97,375;34,22795
 218,05;   87,250;   58,270;  112,886;53,06050
 218,66;   47,110;   28,769;   75,692;39,08850
 219,26;   37,826;   26,567;   79,337;21,33657
 219,86;   62,570;   36,771;   81,584;57,56987
 220,46;   83,006;   54,270;  104,127;57,63659
 221,06;   71,358;   51,871;  115,903;30,43260
 221,66;   74,089;   43,471;  103,481;51,02162
 222,26;   59,497;   39,772;  102,398;31,49659
 222,86;   87,834;   67,268;  118,954;39,79092
 223,46;   71,639;   51,767;   88,918;53,48849
 224,06;   87,714;   64,971;  120,343;41,07222
 224,66;   92,338;   57,570;  105,805;72,07901
 225,26;   84,874;   48,169;  113,748;55,96978
 225,86;   70,829;   42,173;  112,376;40,81900
 226,46;   82,178;   49,968;  102,913;60,83685
 227,06;   49,438;   27,670;   87,705;36,25780
 227,66;   59,167;   37,665;   74,845;57,83230
 228,27;   60,306;   29,270;   96,227;46,35197
 228,87;   92,594;   89,170;  143,046; 6,35461
 229,47;   61,141;   29,172;   92,357;50,59555
 230,07;   30,774;   11,169;   59,648;40,43901
 230,67;   70,954;   38,169;   84,651;70,53292
 231,27;   45,506;   27,670;   76,327;36,65639
 231,87;   73,954;   43,169;  100,751;53,46315
 232,47;   93,120;   43,775;  132,047;55,90149
 233,07;   55,747;   42,965;   75,547;39,23130
 233,67;   78,002;   53,768;   94,275;59,82767
 234,27;   41,095;    0,567;   53,259;76,91469
 234,87;   66,570;   34,771;  106,084;44,59049
 235,47;   36,774;   16,169;   74,148;35,53774
 236,07;   42,487;   30,266;   72,042;29,25332
 236,67;   57,063;   49,966;   85,180;20,15207
 237,27;   71,049;   28,873;  109,074;52,58773
 237,87;   61,138;   25,370;   99,805;48,05179
 238,47;   45,766;   14,269;   68,032;58,58547
 239,07;   56,253;   33,272;   95,738;36,78964
 239,67;   88,392;   43,477;  131,421;51,07268
 240,27;   76,029;   46,773;  119,176;40,40739
 240,87;   80,993;   50,773;  119,533;43,94925
 241,47;   47,339;   39,164;   76,131;22,11641
 242,07;   56,190;   39,968;   92,894;30,65083
 242,67;   25,505;  -11,027;   77,914;41,07411
 243,27;   30,639;    7,767;   46,418;59,17438
 243,87;   69,314;   48,671;  108,343;34,59335
 244,47;   57,958;   22,371;   99,703;46,01796
 245,07;   24,342;    2,669;   55,770;40,81460
 245,67;   46,402;   31,068;   85,575;28,13312
 246,27;   50,091;   34,965;   69,007;44,43456
 246,87;   46,834;   26,668;   63,154;55,27167
 247,46;    7,264;   19,663;   23,793;-300,23719
 248,06;   51,050;   20,470;   69,786;62,00723
 248,66;   65,997;   31,072;  105,898;46,67512
 249,26;   46,587;   32,366;   70,742;37,05658
 249,86;   49,629;   42,873;  102,176;11,39291
 250,46;   51,764;   16,775;   93,507;45,59961
 251,06;   34,902;   22,168;   65,375;29,47327
 251,66;   38,426;   20,771;   64,724;40,16731
 252,26;   51,975;   38,866;   70,261;41,75378
 252,86;   47,642;   35,969;   89,070;21,98254
 253,46;   10,139;   -8,033;   22,118;60,26827
 254,06;   47,943;   31,766;   79,483;33,90226
 254,66;   54,161;   34,973;  100,155;29,43757
 255,26;   83,473;   39,073;  118,836;55,66524
 255,86;   49,939;   37,464;   55,631;68,67186
 256,46;   43,918;   19,870;   70,208;47,77323
 257,05;   46,982;   23,570;   59,565;65,04117
 257,65;   63,870;   38,071;   97,684;43,27717
 258,25;   71,241;   37,372;  101,457;52,84981
 258,85;   38,242;   15,669;   51,770;62,52727
 259,45;   15,054;    6,869;   42,951;22,68507
 260,05;   47,439;   46,667;   85,818; 1,97089
 260,65;   55,375;   45,066;   83,561;26,77911
 261,25;   50,314;   29,371;   85,943;37,01926
 261,85;   25,645;   -0,129;   47,622;53,97674
 262,45;   66,942;   46,169;  109,270;32,92018
 263,04;   82,117;   53,073;  116,295;45,93958
 263,64;   54,370;   33,767;   77,097;47,55010
 264,24;   66,502;   37,671;   89,062;56,09981
 264,84;   94,269;   58,974;  138,671;44,28604
 265,44;   45,458;   26,368;   67,716;46,17100
 266,04;   55,655;   48,865;   71,464;30,04421
 266,64;   59,963;   39,866;   86,780;42,83666
 267,24;   47,163;   40,166;   68,980;24,28109
 267,84;   48,322;   24,668;   76,573;45,57203
 268,43;   70,546;   48,368;   95,935;46,62598
 269,03;   65,110;   46,969;   87,892;44,33081
 269,63;   76,431;   58,566;   92,402;52,79864
 270,23;   14,167;   10,765;   39,045;12,02926
 270,83;   66,775;   55,266;   83,161;41,25689
 271,43;   43,814;   23,967;   58,856;56,88654
 272,03;   83,158;   64,168;   99,116;54,34009
 272,62;   46,986;   23,269;   68,730;52,17029
 273,22;   34,294;   11,970;   61,046;45,48799
 273,82;   14,384;   17,460;   26,403;-34,39793
 274,42;   28,183;   25,164;   46,890;13,89845
 275,02;   44,803;   34,864;   60,388;38,94000
 275,62;   60,641;   31,972;  100,457;41,86141
 276,21;   47,862;   22,770;   69,267;53,96413
 276,81;   58,151;   46,767;   71,099;46,78500
 277,41;   56,633;   22,971;   96,341;45,88006
 278,01;   17,603;   21,364;   42,788;-17,55628
 278,61;   59,098;   38,869;   83,811;45,01200
 279,20;   80,929;   65,473;  119,076;28,83464
 279,80;   -4,120;    6,762;   11,539;-227,79290
 280,40;   45,187;   36,866;   79,742;19,40691
 281,00;   -0,202;   -4,331;   33,311;10,96955
 281,60;   49,425;   20,774;   74,812;53,02008
 282,20;   42,318;   36,670;   70,108;16,89157
 282,79;   41,646;   29,568;   70,135;29,77429
 283,39;   19,431;   17,466;   44,702; 7,21411
 283,99;   21,147;   23,165;   34,347;-18,03962
 284,59;   29,930;   16,869;   45,289;45,95623
 285,19;   21,995;   27,067;   57,759;-16,52617
 285,78;   45,118;   23,270;   63,808;53,89527
 286,38;   43,491;   39,665;   59,207;19,58070
 286,98;   47,746;   35,168;   73,535;32,78479
 287,58;   27,158;    4,771;   61,403;39,52996
 288,17;   37,373;    8,973;   80,336;39,79689
 288,77;   65,284;   19,976;   92,504;62,47003
 289,37;   28,642;   11,269;   57,670;37,44092
 289,97;   47,647;   48,965;   66,647;-7,44983
 290,57;   59,921;   46,672;   93,260;28,43984
 291,16;   89,758;   63,868;  102,616;66,81834
 291,76;   17,894;    5,570;   47,346;29,49936
 292,36;   42,427;   34,367;   58,137;33,90541
 292,96;   34,085;   -3,127;   60,117;58,83946
 293,55;   38,851;   24,267;   65,399;35,45606
 294,15;   33,662;   26,870;   62,567;19,02671
 294,75;   43,991;   42,065;   66,207; 7,97980
 295,35;   27,358;   21,068;   52,016;20,32696
 295,94;   39,907;   42,967;   66,740;-12,87104
 296,54;   25,678;   30,768;   70,613;-12,77468
 297,14;   55,589;   29,971;   76,881;54,61111
 297,73;   28,223;   12,165;   40,085;57,51378
 298,33;   40,943;   28,066;   57,583;43,62616
 298,93;   63,934;   41,968;   82,554;54,12313
 299,53;   48,009;   24,872;   69,079;52,33864
 300,12;   27,489;  -12,229;   59,481;55,38707
 300,72;   65,170;   41,567;   91,197;47,55886
 301,32;   63,470;   25,771;   99,584;51,07339
 301,92;   28,927;    3,664;   33,050;85,97111
 302,51;   30,583;   11,567;   49,978;49,50577
 303,11;   25,995;   14,667;   48,759;33,22727
 303,71;   47,166;   21,369;   82,132;42,45576
 304,30;   32,799;    5,466;   38,423;82,93460
 304,90;   30,843;   19,666;   44,283;45,40414
 305,50;   38,067;   18,565;   64,345;42,59937
 306,09;   36,987;   15,466;   49,042;64,09557
 306,69;   48,501;   34,171;   90,262;25,54837
 307,29;   28,040;   18,760;   33,144;64,51912
 307,88;   63,330;   43,269;   72,489;68,65445
 308,48;   17,406;    0,070;   49,727;34,91129
 309,08;    0,576;   -4,437;   11,774;30,92220
 309,68;   29,523;   22,365;   39,585;41,56728
 310,27;   31,186;   20,169;   49,830;37,14316
 310,87;   35,278;   23,468;   54,813;37,67753
 311,47;   64,739;   54,967;   92,918;25,74786
 312,06;   48,379;   47,865;   68,426; 2,50065
 312,66;   59,558;   51,168;  100,016;17,17735
 313,26;   65,526;   48,571;   96,224;35,57967
 313,85;   57,495;   38,267;   65,959;69,43479
 314,45;   59,598;   42,969;   86,611;38,10381
 315,04;   70,079;   52,165;   81,826;60,39656
 315,64;   36,470;   21,267;   47,897;57,09171
 316,24;   50,206;   40,770;   85,627;21,03554
 316,83;   60,187;   40,366;   76,742;54,48859
 317,43;   47,314;   35,167;   68,156;36,82161
 318,03;   51,651;   39,063;   70,012;40,67445
 318,62;   81,392;   73,061;   94,820;38,28754
 319,22;   39,222;    7,668;   66,973;53,20669
 319,82;   60,158;   40,768;   93,516;36,76117
 320,41;   77,966;   59,069;   98,732;47,64481
 321,01;  107,267;   80,465;  115,945;75,54148
 321,60;   94,083;   81,164;  102,790;59,73954
 322,20;   94,761;   67,673;  132,855;41,55754
 322,80;   84,970;   54,567;   91,797;81,66450
 323,39;   70,359;   65,764;   94,828;15,80988
 323,99;   74,475;   61,766;  102,661;31,07621
 324,59;   77,051;   73,063;   97,512;16,31248
 325,18;   72,883;   40,967;   92,178;62,32199
 325,78;   88,723;   76,365;  108,885;38,00091
 326,37;   88,102;   74,868;  108,075;39,85446
 326,97;   77,670;   63,267;  111,497;29,86386
 327,57;   45,964;   42,263;   76,493;10,81077
 328,16;   67,539;   60,864;   93,631;20,37348
 328,76;   89,507;   50,467;  110,140;65,42327
 329,35;   84,770;   56,871;  137,484;34,60836
 329,95;   58,518;   27,470;   91,308;48,63574
 330,54;   69,839;   52,167;   94,018;42,22487
 331,14;   54,951;   26,967;   82,599;50,30146
 331,74;   77,367;   54,165;   96,145;55,26928
 332,33;   63,206;   35,370;  108,127;38,25872
 332,93;   56,127;   43,764;   79,250;34,84048
 333,52;   61,131;   42,466;   93,102;36,86095
 334,12;   89,310;   72,069;  140,392;25,23525
 334,71;   59,887;   50,666;   87,942;24,73679
 335,31;   87,095;   63,267;  119,859;42,10463
 335,90;   33,500;   32,362;   53,836; 5,29729
 336,50;   46,991;   30,665;   77,207;35,07893
 337,10;   77,186;   38,769;  121,530;46,41932
 337,69;   63,691;   51,765;   93,707;28,43557
 338,29;   57,927;   30,467;  101,037;38,91075
 338,88;   44,834;   22,468;   99,854;28,90223
 339,48;   81,856;   57,862;  111,677;44,58602
 340,07;   74,519;   48,566;  107,321;44,17108
 340,67;   63,370;   31,171;  124,784;34,39569
 341,26;   72,287;   48,466;   98,942;47,19232
 341,86;   90,974;   61,469;  138,348;38,37775
 342,45;   72,730;   45,669;  142,689;27,89187
 343,05;   73,830;   27,269;  115,689;52,65865
 343,64;   76,463;   47,366;  122,480;38,73630
 344,24;   44,791;   28,765;   92,107;25,30146
 344,83;   88,747;   71,365;  121,747;34,50117
 345,43;   55,707;   29,667;  114,240;30,79008
 346,02;   57,954;   41,469;  124,351;19,89000
 346,62;   88,726;   40,971;  140,424;48,01732
 347,21;   74,123;   42,165;  131,985;35,57994
 347,81;   68,921;   26,172;  140,560;37,37241
 348,40;   52,839;   29,064;  100,731;33,17529
 349,00;   62,551;   49,163;  137,712;15,11958
 349,59;   94,794;   65,870;  177,846;25,83022
 350,19;   73,126;   32,571;  139,424;37,95378
 350,78;   60,795;   55,467;  140,759; 6,24656
 351,38;   46,354;   15,869;  140,951;24,37219
 351,97;   59,507;   26,767;  136,040;29,96174
 352,57;   62,606;   42,570;  155,827;17,69066
 353,16;   50,059;   30,564;  134,328;18,78781
 353,76;   76,394;   38,770;  169,846;28,70369
 354,35;   65,074;   27,669;  160,148;28,23423
 354,95;   73,762;   43,970;  182,067;21,57320
 355,54;   63,922;   38,368;  163,973;20,34470
 356,14;   71,674;   40,069;  164,749;25,34864
 356,73;   57,956;   29,162;  145,176;24,81907
 357,32;   53,366;   13,769;  164,432;26,28215
 357,92;   71,565;   17,772;  181,419;32,87153
 358,51;   93,309;   43,372;  214,179;29,23610
 359,11;   80,621;   36,772;  212,360;24,97298
 359,70;   57,982;   28,470;  189,965;18,27385
 360,30;   72,780;   54,562;  188,039;13,64907
 360,89;   60,034;   31,168;  188,054;18,39949
 361,48;   92,962;   55,570;  216,467;23,23967
 362,08;   57,214;   19,867;  187,156;22,32486
 362,67;   74,964;   39,763;  192,693;23,01742
 363,27;   91,483;   60,767;  247,678;16,43324
 363,86;   74,367;   35,765;  215,745;21,44789
 364,46;   98,939;   44,664;  257,231;25,53348
 365,05;  115,257;   64,659;  254,989;26,58423
 365,64;  114,464;   50,960;  269,706;29,03126
 366,24;  106,893;   38,558;  309,432;25,22753
 366,83;  144,670;   43,255;  335,383;34,71577
 367,43;  154,540;   51,545;  352,843;34,18395
 368,02;  167,968;   34,646;  399,757;36,51542
 368,61;  207,706;   62,239;  475,425;35,20615
 369,21;  185,631;   32,419;  445,299;37,10800
 369,80;  215,954;   43,007;  526,947;35,73730
 370,39;  283,902;   62,006;  604,971;40,86753
 370,99;  264,419;   42,089;  615,416;38,77889
 371,58;  274,895;   22,974;  630,953;41,43576
 372,18;  310,444;   37,166;  701,603;41,12937
 372,77;  312,137;   42,449;  679,385;42,34136
 373,36;  329,813;   42,747;  690,836;44,29434
 373,96;  299,664;   35,135;  639,498;43,76988
 374,55;  292,878;   29,844;  621,406;44,46436
 375,14;  259,893;   42,849;  573,826;40,87629
 375,74;  268,343;   69,157;  543,276;42,01175
 376,33;  211,317;   45,964;  464,589;39,49904
 376,92;  176,257;   33,278;  447,997;34,47623
 377,52;  263,155;   86,103;  548,460;38,29328
 378,11;  211,591;   46,703;  457,203;40,16768
 378,71;  235,049;   73,011;  514,270;36,72168
 379,30;  254,439;   59,517;  553,928;39,42516
 379,89;  255,964;   59,813;  556,103;39,52353
 380,49;  238,703;   31,018;  568,185;38,66307
 381,08;  286,090;   70,306;  570,990;43,09787
 381,67;  266,050;   55,008;  555,483;42,16832
 382,26;  235,190;   41,706;  539,390;38,87691
 382,86;  249,267;   54,003;  516,041;42,26143
 383,45;  254,245;   50,412;  562,105;39,83485
 384,04;  244,357;   38,712;  553,886;39,91745
 384,64;  250,628;   49,014;  566,760;38,94078
 385,23;  271,678;   64,406;  560,509;41,78001
 385,82;  281,756;   59,615;  592,774;41,66498
 386,42;  323,926;   61,024;  659,022;43,96365
 387,01;  294,140;   55,414;  580,541;45,46072
 387,60;  298,214;   69,009;  590,140;43,98219
 388,20;  283,145;   37,712;  590,805;44,37447
 388,79;  340,235;   72,418;  665,563;45,15198
 389,38;  275,990;   32,106;  564,890;45,77543
 389,97;  320,268;   45,415;  640,955;46,15187
 390,57;  349,960;   71,114;  654,038;47,83570
 391,16;  343,060;   62,514;  655,838;47,28374
 391,75;  337,608;   52,713;  638,562;48,62943
 392,34;  359,870;   60,821;  696,694;47,02978
 392,94;  352,823;   44,718;  689,683;47,77081
 393,53;  377,232;   41,016;  666,612;53,74328
 394,12;  403,718;   53,023;  719,105;52,65038
 394,72;  393,452;   54,213;  706,122;52,03781
 395,31;  389,356;   42,115;  694,874;53,19585
 395,90;  436,470;   42,924;  732,881;57,03913
 396,49;  477,657;   58,028;  779,187;58,18808
 397,09;  443,983;   47,417;  749,188;56,50939
 397,68;  497,145;   44,025;  800,719;59,88160
 398,27;  519,061;   54,626;  809,652;61,51242
 398,86;  513,421;   43,125;  807,657;61,51426
 399,45;  540,280;   56,630;  844,037;61,42312
 400,05;  527,119;   23,820;  799,518;64,88335
 400,64;  561,911;   56,419;  831,001;65,25994
 401,23;  561,295;   53,920;  859,956;62,94689
 401,82;  588,295;   67,220;  868,256;65,05008
 402,42;  625,014;   62,921;  873,953;69,30592
 403,01;  662,945;   81,525;  912,919;69,93320
 403,60;  670,632;   68,532;  940,513;69,04967
 404,19;  673,758;   76,024;  931,900;69,83877
 404,78;  692,266;   57,522;  909,929;74,46489
 405,38;  726,051;   68,332;  984,210;71,81298
 405,97;  724,673;   63,226;  953,933;74,26089
 406,56;  760,188;   71,528; 1004,366;73,82425
 407,15;  771,140;   68,829;  989,442;76,28736
 407,74;  803,048;   80,730; 1026,758;76,35269
 408,34;  784,439;   50,933; 1018,629;75,79927
 408,93;  819,900;   59,531; 1016,234;79,47802
 409,52;  838,275;   51,435; 1041,359;79,48483
 410,11;  901,288;   84,931; 1090,453;81,18734
 410,70;  877,193;   54,727; 1027,230;84,57203
 411,29;  897,001;   58,628; 1030,847;86,23291
 411,89;  937,907;   60,535; 1093,938;84,90122
 412,48;  907,645;   48,228; 1051,606;85,65229
 413,07;  942,747;   65,033; 1101,446;84,68771
 413,66;  988,219;   78,135; 1102,119;88,87676
 414,25; 1000,278;   63,337; 1142,311;86,83629
 414,84;  989,300;   69,431; 1102,434;89,04800
 415,44; 1038,260;   91,530; 1155,939;88,94418
 416,03; 1027,102;   76,637; 1161,173;87,63795
 416,62; 1059,830;   76,138; 1168,687;90,03639
 417,21; 1092,467;   75,334; 1158,843;93,87398
 417,80; 1116,522;   65,037; 1162,871;95,77817
 418,39; 1109,958;   78,440; 1179,201;93,70949
 418,98; 1088,591;   55,634; 1143,405;94,96090
 419,58; 1112,015;   64,033; 1142,067;97,21236
 420,17; 1122,387;   52,735; 1164,540;96,20855
 420,76; 1149,402;   72,537; 1192,873;96,11984
 421,35; 1143,151;   60,236; 1155,197;98,89981
 421,94; 1175,458;   88,340; 1223,501;95,76769
 422,53; 1184,845;   61,540; 1195,320;99,07614
 423,12; 1181,562;   64,039; 1190,766;99,18313
 423,71; 1170,607;   60,835; 1162,138;100,76898
 424,30; 1197,470;   85,236; 1210,695;98,82498
 424,90; 1174,398;   39,438; 1163,809;100,94180
 425,49; 1238,014;   70,140; 1216,242;101,89965
 426,08; 1222,813;   80,240; 1209,641;101,16628
 426,67; 1205,795;   57,436; 1168,257;103,37928
 427,26; 1226,837;   60,343; 1230,391;99,69625
 427,85; 1236,042;   63,238; 1209,968;102,27376
 428,44; 1253,217;   68,442; 1218,093;103,05515
 429,03; 1268,241;   85,341; 1233,155;103,05674
 429,62; 1273,397;   78,941; 1240,296;102,85022
 430,21; 1273,545;   81,443; 1277,807;99,64370
 430,80; 1284,716;   70,445; 1235,381;104,23505
 431,39; 1287,432;   53,344; 1246,926;103,39367
 431,99; 1311,007;   78,535; 1206,838;109,23235
 432,58; 1298,262;   82,639; 1251,166;104,03039
 433,17; 1304,519;   69,735; 1238,319;105,66496
 433,76; 1345,332;   71,347; 1288,314;104,68526
 434,35; 1360,328;   88,245; 1292,462;105,63574
 434,94; 1354,103;   70,849; 1318,887;102,82172
 435,53; 1338,869;   78,643; 1278,669;105,01650
 436,12; 1373,989;   70,044; 1294,267;106,51203
 436,71; 1382,933;   87,740; 1303,239;106,55651
 437,30; 1384,409;   76,941; 1299,177;106,97346
 437,89; 1409,484;   76,245; 1320,802;107,12560
 438,48; 1402,993;   65,942; 1305,731;107,84500
 439,07; 1414,074;   95,238; 1347,147;105,34602
 439,66; 1459,052;   83,648; 1375,711;106,45019
 440,25; 1432,889;   85,844; 1390,567;103,24374
 440,84; 1483,923;   79,850; 1387,984;107,33400
 441,43; 1493,350;   78,054; 1440,985;103,84203
 442,02; 1474,499;   79,650; 1411,022;104,76775
 442,61; 1516,333;   93,344; 1397,226;109,13473
 443,20; 1508,679;   94,249; 1446,625;104,58853
 443,79; 1510,268;   74,546; 1412,957;107,27066
 444,38; 1537,883;   84,248; 1461,789;105,52390
 444,97; 1539,548;   84,146; 1466,359;105,29505
 445,56; 1589,680;  101,846; 1477,038;108,19103
 446,15; 1603,707;   81,651; 1522,539;105,63318
 446,74; 1568,976;   58,644; 1462,286;107,60099
 447,33; 1617,468;   82,646; 1538,357;105,43455
 447,92; 1633,219;   78,151; 1570,720;104,18735
 448,51; 1655,192;   89,746; 1586,019;104,62304
 449,10; 1687,460;   92,045; 1608,840;105,18329
 449,69; 1692,787;   73,950; 1627,741;104,18625
 450,28; 1708,108;   66,948; 1608,251;106,47868
 450,87; 1736,720;   78,647; 1656,333;105,09526
 451,46; 1795,971;   96,048; 1702,208;105,83770
 452,05; 1813,623;   70,950; 1715,384;105,97401
 452,64; 1828,343;   70,850; 1725,182;106,23581
 453,23; 1887,326;  113,752; 1794,936;105,49555
 453,82; 1907,475;   83,451; 1800,660;106,22023
 454,40; 1897,043;   65,450; 1786,682;106,41174
 454,99; 2002,410;  101,253; 1871,891;107,37133
 455,58; 1979,944;   69,747; 1832,095;108,38933
 456,17; 2037,846;   63,852; 1873,634;109,07362
 456,76; 2067,719;   67,751; 1918,820;108,04394
 457,35; 2135,783;   78,348; 1930,490;111,08414
 457,94; 2175,786;   66,954; 1978,929;110,29602
 458,53; 2210,731;   67,350; 2010,101;110,32711
 459,12; 2336,885;   82,657; 2111,116;111,13008
 459,71; 2304,396;   58,148; 2060,071;112,20452
 460,30; 2376,451;   84,448; 2087,511;114,42493
 460,89; 2420,319;   57,551; 2129,920;114,01290
 461,48; 2472,886;   75,954; 2173,829;114,25525
 462,06; 2533,111;   68,050; 2187,303;116,31741
 462,65; 2508,959;   48,249; 2176,527;115,61975
 463,24; 2632,490;   87,456; 2288,680;115,61899
 463,83; 2617,811;   54,450; 2229,803;117,83653
 464,42; 2714,103;   88,349; 2333,687;116,94249
 465,01; 2770,243;   73,050; 2336,482;119,16386
 465,60; 2786,199;   64,050; 2384,322;117,32024
 466,19; 2872,186;   73,354; 2462,829;117,13169
 466,77; 2899,307;   81,551; 2462,939;118,32410
 467,36; 2924,641;   69,457; 2459,256;119,47380
 467,95; 2963,651;   79,551; 2466,098;120,84820
 468,54; 3005,962;   71,954; 2513,866;120,15205
 469,13; 3023,482;   69,452; 2535,977;119,76487
 469,72; 3070,026;   67,555; 2582,723;119,37454
 470,31; 3148,614;   87,855; 2629,242;120,43652
 470,90; 3156,467;   76,750; 2652,044;119,58701
 471,48; 3156,529;   32,057; 2671,875;118,35936
 472,07; 3253,688;  125,747; 2686,454;122,15145
 472,66; 3264,478;   67,853; 2748,412;119,25218
 473,25; 3228,607;   68,351; 2723,339;119,03089
 473,84; 3284,894;   55,955; 2766,545;119,12310
 474,43; 3313,801;   55,459; 2843,049;116,88741
 475,01; 3333,106;   69,254; 2885,926;115,87617
 475,60; 3326,582;   49,755; 2882,364;115,68227
 476,19; 3400,993;   74,158; 2956,932;115,40393
 476,78; 3349,841;   71,057; 2964,456;113,31945
 477,37; 3367,582;   59,355; 2945,364;114,62981
 477,95; 3389,701;   75,656; 3018,661;112,60752
 478,54; 3357,210;   63,253; 3023,691;111,26589
 479,13; 3360,810;   56,253; 3070,291;109,63888
 479,72; 3348,374;   81,154; 3090,147;108,58182
 480,31; 3363,489;   63,459; 3167,468;106,31508
 480,89; 3348,606;   60,254; 3171,026;105,70854
 481,48; 3344,996;   46,260; 3214,084;104,13256
 482,07; 3308,662;   61,654; 3233,866;102,35783
 482,66; 3308,454;   52,853; 3253,650;101,71220
 483,25; 3345,696;   78,960; 3319,884;100,79645
 483,83; 3296,350;   59,954; 3325,385;99,11082
 484,42; 3304,086;   54,354; 3355,129;98,45361
 485,01; 3313,805;   65,958; 3400,413;97,40262
 485,60; 3305,383;   73,764; 3490,590;94,57956
 486,18; 3294,201;   66,956; 3490,761;94,25902
 486,77; 3299,727;   67,252; 3519,736;93,62749
 487,36; 3324,727;   58,464; 3561,750;93,23428
 487,95; 3402,616;   59,161; 3640,781;93,35035
 488,53; 3373,372;   54,461; 3642,522;92,49873
 489,12; 3393,508;   50,563; 3722,252;91,04650
 489,71; 3376,068;   38,062; 3680,357;91,64567
 490,30; 3451,884;   61,460; 3742,503;92,10498
 490,88; 3514,360;   87,561; 3859,141;90,85845
 491,47; 3504,052;   60,663; 3867,512;90,45246
 492,06; 3535,432;   62,563; 3920,615;90,01613
 492,65; 3541,348;   59,161; 3947,060;89,56475
 493,23; 3600,252;   54,860; 3982,825;90,26029
 493,82; 3591,066;   65,853; 4018,031;89,19672
 494,41; 3658,236;   51,361; 4066,179;89,83907
 494,99; 3700,794;   73,655; 4126,945;89,48629
 495,58; 3742,484;   86,060; 4224,403;88,35478
 496,17; 3729,490;   56,356; 4198,681;88,67324
 496,76; 3764,901;   65,356; 4276,761;87,84587
 497,34; 3754,373;   54,557; 4305,235;87,04061
 497,93; 3807,729;   66,057; 4350,675;87,32801
 498,52; 3823,376;   60,059; 4454,387;85,64034
 499,10; 3863,712;   75,862; 4533,217;84,97977
 499,69; 3835,964;   55,360; 4537,006;84,35750
 500,28; 3827,989;   37,959; 4592,068;83,22220
 500,86; 3871,580;   62,862; 4698,539;82,16099
 501,45; 3865,180;   53,462; 4730,438;81,49962
 502,04; 3884,168;   53,362; 4813,958;80,46905
 502,62; 3875,889;   70,956; 4856,181;79,51421
 503,21; 3858,677;   57,856; 4939,699;77,85627
 503,80; 3863,456;   69,662; 5015,577;76,70561
 504,38; 3808,052;   58,460; 5081,425;74,64899
 504,97; 3827,256;   49,962; 5122,776;74,46150
 505,56; 3829,457;   70,859; 5194,989;73,35094
 506,14; 3786,771;   64,064; 5263,709;71,59541
 506,73; 3742,291;   23,565; 5292,507;70,57824
 507,32; 3735,867;   62,865; 5376,045;69,13001
 507,90; 3727,896;   70,860; 5443,284;68,07050
 508,49; 3668,935;   58,865; 5500,366;66,34328
 509,08; 3682,839;   67,264; 5571,931;65,68200
 509,66; 3651,840;   69,960; 5677,644;63,87451
 510,25; 3612,404;   63,561; 5737,400;62,54747
 510,83; 3646,291;   45,165; 5855,607;61,97681
 511,42; 3608,878;   61,968; 5895,913;60,79780
 512,01; 3566,359;   59,164; 5980,328;59,23152
 512,59; 3564,656;   46,562; 6041,676;58,68268
 513,18; 3564,336;   59,961; 6114,379;57,88128
 513,77; 3548,097;   42,257; 6171,797;57,19581
 514,35; 3499,388;   37,763; 6190,255;56,26379
 514,94; 3519,512;   58,662; 6323,517;55,24229
 515,52; 3558,287;   48,166; 6358,342;55,62635
 516,11; 3563,947;   80,665; 6474,047;54,48262
 516,69; 3549,532;   41,959; 6446,727;54,76503
 517,28; 3560,049;   83,358; 6541,973;53,83029
 517,87; 3537,161;   45,558; 6604,054;53,23787
 518,45; 3546,837;   74,858; 6626,192;52,99652
 519,04; 3549,269;   54,258; 6707,970;52,52723
 519,62; 3560,032;   55,863; 6774,114;52,15894
 520,21; 3572,831;   24,466; 6828,002;52,15472
 520,79; 3606,502;   52,068; 7000,875;51,15172
 521,38; 3605,928;   52,960; 6995,363;51,17779
 521,97; 3666,334;   43,068; 7141,554;51,04280
 522,55; 3661,213;   67,759; 7195,230;50,41695
 523,14; 3658,057;   26,759; 7180,289;50,76232
 523,72; 3753,672;   77,561; 7383,422;50,31729
 524,31; 3810,091;   71,665; 7406,107;50,97083
 524,89; 3848,558;   48,468; 7526,815;50,81458
 525,48; 3915,863;   21,666; 7603,580;51,36166
 526,06; 3932,859;   56,264; 7633,128;51,16358
 526,65; 4113,138;   72,370; 7803,105;52,26886
 527,23; 4159,544;   46,262; 7840,596;52,77272
 527,82; 4351,482;   37,967; 7905,978;54,82346
 528,41; 4481,019;   67,366; 8041,021;55,35294
 528,99; 4590,835;   66,365; 8108,167;56,26190
 529,58; 4752,200;   42,562; 8168,736;57,95640
 530,16; 4924,036;   49,461; 8315,379;58,97197
 530,75; 5136,015;   73,964; 8417,069;60,67346
 531,33; 5236,163;   45,566; 8440,980;61,82657
 531,92; 5368,041;   48,560; 8567,344;62,44413
 532,50; 5600,562;   87,770; 8706,468;63,96317
 533,09; 5690,311;   65,665; 8807,204;64,34389
 533,67; 5782,825;   63,458; 8952,011;64,34531
 534,26; 5929,708;   65,760; 9007,665;65,57829
 534,84; 6044,948;   68,461; 9127,061;65,97584
 535,42; 6138,015;   61,564; 9205,969;66,44994
 536,01; 6248,532;   79,263; 9330,215;66,68794
 536,59; 6314,131;   43,366; 9482,202;66,43578
 537,18; 6401,564;   77,360; 9568,605;66,63198
 537,76; 6485,377;   56,972; 9764,700;66,21946
 538,35; 6562,490;   59,368; 9892,694;66,13349
 538,93; 6639,259;   72,664; 9941,828;66,53649
 539,52; 6786,638;   57,370;10111,405;66,93101
 540,10; 6847,986;   63,269;10309,029;66,21975
 540,69; 6900,596;   68,763;10444,071;65,84703
 541,27; 6988,212;   58,262;10514,917;66,27310
 541,85; 7101,343;   47,366;10658,783;66,47535
 542,44; 7119,896;   56,460;10765,484;65,95780
 543,02; 7262,986;   80,369;10952,729;66,06309
 543,61; 7257,239;   77,067;11102,218;65,12538
 544,19; 7402,599;   55,066;11264,023;65,55055
 544,78; 7384,375;   62,766;11296,562;65,17485
 545,36; 7553,198;   77,469;11521,011;65,32706
 545,94; 7584,615;   54,564;11563,069;65,43031
 546,53; 7653,689;   52,771;11724,882;65,12034
 547,11; 7764,522;   90,668;11879,873;65,09221
 547,70; 7810,665;   75,860;11954,706;65,11411
 548,28; 7869,235;   47,965;12093,066;64,93321
 548,86; 7992,435;   81,365;12327,767;64,59914
 549,45; 8030,634;   33,768;12364,953;64,85075
 550,03; 8155,526;   76,467;12507,537;64,99086
 550,62; 8216,987;   63,566;12662,842;64,71341
 551,20; 8327,938;   61,467;12808,418;64,85058
 551,78; 8351,027;   61,164;12952,850;64,30395
 552,37; 8442,415;   55,864;13112,469;64,23225
 552,95; 8544,747;   56,765;13214,547;64,50922
 553,54; 8660,892;   49,965;13393,207;64,53399
 554,12; 8690,870;   67,167;13498,797;64,20444
 554,70; 8829,822;   67,568;13736,973;64,10121
 555,29; 8851,423;   61,965;13856,285;63,71795
 555,87; 8965,649;   60,170;13987,786;63,94116
 556,45; 9075,068;   57,162;14154,058;63,97087
 557,04; 9099,650;   43,667;14376,600;63,18305
 557,62; 9232,551;   68,867;14525,499;63,38741
 558,20; 9355,033;   42,671;14799,940;63,10356
 558,79; 9458,202;  100,368;14905,875;63,20509
 559,37; 9494,038;   49,867;15000,418;63,16939
 559,95; 9633,710;   46,669;15169,691;63,39368
 560,54; 9682,178;   71,768;15324,613;63,00732
 561,12; 9732,475;   50,866;15485,562;62,72627
 561,70; 9850,354;   50,369;15679,551;62,70313
 562,29; 9950,790;   61,768;15810,994;62,79053
 562,87;10037,734;   73,168;16023,953;62,47069
 563,45;10087,634;   71,068;16194,754;62,12330
 564,04;10140,244;   54,362;16227,195;62,36311
 564,62;10250,366;   37,769;16438,332;62,26980
 565,20;10315,680;   59,962;16715,838;61,57417
 565,78;10449,379;   70,765;16797,326;62,04870
 566,37;10465,243;   71,066;17011,283;61,35799
 566,95;10549,986;   52,969;17124,330;61,48905
 567,53;10633,568;   67,262;17308,857;61,28381
 568,12;10700,135;   62,265;17367,766;61,47103
 568,70;10858,903;   85,264;17565,889;61,63189
 569,28;10947,854;   61,069;17745,252;61,56228
 569,86;10967,095;   67,767;17910,758;61,08465
 570,45;11078,630;   78,569;18124,689;60,95527
 571,03;11086,124;   53,962;18259,898;60,59651
 571,61;11238,825;   46,571;18424,824;60,89945
 572,19;11270,676;   54,263;18395,773;61,15316
 572,78;11357,902;   70,668;18668,975;60,68958
 573,36;11467,315;   84,264;18797,668;60,82833
 573,94;11492,127;   44,064;18892,750;60,73666
 574,52;11586,688;   54,559;19030,768;60,77151
 575,11;11628,640;   37,264;19159,830;60,61622
 575,69;11734,063;   53,566;19268,680;60,78807
 576,27;11827,316;   47,161;19391,381;60,89755
 576,85;11919,415;   43,264;19549,668;60,88334
 577,44;11999,268;   30,262;19814,158;60,49873
 578,02;11990,177;   32,159;19753,887;60,63372
 578,60;12175,684;   50,464;20073,791;60,55547
 579,18;12236,407;   51,963;20160,752;60,59263
 579,76;12308,560;   40,264;20300,129;60,55468
 580,35;12358,918;   60,170;20436,707;60,35740
 580,93;12538,814;   59,667;20641,557;60,63169
 581,51;12550,062;   24,770;20697,168;60,58945
 582,09;12593,588;   58,663;20755,756;60,56370
 582,67;12763,738;   49,567;20971,318;60,77011
 583,26;12861,778;   28,568;21227,014;60,53845
 583,84;12890,071;   14,164;21413,709;60,16907
 584,42;13020,104;   48,064;21513,287;60,43282
 585,00;13113,862;   81,366;21772,180;60,08302
 585,58;13187,150;   25,167;21912,299;60,13572
 586,17;13261,772;   46,761;21948,521;60,33767
 586,75;13299,631;    6,666;22026,902;60,36704
 587,33;13413,083;   47,767;22191,678;60,35662
 587,91;13422,431;   74,866;22390,201;59,81342
 588,49;13423,868;   63,962;22349,758;59,94808
 589,07;13544,358;   45,468;22403,215;60,37679
 589,65;13402,707;   28,267;22444,439;59,66425
 590,24;13442,424;   42,562;22447,799;59,80683
 590,82;13355,048;   28,261;22484,160;59,34648
 591,40;13459,871;   41,464;22520,209;59,69376
 591,98;13382,232;   45,759;22558,227;59,24039
 592,56;13391,548;   61,161;22699,961;58,88292
 593,14;13415,232;   43,359;22728,928;58,94440
 593,72;13440,491;   29,765;22889,107;58,66628
 594,30;13475,877;   36,759;22797,486;59,04520
 594,89;13379,159;   41,364;22862,428;58,44511
 595,47;13320,072;   38,961;22922,623;58,03753
 596,05;13358,150;   30,267;23003,799;58,01408
 596,63;13398,751;   31,167;23056,199;58,05674
 597,21;13392,487;   36,766;23145,441;57,79527
 597,79;13328,007;   35,467;23166,039;57,46741
 598,37;13361,474;   36,669;23222,748;57,46899
 598,95;13247,631;   50,766;23305,301;56,74964
 599,53;13114,397;   46,757;23207,996;56,42030
 600,11;13237,447;   48,665;23341,947;56,62054
 600,70;13056,151;   57,363;23315,111;55,89014
 601,28;12994,871;   38,564;23424,809;55,40140
 601,86;12844,230;   61,766;23355,102;54,87606
 602,44;12651,848;   23,661;23449,660;53,90671
 603,02;12646,945;   38,656;23576,521;53,56598
 603,60;12509,293;   54,858;23663,232;52,75431
 604,18;12264,720;   69,263;23594,734;51,83937
 604,76;12103,388;   59,263;23642,154;51,07145
 605,34;11741,455;   27,565;23530,764;49,83956
 605,92;11508,692;   59,561;23453,719;48,94013
 606,50;11150,424;   17,662;23498,998;47,41111
 607,08;10907,362;   31,666;23394,881;46,55051
 607,66;10802,787;   39,266;23561,643;45,75865
 608,24;10623,895;   46,067;23522,059;45,05807
 608,82;10514,039;   26,164;23532,031;44,61812
 609,40;10589,219;   46,466;23471,021;45,00727
 609,98;10696,259;   18,864;23505,928;45,46075
 610,56;10832,028;   43,861;23497,662;45,99752
 611,14;10996,423;   30,765;23481,086;46,76123
 611,72;11281,635;   42,665;23572,467;47,76483
 612,30;11482,344;   24,962;23468,496;48,87225
 612,88;11770,713;   60,659;23517,730;49,92121
 613,46;11840,924;   21,862;23505,697;50,32850
 614,04;12071,622;   30,068;23461,873;51,38978
 614,62;12188,517;   41,561;23489,982;51,80287
 615,20;12281,059;   52,768;23402,416;52,37034
 615,78;12331,186;   25,569;23463,430;52,50316
 616,36;12386,327;   41,364;23400,150;52,84933
 616,94;12302,387;    7,666;23272,242;52,84739
 617,52;12299,414;   24,067;23373,656;52,57200
 618,10;12305,145;   63,559;23336,107;52,60097
 618,68;12219,543;   17,966;23253,184;52,51329
 619,26;12184,046;   39,268;23398,834;51,99060
 619,84;12004,119;   18,963;23277,133;51,53095
 620,42;11904,291;   31,165;23313,506;50,99627
 621,00;11776,091;   28,865;23209,607;50,67666
 621,58;11729,265;   38,760;23216,406;50,43871
 622,16;11622,882;   49,270;23335,164;49,70224
 622,74;11530,687;   47,066;23327,742;49,32683
 623,32;11360,199;   42,166;23291,223;48,68169
 623,90;11205,869;   66,971;23311,484;47,92055
 624,48;11069,724;   32,662;23196,598;47,64761
 625,05;11021,624;   34,562;23105,098;47,62378
 625,63;10999,523;   52,962;23188,799;47,31431
 626,21;10788,044;   38,262;23117,596;46,57752
 626,79;10827,738;   53,967;23219,719;46,50732
 627,37;10691,712;   28,162;23090,717;46,23751
 627,95;10686,259;   72,768;23200,215;45,89132
 628,53;10630,392;   49,365;23176,607;45,75136
 629,11;10507,400;   48,259;23043,449;45,48404
 629,69;10558,466;   53,369;23256,932;45,27364
 630,27;10440,520;   80,763;23105,434;44,99416
 630,84;10289,324;   43,862;23021,197;44,58943
 631,42;10302,414;   54,367;23319,656;44,04865
 632,00;10160,788;   45,459;23125,768;43,82666
 632,58;10155,396;   50,263;23105,172;43,83072
 633,16;10080,638;   49,870;23096,906;43,52303
 633,74; 9976,303;   56,264;23018,488;43,20156
 634,32; 9897,061;   45,661;23007,842;42,90272
 634,90; 9954,394;   51,970;23195,746;42,78655
 635,47; 9866,240;   38,860;23035,645;42,73371
 636,05; 9771,660;   37,461;22989,342;42,41134
 636,63; 9833,991;   45,965;23104,807;42,44804
 637,21; 9849,759;   67,464;23150,529;42,37866
 637,79; 9919,611;   71,465;23192,904;42,59314
 638,37; 9921,369;   54,055;23070,883;42,87000
 638,94; 9971,123;   33,265;23100,686;43,08179
 639,52;10000,823;   41,665;23195,285;43,01340
 640,10;10124,954;   64,264;23215,900;43,45563
 640,68;10150,124;   54,164;23175,334;43,66544
 641,26;10191,493;   35,864;23250,268;43,74710
 641,84;10242,463;   39,164;23235,002;43,98763
 642,41;10235,532;   28,264;23192,936;44,06395
 642,99;10288,402;   48,464;23145,568;44,33429
 643,57;10253,972;   22,064;23158,402;44,22440
 644,15;10224,041;   27,064;23178,035;44,04557
 644,73;10234,311;   37,564;23277,568;43,87584
 645,30;10145,681;   55,264;23230,303;43,54002
 645,88;10117,350;   44,964;23362,635;43,19636
 646,46;10060,520;   59,264;23447,568;42,76178
 647,04; 9948,289;   51,864;23367,902;42,44471
 647,61; 9858,459;   46,564;23396,336;42,02137
 648,19; 9762,028;   61,664;23433,369;41,50473
 648,77; 9595,898;   26,264;23442,002;40,86839
 649,35; 9532,067;   51,064;23590,137;40,27773
 649,92; 9468,237;   42,464;23596,070;40,01839
 650,50; 9352,907;   30,064;23551,104;39,63619
 651,08; 9248,576;   39,964;23450,537;39,33527
 651,66; 9257,946;   21,864;23534,770;39,28090
 652,23; 9270,016;   39,064;23561,004;39,24401
 652,81; 9322,186;   36,464;23644,137;39,33349
 653,39; 9270,655;   56,164;23647,170;39,05934
 653,97; 9344,125;   37,065;23882,504;39,03078
 654,54; 9414,294;   23,565;23823,137;39,45756
 655,12; 9468,063;   30,965;23831,971;39,65000
 655,70; 9493,634;   42,065;23962,805;39,51203
 656,28; 9615,303;   32,765;23947,037;40,07037
 656,85; 9675,772;   44,065;24051,070;40,12040
 657,43; 9665,242;   -1,035;23831,305;40,55950
 658,01; 9766,712;   21,465;24078,539;40,50886
 658,58; 9873,781;   55,165;24234,371;40,60769
 659,16; 9809,551;   51,965;24154,105;40,48431
 659,74; 9894,221;   59,465;24338,039;40,50796
 660,32; 9944,391;   71,665;24327,672;40,70219
 660,89; 9936,060;   34,265;24347,305;40,72627
 661,47; 9993,430;   51,665;24464,939;40,72278
 662,05; 9905,899;   25,365;24587,373;40,22690
 662,62; 9989,169;   59,665;24584,006;40,48836
 663,20; 9972,238;   80,665;24740,139;40,11267
 663,78;10045,607;   47,965;24902,773;40,22418
 664,35; 9976,878;   52,465;24921,006;39,90750
 664,93;10005,747;   64,465;25123,539;39,67139
 665,51; 9987,316;   49,565;25170,973;39,55890
 666,08;10003,086;   30,165;25185,707;39,64502
 666,66;10157,956;   47,465;25667,539;39,46316
 667,23;10283,626;   51,765;25732,773;39,84213
 667,81;10378,995;   65,865;25889,307;39,93709
 668,39;10489,965;   43,265;26047,141;40,17363
 668,96;10653,334;   54,665;26309,074;40,36910
 669,54;10756,304;   38,765;26408,408;40,64347
 670,12;10980,474;   51,165;26808,740;40,84566
 670,69;11178,144;   64,165;26950,674;41,33664
 671,27;11241,213;   25,565;27096,008;41,43134
 671,84;11304,383;   40,665;27105,240;41,61794
 672,42;11431,652;   66,265;27253,875;41,80355
 673,00;11559,621;   57,165;27531,408;41,86632
 673,57;11565,591;   59,965;27276,441;42,27449
 674,15;11716,761;   64,065;27613,475;42,29744
 674,72;11712,931;   58,565;27536,209;42,41399
 675,30;11669,000;   69,466;27513,541;42,26608
 675,88;11766,170;   36,266;27573,176;42,59702
 676,45;11729,539;   59,466;27677,309;42,25556
 677,03;11669,809;   67,866;27525,043;42,25468
 677,60;11683,278;   41,466;27770,576;41,98408
 678,18;11770,948;   59,466;27877,510;42,10031
 678,76;11722,317;   40,766;27809,143;42,06782
 679,33;11700,587;   57,666;27813,176;41,94814
 679,91;11635,157;   44,266;27813,311;41,74033
 680,48;11646,427;   28,766;27740,242;41,92364
 681,06;11665,196;   50,866;27735,176;41,95275
 681,63;11539,565;   37,566;27736,209;41,52550
 682,21;11689,636;   67,966;27797,543;41,91074
 682,78;11622,705;   20,566;27459,576;42,28337
 683,36;11677,675;   46,966;27565,510;42,26499
 683,93;11696,044;   30,466;27450,645;42,54377
 684,51;11825,714;   26,166;27477,277;42,98386
 685,08;11925,983;   38,966;27733,711;42,92156
 685,66;12037,753;   53,066;27694,045;43,35840
 686,24;12082,822;   33,766;27796,578;43,39998
 686,81;12151,992;   57,666;27899,910;43,43876
 687,39;12269,861;   38,866;27807,844;44,04554
 687,96;12414,231;   54,166;27850,479;44,46657
 688,54;12509,301;   30,866;27984,811;44,63926
 689,11;12668,771;   26,966;28043,545;45,12258
 689,69;12648,641;   29,666;28019,279;45,08449
 690,26;12811,810;   59,466;28289,313;45,17327
 690,84;12853,379;   50,066;28239,846;45,41828
 691,41;12928,949;   35,966;28403,879;45,44918
 691,98;13065,818;   31,466;28427,912;45,90135
 692,56;13038,588;   32,866;28437,445;45,78741
 693,13;13134,357;   64,866;28655,080;45,71316
 693,71;13236,127;   24,466;28657,912;46,14066
 694,28;13291,797;   41,966;28715,945;46,20855
 694,86;13355,667;   47,266;28928,879;46,07915
 695,43;13352,437;   61,366;29100,912;45,76886
 696,01;13429,706;   36,266;29145,547;46,01089
 696,58;13372,676;   42,167;29083,879;45,90125
 697,16;13463,345;   38,067;29126,414;46,15346
 697,73;13661,114;   63,467;29338,246;46,44834
 698,30;13655,984;   51,867;29223,980;46,63398
 698,88;13703,654;   40,467;29558,613;46,28742
 699,45;13817,424;   35,367;29765,848;46,35666
 700,03;13942,993;   56,067;29750,980;46,76534
 700,60;14038,963;   56,267;29850,613;46,93070
 701,18;14062,732;   61,867;29963,947;46,82238
 701,75;14336,402;   74,367;30094,682;47,50795
 702,32;14276,571;   50,367;29901,914;47,65651
 702,90;14447,341;   52,467;30254,148;47,66249
 703,47;14586,911;   51,367;30428,881;47,84968
 704,05;14599,681;   67,767;30546,715;47,67853
 704,62;14775,450;   39,867;30587,848;48,23750
 705,19;14867,319;   43,667;30586,982;48,53321
 705,77;15029,589;   29,967;30618,314;49,03705
 706,34;15172,759;   61,667;30627,049;49,43858
 706,91;15249,929;   46,367;30673,883;49,64021
 707,49;15418,298;   57,267;30976,316;49,68145
 708,06;15409,367;   66,367;31089,049;49,45736
 708,64;15513,037;   25,767;31093,582;49,84989
 709,21;15560,807;   58,167;31179,316;49,81384
 709,78;15621,376;   41,367;31281,150;49,87233
 710,36;15694,946;   61,667;31419,684;49,85417
 710,93;15853,516;   50,567;31562,416;50,14923
 711,50;15880,385;   44,467;31506,049;50,33414
 712,08;16104,455;   76,567;31925,383;50,32491
 712,65;16007,225;   73,667;31775,916;50,26002
 713,22;16000,994;   69,067;31900,250;50,05132
 713,80;16161,264;   84,167;31966,883;50,42574
 714,37;16038,434;   55,767;31827,018;50,30544
 714,94;16097,103;   53,967;31727,551;50,65147
 715,52;16081,572;   47,867;31732,984;50,60327
 716,09;16248,342;   65,467;31891,918;50,84725
 716,66;16181,412;   73,467;31935,051;50,55601
 717,23;16218,481;   66,867;31908,484;50,72485
 717,81;16275,251;   50,168;31812,018;51,08356
 718,38;16260,021;   47,468;31671,252;51,26696
 718,95;16268,891;   59,068;31618,984;51,36206
 719,53;16270,260;   56,568;31661,418;51,30128
 720,10;16377,029;   59,968;31481,252;51,92996
 720,67;16303,199;   35,768;31355,984;51,93908
 721,24;16281,769;   59,468;31256,020;52,00030
 721,82;16263,038;   49,968;31236,053;51,98816
 722,39;16408,809;   64,068;31235,885;52,43435
 722,96;16448,377;   64,968;31261,420;52,51690
 723,53;16555,447;   88,268;31151,953;53,01103
 724,11;16642,617;   61,568;31207,486;53,23667
 724,68;16701,586;   71,568;31242,020;53,35187
 725,25;16702,057;   72,768;31399,953;53,08261
 725,82;16836,025;   96,068;31564,387;53,19622
 726,40;16878,695;   62,668;31714,820;53,12760
 726,97;16920,564;   62,168;31875,354;52,99185
 727,54;17059,135;   46,968;31801,486;53,57400
 728,11;17092,604;   49,568;32045,820;53,26572
 728,69;17170,873;   39,568;31938,953;53,70419
 729,26;17332,943;   53,568;32105,088;53,91125
 729,83;17412,213;   53,268;32264,621;53,89077
 730,40;17561,082;   66,768;32291,754;54,28804
 730,97;17652,053;   44,268;32590,588;54,10069
 731,55;17652,922;   41,468;32755,820;53,83403
 732,12;17712,191;   86,268;32841,656;53,81076
 732,69;17692,861;   66,968;32889,988;53,69979
 733,26;17712,430;   55,168;32930,520;53,70973
 733,83;17906,699;   41,168;32979,055;54,24006
 734,41;18081,670;   65,468;32991,590;54,71705
 734,98;18024,539;   51,368;33155,621;54,29263
 735,55;18233,209;   43,168;33183,656;54,88767
 736,12;18272,678;   65,968;33377,289;54,65622
 736,69;18361,348;   76,968;33377,922;54,90647
 737,26;18366,217;   57,468;33552,254;54,66149
 737,84;18496,887;   70,768;33487,188;55,14091
 738,41;18489,557;   63,168;33492,422;55,12055
 738,98;18516,926;   63,569;33375,055;55,39638
 739,55;18561,596;   49,669;33377,789;55,54447
 740,12;18691,465;   62,969;33678,023;55,41712
 740,69;18779,336;   70,569;33575,656;55,83859
 741,26;18776,605;   56,269;33557,391;55,87973
 741,83;18852,975;   53,869;33719,523;55,84061
 742,41;18909,244;   56,169;33833,055;55,81650
 742,98;19048,514;   91,469;33874,590;56,11395
 743,55;18981,084;   53,569;33836,824;56,02632
 744,12;19124,752;   50,469;33859,855;56,41712
 744,69;19078,422;   59,569;33848,492;56,28724
 745,26;19068,191;   42,169;33677,723;56,56521
 745,83;19146,563;   58,769;33854,355;56,48014
 746,40;19091,031;   57,969;33844,789;56,33280
 746,97;19077,801;   44,769;33828,125;56,33849
 747,55;19089,770;   62,269;33966,957;56,12056
 748,12;19240,641;   57,869;33910,191;56,66604
 748,69;19138,609;   68,769;33877,625;56,40487
 749,26;19220,279;   65,069;33958,559;56,51590
 749,83;19094,949;   42,569;33911,992;56,25245
 750,40;19235,219;   89,669;34158,824;56,19614
 750,97;19267,488;   96,269;34144,160;56,30663
 751,54;19217,258;   40,569;33980,793;56,50136
 752,11;19125,727;   52,969;33874,727;56,39198
 752,68;19083,996;   87,869;33912,859;56,16004
 753,25;19041,766;   60,269;33774,594;56,30098
 753,82;19127,836;   65,069;33810,527;56,48987
 754,39;19233,406;   75,169;33727,160;56,93047
 754,96;19171,475;   60,069;33616,395;56,95321
 755,53;19282,945;   29,469;33796,527;57,01852
 756,10;19219,014;   64,169;33720,961;56,91227
 756,67;19265,684;   73,369;33813,395;56,88293
 757,24;19270,354;   72,769;33740,426;57,02085
 757,81;19227,223;   16,469;33677,762;57,07075
 758,38;19294,193;   54,569;33822,695;56,97569
 758,95;19269,063;   79,469;33743,426;57,00338
 759,52;19154,332;   57,469;33615,859;56,90637
 760,09;19098,201;   68,570;33306,992;57,25191
 760,66;19018,672;   59,570;33309,727;57,01959
 761,23;19189,941;   91,070;33353,961;57,41795
 761,80;19023,510;   56,270;33295,793;57,06231
 762,37;19046,781;   68,970;33167,727;57,33693
 762,94;19125,750;   70,970;33187,461;57,53864
 763,51;18910,219;   36,070;32949,793;57,34431
 764,08;18942,988;   66,270;32998,527;57,31984
 764,65;18919,459;   69,570;32798,961;57,59316
 765,22;18944,129;   54,670;32804,496;57,67804
 765,79;18834,398;   77,370;32691,928;57,51122
 766,36;18928,467;   73,170;32743,063;57,71460
 766,93;18878,838;   68,970;32551,295;57,90801
 767,50;18850,006;   89,470;32828,328;57,30357
 768,07;18908,877;   63,870;32699,262;57,74408
 768,64;18683,445;   86,470;32572,596;57,24590
 769,21;18523,115;   57,970;32359,729;57,16452
 769,78;18603,984;   78,770;32244,963;57,59219
 770,34;18432,455;   45,570;32031,195;57,48484
 770,91;18457,225;   58,470;31921,430;57,74339
 771,48;18396,693;   62,370;31836,863;57,70139
 772,05;18263,564;   66,470;31610,697;57,68756
 772,62;18089,334;   42,670;31443,029;57,47279
 773,19;18109,002;   59,370;31579,764;57,26335
 773,76;17971,873;   71,070;31506,297;56,94504
 774,33;18065,842;   74,170;31447,330;57,34734
 774,90;17886,912;   52,870;31206,064;57,24627
 775,47;17841,281;   59,970;30957,498;57,54930
 776,03;17915,451;   73,470;30984,330;57,72075
 776,60;17757,621;   55,970;30757,863;57,65655
 777,17;17712,189;   65,470;30698,098;57,60759
 777,74;17599,459;   30,870;30522,031;57,61863
 778,31;17574,830;   68,970;30582,064;57,37163
 778,88;17391,100;   30,470;30366,898;57,22701
 779,45;17502,068;   75,770;30358,131;57,54604
 780,01;17413,438;   58,370;30299,664;57,38864
 780,58;17319,107;   60,570;30177,998;57,30415
 781,15;17284,578;   38,771;29979,432;57,59996
 781,72;17155,746;   66,771;29962,266;57,16238
 782,29;17105,416;   51,771;29667,100;57,58385
 782,86;17071,787;   55,571;29617,732;57,56080
 783,42;17092,355;   56,171;29598,166;57,66768
 783,99;16976,426;   66,671;29482,100;57,48601
 784,56;16836,895;   55,171;29320,232;57,34389
 785,13;16825,564;   40,271;29247,266;57,47012
 785,70;16659,234;   49,071;29060,299;57,25426
 786,26;16627,703;   51,671;28910,732;57,43788
 786,83;16555,773;   84,371;28889,166;57,18285
 787,40;16437,844;   57,171;28783,500;57,02320
 787,97;16448,813;   43,971;28581,133;57,48589
 788,54;16431,883;   70,371;28515,268;57,52003
 789,10;16264,651;   57,971;28344,400;57,29490
 789,67;16137,121;   70,371;28245,334;57,02492
 790,24;16128,091;   51,071;28193,768;57,12679
 790,81;15929,761;   88,271;27914,400;56,93027
 791,37;15851,530;   73,671;27872,135;56,75803
 791,94;15818,500;   70,771;27886,367;56,61475
 792,51;15657,170;   46,271;27539,201;56,78150
 793,08;15635,039;   69,771;27555,234;56,63091
 793,64;15623,408;   71,271;27455,168;56,79300
 794,21;15529,479;   69,671;27250,602;56,87740
 794,78;15393,348;   53,071;27147,035;56,61880
 795,35;15297,718;   73,471;27007,969;56,52322
 795,91;15148,787;   48,071;26789,301;56,46979
 796,48;15176,856;   55,771;26710,734;56,72897
 797,05;15022,227;   57,671;26624,369;56,32825
 797,62;15091,196;   41,971;26600,701;56,66395
 798,18;14949,266;   57,471;26410,736;56,50835
 798,75;14831,735;   56,571;26279,770;56,34387
 799,32;14947,005;   60,771;26209,102;56,92996
 799,88;14801,675;   55,971;26051,535;56,72392
 800,45;14672,044;   33,971;25945,270;56,49301
 801,02;14717,914;   65,271;25880,104;56,76056
 801,58;14583,883;   90,872;25660,436;56,68071
 802,15;14495,652;   72,872;25615,270;56,46604
 802,72;14362,423;   66,172;25404,703;56,42099
 803,28;14201,992;   49,172;25288,938;56,07350
 803,85;14251,161;   41,972;25144,871;56,60378
 804,42;14130,031;   77,772;24948,004;56,50233
 804,98;14023,701;  100,672;24935,537;56,06243
 805,55;13861,870;   56,972;24702,371;56,01410
 806,12;13818,940;   83,572;24611,004;56,00003
 806,68;13707,609;   66,472;24493,738;55,84390
 807,25;13606,479;   74,972;24436,271;55,54510
 807,82;13611,349;   86,872;24407,805;55,60838
 808,38;13493,618;   73,672;24367,037;55,24120
 808,95;13391,288;   62,972;24166,971;55,29504
 809,52;13346,357;   50,272;24162,004;55,14364
 810,08;13325,327;   55,172;23994,938;55,43143
 810,65;13484,197;   77,172;24169,672;55,64813
 811,21;13373,366;   69,972;24123,404;55,30768
 811,78;13435,736;   92,472;24337,539;55,03497
 812,35;13366,605;   64,972;24173,871;55,17313
 812,91;13431,176;   90,072;24239,705;55,24351
 813,48;13437,445;   68,172;24202,738;55,39471
 814,04;13300,015;   64,172;24088,373;55,09379
 814,61;13252,884;   77,572;24176,006;54,67290
 815,18;13238,054;   67,772;23892,539;55,27979
 815,74;13208,123;   69,772;23709,172;55,57819
 816,31;13226,593;   83,372;23614,406;55,85484
 816,87;13029,563;   43,272;23489,641;55,38721
 817,44;12997,532;   76,972;23452,273;55,27441
 818,00;12866,401;   43,272;23159,506;55,47240
 818,57;12777,071;   71,872;23076,340;55,22927
 819,14;12691,141;   82,872;22924,273;55,19919
 819,70;12595,711;   72,672;22792,707;55,11892
 820,27;12533,181;   62,972;22691,941;55,10728
 820,83;12452,649;   70,072;22541,373;55,10396
 821,40;12432,520;   98,072;22431,908;55,22763
 821,96;12319,989;   75,272;22315,541;55,05651
 822,53;12176,358;   70,973;22257,574;54,56169
 823,09;12086,628;   81,073;22073,309;54,58997
 823,66;12067,798;   68,173;21862,541;55,05838
 824,22;12058,867;   77,173;21851,674;55,02626
 824,79;11855,938;   75,473;21561,408;54,82873
 825,35;11878,807;   65,173;21648,041;54,73616
 825,92;11731,977;   75,173;21398,875;54,66595
 826,48;11639,346;   87,673;21501,309;53,94541
 827,05;11489,716;   89,573;21448,242;53,37478
 827,61;11447,285;   75,273;21249,076;53,70793
 828,18;11408,654;   60,873;21191,209;53,70374
 828,74;11373,324;   91,673;21053,543;53,81987
 829,31;11246,994;   83,373;21002,176;53,36644
 829,87;11207,964;   73,073;20733,709;53,89423
 830,44;11196,833;   85,173;20631,443;54,08115
 831,00;11154,203;   91,273;20673,977;53,74867
 831,57;11179,973;  101,573;20631,609;53,96191
 832,13;11070,942;   72,073;20323,344;54,31200
 832,69;10975,611;   58,173;20309,477;53,90981
 833,26;10965,682;   85,473;20322,711;53,76331
 833,82;10872,051;   93,073;20197,744;53,61430
 834,39;10897,920;   78,773;20137,477;53,93742
 834,95;10819,090;   57,173;19959,410;54,07390
 835,52;10710,960;   87,873;19851,744;53,75003
 836,08;10686,529;   95,573;19951,877;53,33800
 836,64;10680,699;   76,273;19800,711;53,76288
 837,21;10564,168;   88,673;19552,443;53,82048
 837,77;10584,138;   91,873;19491,777;54,08410
 838,34;10491,107;   67,473;19470,012;53,72304
 838,90;10371,877;   64,473;19306,045;53,56841
 839,46;10289,847;   83,873;19312,479;53,07703
 840,03;10340,916;   76,173;19300,811;53,39369
 840,59;10247,386;   85,873;19175,645;53,23014
 841,16;10197,155;  105,173;19156,578;52,97238
 841,72;10083,325;   59,373;18965,512;53,01956
 842,28;10064,995;   77,873;18857,246;53,18134
 842,85;10000,064;   95,573;18812,578;52,91707
 843,41; 9978,435;  105,374;18740,813;52,98003
 843,97; 9855,504;   89,174;18686,846;52,51372
 844,54; 9760,673;  104,774;18624,979;52,13711
 845,10; 9740,843;   89,174;18523,713;52,35644
 845,67; 9610,412;   68,774;18413,445;52,01313
 846,23; 9619,082;   78,674;18361,080;52,18355
 846,79; 9559,352;   90,474;18265,613;52,09797
 847,36; 9451,321;   55,774;18179,047;51,84244
 847,92; 9393,091;   84,874;18034,680;51,85692
 848,48; 9361,261;   41,874;18039,213;51,78203
 849,04; 9364,530;   62,374;17949,447;52,00491
 849,61; 9367,399;   56,274;17918,580;52,12723
 850,17; 9362,069;   68,174;17819,514;52,35602
 850,73; 9234,139;   71,474;17764,848;51,78585
 851,30; 9235,108;   46,074;17669,881;52,13990
 851,86; 9203,578;   75,874;17597,914;52,09270
 852,42; 9175,548;   51,174;17568,348;52,08816
 852,99; 9171,117;   79,274;17583,082;51,94209
 853,55; 9149,787;   83,174;17542,514;51,92987
 854,11; 9048,557;   70,074;17432,049;51,71349
 854,67; 8997,426;   85,474;17420,881;51,40896
 855,24; 8920,796;   51,874;17213,414;51,67906
 855,80; 8952,466;   76,874;17244,848;51,69854
 856,36; 8841,735;   80,574;17175,881;51,24893
 856,92; 8768,104;   54,474;17027,215;51,33897
 857,49; 8745,774;   81,274;17048,248;51,06686
 858,05; 8687,944;   67,274;16968,482;51,00624
 858,61; 8570,113;   65,774;17003,316;50,20999
 859,17; 8585,883;   77,374;16904,250;50,56499
 859,74; 8485,953;   82,074;16836,883;50,15801
 860,30; 8380,922;   93,074;16663,016;50,01736
 860,86; 8336,692;   72,074;16692,350;49,72612
 861,42; 8253,462;   74,674;16545,883;49,65505
 861,99; 8254,431;   54,674;16506,717;49,84035
 862,55; 8197,601;   66,374;16393,051;49,80332
 863,11; 8196,670;   75,174;16437,283;49,63599
 863,67; 8126,840;   61,274;16290,117;49,69896
 864,23; 8150,510;   80,175;16199,351;50,06667
 864,80; 8092,679;   69,175;16081,384;50,10867
 865,36; 8098,749;   71,875;16120,817;50,01497
 865,92; 8071,218;   96,175;16088,751;49,86716
 866,48; 8053,088;   67,375;15987,384;50,16149
 867,04; 8030,658;   60,675;15891,418;50,34497
 867,60; 7978,627;   99,375;15884,451;49,91584
 868,17; 7961,997;   93,675;15884,685;49,82786
 868,73; 7891,066;   82,775;15672,618;50,08576
 869,29; 7908,536;   59,475;15470,151;50,93262
 869,85; 7909,406;  100,475;15369,685;51,14168
 870,41; 7817,175;   80,575;15293,418;50,85572
 870,97; 7787,245;   92,975;15232,252;50,82323
 871,54; 7690,015;   84,175;15178,686;50,38812
 872,10; 7625,584;   84,275;15055,419;50,37230
 872,66; 7546,654;   66,775;14910,652;50,39033
 873,22; 7575,523;   81,975;14890,586;50,60264
 873,78; 7469,493;   65,275;14742,419;50,44726
 874,34; 7482,962;   95,075;14662,652;50,71459
 874,90; 7376,763;  109,775;14536,053;50,37327
 875,46; 7296,063;   96,375;14412,952;50,28917
 876,03; 7213,263;   86,475;14363,353;49,91839
 876,59; 7163,763;   64,475;14153,253;50,38966
 877,15; 7088,663;  101,475;14166,853;49,67650
 877,71; 7086,563;   78,275;14064,652;50,10795
 878,27; 6998,763;   95,675;13910,553;49,96850
 878,83; 6983,462;  114,275;13971,753;49,57026
 879,39; 6997,163;   91,075;14082,753;49,35854
 879,95; 6972,462;   86,275;13964,253;49,61953
 880,51; 6945,163;   75,175;13927,253;49,59536
 881,07; 7006,063;   82,375;13978,753;49,82368
 881,63; 7016,962;   92,575;13971,253;49,89227
 882,19; 7026,862;   82,675;13921,553;50,17883
 882,75; 7047,563;   86,275;14019,553;49,96159
 883,31; 7139,163;   95,575;14187,853;49,98190
 883,88; 7129,263;   96,375;14174,353;49,95666
 884,44; 7171,063;   76,175;14175,753;50,31986
 885,00; 7245,862;  106,075;14266,952;50,41910
 885,56; 7259,163;  101,675;14299,452;50,41273
 886,12; 7372,163;  109,875;14421,152;50,74521
 886,68; 7350,563;   90,775;14436,753;50,60504
 887,24; 7505,362;  102,475;14574,952;51,15149
 887,80; 7457,362;   86,975;14671,753;50,53479
 888,36; 7544,962;  106,275;14715,652;50,91721
 888,92; 7521,663;   98,975;14773,353;50,58264
 889,48; 7692,063;   99,575;14973,853;51,04441
 890,04; 7767,962;   95,275;14803,053;52,16755
 890,60; 7824,862;  117,475;15014,652;51,73723
 891,16; 7783,063;   99,875;15075,853;51,30341
 891,72; 7787,663;  113,275;15058,452;51,35026
 892,28; 7798,962;  112,475;15126,053;51,19691
 892,84; 7730,362;   93,775;15039,853;51,09426
 893,39; 7772,163;  117,575;15112,952;51,04632
 893,95; 7615,763;  112,975;15044,753;50,24712
 894,51; 7543,362;   66,375;14891,253;50,43541
 895,07; 7625,563;  127,375;14906,353;50,73550
 895,63; 7501,063;   74,275;14689,952;50,81384
 896,19; 7471,063;   90,375;14601,952;50,86068
 896,75; 7348,962;  105,175;14460,152;50,46185
 897,31; 7280,362;   82,775;14295,853;50,64060
 897,87; 7264,362;   98,175;14146,853;51,00969
 898,43; 7177,362;   87,775;14075,753;50,68343
 898,99; 7109,763;  109,175;14002,753;50,38722
 899,55; 7136,862;  109,475;13940,652;50,80831
 900,11; 7025,462;  104,975;13747,553;50,72712
 900,67; 6993,862;   91,375;13658,652;50,87599
 901,22; 6944,962;  108,375;13601,952;50,66549
 901,78; 6912,763;   91,275;13560,053;50,64667
 902,34; 6907,263;  103,075;13451,152;50,97504
 902,90; 6846,862;   73,575;13350,652;51,01490
 903,46; 6818,063;   95,775;13236,353;51,15671
 904,02; 6767,163;   88,075;13091,553;51,36386
 904,58; 6667,763;   67,075;12918,152;51,36291
 905,14; 6675,962;   63,975;12874,553;51,61350
 905,70; 6630,362;   66,775;12696,053;51,97120
 906,25; 6602,462;   84,375;12708,452;51,63219
 906,81; 6602,862;   87,675;12732,152;51,52595
 907,37; 6570,063;   79,275;12616,152;51,77356
 907,93; 6488,962;   74,775;12588,152;51,25864
 908,49; 6434,962;  101,875;12497,652;51,09068
 909,05; 6389,263;   89,675;12425,553;51,06720
 909,60; 6380,362;   86,575;12340,452;51,36160
 910,16; 6369,362;   67,675;12291,853;51,55101
 910,72; 6341,462;  100,475;12207,753;51,54740
 911,28; 6276,063;   90,875;12156,053;51,26479
 911,84; 6151,163;   79,575;12106,753;50,48223
 912,39; 6119,763;   73,475;12049,353;50,48722
 912,95; 6053,563;  104,475;12001,452;50,00503
 913,51; 6017,763;   85,375;11945,253;50,02065
 914,07; 6033,563;   83,775;11813,452;50,72422
 914,63; 6016,263;   64,775;11748,053;50,94022
 915,18; 5898,362;   77,475;11617,853;50,43931
 915,74; 5858,163;   63,975;11632,652;50,08513
 916,30; 5825,163;   61,475;11588,553;50,00129
 916,86; 5826,563;   83,575;11514,652;50,24012
 917,42; 5805,563;   82,275;11425,152;50,45710
 917,97; 5780,663;   75,375;11265,452;50,98524
 918,53; 5749,962;   67,775;11196,253;51,05988
 919,09; 5741,763;   88,975;11223,753;50,76695
 919,65; 5666,563;   83,375;11083,452;50,75589
 920,20; 5611,362;   61,875;10983,053;50,81400
 920,76; 5609,962;   65,475;10849,452;51,41412
 921,32; 5580,862;   82,675;10770,952;51,44129
 921,87; 5520,462;   97,475;10670,253;51,29198
 922,43; 5397,462;   64,675;10561,353;50,80453
 922,99; 5360,663;   61,875;10406,753;51,22136
 923,55; 5322,962;   63,775;10357,353;51,09193
 924,10; 5279,862;   73,575;10282,853;50,99565
 924,66; 5262,563;   78,675;10170,152;51,36897
 925,22; 5160,763;   43,275;10093,952;50,91684
 925,77; 5080,462;   66,075; 9927,053;50,85081
 926,33; 5092,063;   90,375; 9903,253;50,97065
 926,89; 5003,763;   71,975; 9692,753;51,26184
 927,44; 4933,862;   52,175; 9580,553;51,23314
 928,00; 4864,862;   66,875; 9533,753;50,68183
 928,56; 4811,962;   80,375; 9372,253;50,92176
 929,12; 4743,663;   72,775; 9275,152;50,75740
 929,67; 4650,862;   67,575; 9091,053;50,79291
 930,23; 4572,763;   50,975; 8915,253;51,01135
 930,78; 4573,663;  100,675; 8842,553;51,16735
 931,34; 4421,462;   61,975; 8632,152;50,86811
 931,90; 4331,163;   61,675; 8494,353;50,63027
 932,45; 4196,663;   78,775; 8290,753;50,14489
 933,01; 4084,663;   52,975; 8024,453;50,57641
 933,57; 3960,563;   72,175; 7753,252;50,62294
 934,12; 3788,962;   70,475; 7399,553;50,73609
 934,68; 3612,762;   59,075; 7020,252;51,05009
 935,24; 3418,462;   67,875; 6614,752;51,17840
 935,79; 3228,563;   72,975; 6254,853;51,04578
 936,35; 3027,863;   91,375; 5812,252;51,32932
 936,90; 2814,163;   80,275; 5348,752;51,89142
 937,46; 2610,462;   72,775; 4956,953;51,95731
 938,02; 2401,663;   63,375; 4549,152;52,12670
 938,57; 2234,563;   73,175; 4265,053;51,56132
 939,13; 2093,863;   70,575; 3986,752;51,66486
 939,68; 1930,463;   57,375; 3713,452;51,23216
 940,24; 1877,662;   68,775; 3504,052;52,65623
 940,79; 1833,063;   91,875; 3391,052;52,77641
 941,35; 1742,262;   79,675; 3217,552;52,98446
 941,91; 1673,463;   71,375; 3122,252;52,51235
 942,46; 1624,463;   75,075; 3063,552;51,84538
 943,02; 1621,463;   65,375; 3050,752;52,12364
 943,57; 1593,863;   61,275; 2982,452;52,46472
 944,13; 1589,863;   67,375; 2974,452;52,37176
 944,68; 1606,463;   65,975; 3041,752;51,76757
 945,24; 1631,262;   82,275; 3060,052;52,01824
 945,79; 1618,262;   68,775; 3104,052;51,04928
 946,35; 1663,563;   51,775; 3194,752;51,28218
 946,90; 1722,762;   98,575; 3283,552;50,99526
 947,46; 1729,762;   52,175; 3311,052;51,47746
 948,01; 1730,662;   51,575; 3390,052;50,29501
 948,57; 1849,162;   86,775; 3552,952;50,84528
 949,12; 1826,363;   65,875; 3613,353;49,62646
 949,68; 1915,162;   76,275; 3732,653;50,29260
 950,23; 1968,063;   70,075; 3833,252;50,43577
 950,79; 1972,863;   75,775; 3933,452;49,17694
 951,34; 2037,063;   83,275; 4070,952;48,99563
 951,90; 2112,462;   57,475; 4140,853;50,32568
 952,45; 2167,762;   81,075; 4292,152;49,55234
 953,01; 2171,462;   65,975; 4364,252;48,98445
 953,56; 2250,262;   87,975; 4500,853;48,99949
 954,12; 2261,663;   42,075; 4567,553;49,04648
 954,67; 2319,462;   70,875; 4720,453;48,36111
 955,23; 2361,262;   61,975; 4804,553;48,48181
 955,78; 2436,663;   67,175; 4882,953;49,20260
 956,33; 2474,863;   58,575; 4947,252;49,42620
 956,89; 2480,063;   53,475; 5038,553;48,67702
 957,44; 2520,462;   53,675; 5170,752;48,20696
 958,00; 2556,063;   49,475; 5238,353;48,30693
 958,55; 2593,363;   70,475; 5313,953;48,11478
 959,10; 2634,563;   52,375; 5370,252;48,55673
 959,66; 2663,563;   74,275; 5488,752;47,82156
 960,21; 2693,762;   78,475; 5567,453;47,64617
 960,77; 2714,462;   54,275; 5606,152;47,91510
 961,32; 2718,262;   48,375; 5663,453;47,54854
 961,87; 2773,163;   79,775; 5738,752;47,59495
 962,43; 2771,563;   68,975; 5780,652;47,31688
 962,98; 2813,762;   76,175; 5828,652;47,58971
 963,54; 2732,762;   27,075; 5820,652;46,70150
 964,09; 2813,863;   56,275; 5873,953;47,40014
 964,64; 2838,363;   64,975; 5901,053;47,52143
 965,20; 2770,663;   44,375; 5966,652;46,03445
 965,75; 2823,462;   66,575; 5976,353;46,64960
 966,30; 2805,363;   75,275; 6068,553;45,55250
 966,86; 2832,063;   62,975; 6121,953;45,70222
 967,41; 2819,863;   81,075; 6084,453;45,62078
 967,96; 2810,863;   75,175; 6108,953;45,33955
 968,52; 2810,063;   81,775; 6126,353;45,13612
 969,07; 2808,663;   72,975; 6120,152;45,23908
 969,62; 2790,462;   77,175; 6134,953;44,79015
 970,18; 2767,063;   57,575; 6147,652;44,49020
 970,73; 2786,163;   66,475; 6203,553;44,31568
 971,28; 2824,762;   95,775; 6197,053;44,72813
 971,84; 2751,563;   55,075; 6118,752;44,46951
 972,39; 2774,663;   95,875; 6148,652;44,25716
 972,94; 2749,563;   54,975; 6140,652;44,27753
 973,49; 2732,563;   64,575; 6141,252;43,90537
 974,05; 2706,863;   64,375; 6178,053;43,22255
 974,60; 2744,962;   88,575; 6213,252;43,37187
 975,15; 2753,163;   77,675; 6231,553;43,47645
 975,71; 2695,663;   62,375; 6121,453;43,46021
 976,26; 2689,163;   77,575; 6110,252;43,29069
 976,81; 2692,462;   90,675; 6134,152;43,05116
 977,36; 2685,563;   84,775; 6156,953;42,83122
 977,92; 2713,063;   90,175; 6209,353;42,86340
 978,47; 2627,063;   77,175; 6060,252;42,61833
 979,02; 2644,663;   95,475; 6085,652;42,55613
 979,57; 2601,262;   86,775; 6058,453;42,10689
 980,13; 2577,762;   76,175; 6038,752;41,95480
 980,68; 2593,863;   77,075; 6010,553;42,41674
 981,23; 2579,462;   89,175; 6054,652;41,74498
 981,78; 2562,063;   82,075; 5974,152;42,09021
 982,33; 2530,063;   79,275; 5893,252;42,15337
 982,89; 2528,762;   94,375; 5938,152;41,65777
 983,44; 2450,762;   65,675; 5935,853;40,63058
 983,99; 2482,962;  104,775; 5949,453;40,68980
 984,54; 2426,363;   81,475; 5900,053;40,30001
 985,09; 2446,863;   87,275; 5873,752;40,77762
 985,65; 2372,863;   69,375; 5811,853;40,11313
 986,20; 2383,462;  106,575; 5791,152;40,05377
 986,75; 2358,262;   95,875; 5823,953;39,49645
 987,30; 2310,462;   97,175; 5726,053;39,32023
 987,85; 2277,863;   92,475; 5721,353;38,82457
 988,40; 2243,063;   96,675; 5693,953;38,34699
 988,96; 2256,762;  114,875; 5666,553;38,58090
 989,51; 2234,962;  108,875; 5644,053;38,41046
 990,06; 2224,363;  128,275; 5680,853;37,74981
 990,61; 2187,262;   93,575; 5569,053;38,23753
 991,16; 2151,363;  104,375; 5558,053;37,53408
 991,71; 2123,063;   79,875; 5505,853;37,65566
 992,26; 2107,762;   93,475; 5457,252;37,55352
 992,81; 2086,663;   75,075; 5427,053;37,58587
 993,37; 2092,262;  113,475; 5390,553;37,49779
 993,92; 2047,762;  108,375; 5368,953;36,86644
 994,47; 2058,663;  117,475; 5329,652;37,24331
 995,02; 2020,963;  118,475; 5313,252;36,62308
 995,57; 2002,762;   90,875; 5274,652;36,88213
 996,12; 1997,963;  133,575; 5247,553;36,45670
 996,67; 1972,662;  132,375; 5191,652;36,37451
 997,22; 1943,363;   99,875; 5128,652;36,65876
 997,77; 1925,563;  115,275; 5110,553;36,23998
 998,32; 1908,363;  103,775; 5015,652;36,73926
 998,87; 1877,262;  114,275; 5018,752;35,94649
 999,42; 1872,863;  101,675; 4972,553;36,36280
 999,97; 1814,463;  109,975; 4956,353;35,17034
1000,53; 1822,463;  123,475; 4993,752;34,88482
1001,08; 1766,563;   98,375; 4879,053;34,89437
1001,63; 1797,162;  144,475; 4878,053;34,91413
1002,18; 1681,762;   85,075; 4777,453;34,02726
1002,73; 1708,363;  131,375; 4813,853;33,67849
1003,28; 1675,262;  103,575; 4811,953;33,38066
1003,83; 1647,563;  119,075; 4691,752;33,42653
1004,38; 1665,762;  137,775; 4703,152;33,46903
1004,93; 1616,363;  114,375; 4680,953;32,89088
1005,48; 1566,463;  104,075; 4573,053;32,72309
1006,03; 1526,063;  112,775; 4525,652;32,02644
1006,58; 1503,463;  111,475; 4486,553;31,81629
1007,13; 1464,563;   94,475; 4466,252;31,33937
1007,68; 1492,262;  104,975; 4462,453;31,83694
1008,23; 1486,162;  114,575; 4425,853;31,81395
1008,78; 1426,162;  107,375; 4384,152;30,83601
1009,33; 1409,463;  121,875; 4307,752;30,76028
1009,88; 1382,662;   84,775; 4329,553;30,57610
1010,43; 1379,963;  118,875; 4320,752;30,01248
1010,98; 1357,162;  100,675; 4310,053;29,84972
1011,52; 1337,563;   97,075; 4264,953;29,76305
1012,07; 1375,563;  144,475; 4319,252;29,48870
1012,62; 1307,262;  103,875; 4259,152;28,96046
1013,17; 1295,762;   97,175; 4172,053;29,41407
1013,72; 1266,762;   94,575; 4143,453;28,95092
1014,27; 1273,363;  100,275; 4105,853;29,28635
1014,82; 1221,662;   86,875; 4042,952;28,68466
1015,37; 1193,963;   84,375; 3964,853;28,59410
1015,92; 1211,063;  109,475; 3894,252;29,10574
1016,47; 1183,063;   90,275; 3819,452;29,30371
1017,02; 1121,963;   81,075; 3732,153;28,50905
1017,57; 1137,762;   96,475; 3718,853;28,74597
1018,11; 1099,363;   77,275; 3656,252;28,55809
1018,66; 1105,963;  120,175; 3636,552;28,03418
1019,21; 1077,162;  109,675; 3579,552;27,88247
1019,76; 1012,862;   77,675; 3497,353;27,34724
1020,31;  989,162;   71,975; 3446,452;27,18013
1020,86;  982,662;   96,175; 3448,052;26,44749
1021,41;  959,662;   80,175; 3387,052;26,59571
1021,96;  949,763;   83,675; 3385,853;26,22777
1022,50;  961,063;  105,975; 3332,952;26,49809
1023,05;  921,963;   94,675; 3288,052;25,90635
1023,60;  916,162;   97,975; 3251,353;25,94638
1024,15;  886,662;   81,075; 3184,853;25,95507
1024,70;  864,963;   95,075; 3176,252;24,98680
1025,25;  837,662;   81,175; 3127,452;24,83318
1025,79;  837,263;  101,175; 3110,752;24,45817
1026,34;  821,162;   83,475; 3044,653;24,91196
1026,89;  799,763;  102,175; 3039,052;23,75269
1027,44;  770,662;   95,875; 2952,952;23,61810
1027,99;  758,763;   93,475; 2944,552;23,33460
1028,53;  751,862;   89,675; 2900,052;23,56223
1029,08;  742,862;  114,775; 2876,653;22,74132
1029,63;  735,162;  114,875; 2854,952;22,63759
1030,18;  714,763;   92,075; 2788,552;23,09263
1030,73;  694,662;   91,175; 2739,552;22,78706
1031,27;  677,862;   85,875; 2715,252;22,51436
1031,82;  679,162;   81,875; 2686,452;22,93222
1032,37;  685,662;   98,875; 2688,853;22,65608
1032,92;  664,963;  100,575; 2675,452;21,91901
1033,46;  640,463;   99,775; 2599,252;21,63202
1034,01;  614,463;   78,375; 2582,952;21,40431
1034,56;  627,862;   98,875; 2559,252;21,50026
1035,11;  615,763;   92,375; 2523,552;21,52815
1035,65;  600,463;   87,575; 2478,052;21,45544
1036,20;  586,463;   99,375; 2454,452;20,68244
1036,75;  606,862;  118,675; 2446,353;20,97316
1037,29;  563,162;   90,275; 2398,252;20,48926
1037,84;  547,662;   78,375; 2347,252;20,68369
1038,39;  538,263;   91,075; 2329,952;19,97374
1038,94;  514,162;   73,075; 2277,153;20,01234
1039,48;  531,063;   83,575; 2278,552;20,38688
1040,03;  528,862;  102,875; 2245,252;19,88387
1040,58;  508,962;  101,175; 2194,552;19,47988
1041,12;  489,862;   91,375; 2191,653;18,97309
1041,67;  486,263;  101,075; 2166,752;18,64703
1042,22;  489,962;  118,475; 2145,252;18,32897
1042,76;  455,462;   99,275; 2118,452;17,64023
1043,31;  454,962;   90,675; 2060,653;18,49196
1043,86;  452,862;   98,875; 2044,252;18,19634
1044,40;  434,263;   92,975; 2018,052;17,72851
1044,95;  422,163;   94,175; 1988,552;17,31374
1045,50;  405,163;   75,375; 1934,353;17,74026
1046,04;  429,263;  114,375; 1930,453;17,33888
1046,59;  404,563;   96,175; 1878,353;17,30397
1047,13;  421,362;  121,075; 1879,453;17,07753
1047,68;  402,263;  115,675; 1860,052;16,42921
1048,23;  399,063;  118,775; 1866,752;16,03496
1048,77;  389,563;   90,175; 1784,953;17,66530
1049,32;  367,763;  104,175; 1785,953;15,67315
1049,86;  356,263;   92,675; 1760,552;15,80377
1050,41;  343,462;   82,475; 1735,552;15,78798
1050,96;  351,663;  100,875; 1698,652;15,69602
1051,50;  341,663;  101,675; 1663,252;15,36827
1052,05;  337,462;   94,675; 1664,052;15,47031
1052,59;  328,263;   82,975; 1624,152;15,91559
1053,14;  314,263;   84,475; 1582,652;15,33780
1053,69;  314,063;   98,475; 1571,453;14,63617
1054,23;  343,462;  104,575; 1569,052;16,31213
1054,78;  320,862;  100,775; 1550,152;15,18497
1055,32;  334,563;  123,075; 1550,453;14,81651
1055,87;  273,163;   68,875; 1491,752;14,35735
1056,41;  281,263;   78,775; 1469,552;14,55930
1056,96;  291,263;   96,775; 1451,052;14,36098
1057,50;  324,163;  113,375; 1470,853;15,52788
1058,05;  256,462;   82,075; 1401,953;13,21240
1058,59;  278,462;   95,875; 1396,552;14,03788
1059,14;  289,663;  103,575; 1370,453;14,68867
1059,68;  257,063;   75,975; 1329,353;14,44796
1060,23;  308,163;  126,875; 1383,752;14,42364
1060,77;  274,663;   97,375; 1317,052;14,53561
1061,32;  280,962;  108,575; 1320,652;14,22248
1061,86;  262,263;  111,175; 1289,752;12,81948
1062,41;  255,762;   93,975; 1242,953;14,08100
1062,95;  260,163;  109,575; 1230,853;13,42999
1063,50;  256,663;  111,075; 1230,052;13,01076
1064,04;  248,462;   90,475; 1197,453;14,27197
1064,59;  258,263;  114,775; 1210,052;13,10056
1065,13;  252,863;  103,475; 1170,552;13,99969
1065,68;  231,262;  107,275; 1161,353;11,76265
1066,22;  251,462;  115,875; 1166,453;12,90600
1066,76;  252,063;  130,175; 1145,252;12,00770
1067,31;  221,962;   99,875; 1110,552;12,07977
1067,85;  212,363;  100,975; 1090,252;11,25948
1068,40;  221,063;  110,275; 1095,353;11,24658
1068,94;  216,563;   99,175; 1079,353;11,97615
1069,49;  213,663;   98,175; 1041,652;12,24062
1070,03;  219,663;  111,175; 1034,353;11,75153
1070,57;  209,663;   88,775; 1012,852;13,08197
1071,12;  190,163;   75,875;  987,153;12,54146
1071,66;  240,663;  131,775; 1039,953;11,98967
1072,21;  212,962;  112,475; 1011,352;11,17922
1072,75;  210,063;  104,475;  978,552;12,07988
1073,29;  189,762;   77,075;  942,453;13,02177
1073,84;  202,163;   95,975;  941,153;12,56393
1074,38;  196,163;   93,875;  928,253;12,25914
1074,92;  200,863;  107,275;  940,153;11,23665
1075,47;  210,863;  112,775;  938,852;11,87389
1076,01;  218,563;  121,775;  926,253;12,03110
1076,56;  185,762;   97,275;  891,953;11,13502
1077,10;  176,863;   86,075;  865,253;11,65171
1077,64;  191,262;   97,875;  884,453;11,87264
1078,19;  215,262;  123,175;  887,753;12,04423
1078,73;  193,462;   98,775;  853,852;12,54010
1079,27;  208,363;  121,075;  875,552;11,56927
1079,81;  204,363;  121,375;  860,953;11,22093
1080,36;  194,262;  105,975;  836,052;12,09289
1080,90;  195,462;   96,375;  819,753;13,69790
1081,44;  172,363;   82,475;  789,552;12,71254
1081,99;  151,863;   70,375;  771,753;11,61821
1082,53;  188,163;  113,075;  798,653;10,95245
1083,07;  185,363;  104,175;  791,453;11,81291
1083,62;  185,663;  101,275;  772,552;12,57118
1084,16;  172,163;   98,975;  782,453;10,70811
1084,70;  178,363;  107,475;  767,153;10,74578
1085,24;  187,363;  108,775;  750,653;12,24338
1085,79;  172,663;  109,175;  747,552; 9,94514
1086,33;  163,363;   99,075;  711,453;10,49802
1086,87;  169,762;  102,075;  714,852;11,04602
1087,41;  154,762;   84,475;  686,852;11,66835
1087,96;  181,863;  124,575;  732,552; 9,42264
1088,50;  153,163;  112,075;  696,953; 7,02498
1089,04;  179,462;  121,775;  715,153; 9,72189
1089,58;  147,962;   82,375;  655,953;11,43481
1090,13;  154,762;  102,975;  653,153; 9,41287
1090,67;  162,863;  101,775;  678,753;10,58750
1091,21;  149,563;   92,075;  651,852;10,26971
1091,75;  159,163;  106,875;  647,153; 9,67790
1092,29;  170,262;  105,875;  642,552;11,99743
1092,84;  156,163;  105,975;  628,352; 9,60752
1093,38;  179,863;  128,175;  662,753; 9,66885
1093,92;  177,262;  113,475;  640,052;12,11360
1094,46;  171,563;  128,175;  638,852; 8,49607
1095,00;  147,462;   93,975;  602,052;10,52743
1095,54;  137,262;   89,975;  591,352; 9,43152
1096,09;  162,262;  114,975;  597,352; 9,80301
1096,63;  162,863;  117,175;  598,453; 9,49296
1097,17;  148,762;  102,575;  573,052; 9,81715
1097,71;  168,962;  122,875;  582,453;10,02823
1098,25;  139,863;  103,275;  553,653; 8,12374
1098,79;  156,262;  104,775;  568,753;11,09698
1099,33;  155,363;  111,975;  572,052; 9,43048
1099,88;  148,962;  110,775;  562,253; 8,45834
1100,42;  121,662;   83,275;  521,253; 8,76472

