0128 ELITRO
Integration time [ms]:   8,000
Averaging Nr. [scans]: 10
Smoothing Nr. [pixels]: 0
Data measured with spectrometer [name]: 7314920SP
Wave   ;Sample   ;Dark     ;Reference;Reflectance
[nm]   ;[counts] ;[counts] ;[counts] ;[%]

 199,42;   96,256;   63,873;  150,055;37,57508
 200,02;  116,513;   92,669;  145,732;44,93476
 200,62;   65,116;   67,563;   88,793;-11,52627
 201,22;  102,878;   86,969;  138,011;31,16901
 201,82;  105,253;   66,174;  141,790;51,68017
 202,42;  131,491;  101,668;  154,973;55,94729
 203,03;   73,481;   60,168;   91,775;42,12175
 203,63;   83,394;   69,967;  109,037;34,36568
 204,23;  101,006;   70,671;  129,903;51,21413
 204,83;   88,450;   74,567;  123,718;28,24587
 205,43;   83,256;   56,673;  123,555;39,74606
 206,03;   59,728;   50,167;   90,459;23,73050
 206,63;   76,978;   68,865;  100,007;26,05395
 207,24;  115,128;   74,675;  162,566;46,02563
 207,84;   60,806;   39,967;   83,699;47,65270
 208,44;   55,578;   50,669;   95,011;11,07125
 209,04;   62,800;   47,365;   85,066;40,94130
 209,64;   98,625;   69,972;  127,998;49,37904
 210,24;   61,550;   45,367;   97,218;31,21082
 210,84;   69,700;   51,469;  101,970;36,10010
 211,44;  100,987;   86,470;  122,908;39,84209
 212,05;   78,000;   60,865;   99,266;44,62191
 212,65;   88,781;   66,368;  112,975;48,09019
 213,25;  109,991;   93,768;  142,073;33,58353
 213,85;   94,288;   84,465;  114,904;32,26923
 214,45;   82,950;   53,367;  100,418;62,87443
 215,05;   55,200;   39,369;  100,070;26,08014
 215,65;   66,322;   55,169;  105,630;22,10177
 216,25;   57,650;   40,267;   82,518;41,14244
 216,85;   49,656;   34,069;   89,651;28,04391
 217,45;   56,281;   49,068;   97,375;14,93268
 218,05;   87,253;   58,270;  112,886;53,06644
 218,66;   45,034;   28,769;   75,692;34,66475
 219,26;   41,694;   26,567;   79,337;28,66528
 219,86;   53,962;   36,771;   81,584;38,36293
 220,46;   82,831;   54,270;  104,127;57,28629
 221,06;   74,406;   51,871;  115,903;35,19357
 221,66;   72,472;   43,471;  103,481;48,32581
 222,26;   55,525;   39,772;  102,398;25,15339
 222,86;   75,347;   67,268;  118,954;15,63066
 223,46;   75,150;   51,767;   88,918;62,94055
 224,06;   87,084;   64,971;  120,343;39,93563
 224,66;   90,197;   57,570;  105,805;67,64044
 225,26;   79,266;   48,169;  113,748;47,41774
 225,86;   75,890;   42,173;  112,376;48,02836
 226,46;   68,869;   49,968;  102,913;35,69850
 227,06;   61,997;   27,670;   87,705;57,17728
 227,66;   64,866;   37,665;   74,845;73,16024
 228,27;   49,031;   29,270;   96,227;29,51335
 228,87;  100,175;   89,170;  143,046;20,42615
 229,47;   61,047;   29,172;   92,357;50,44589
 230,07;   24,766;   11,169;   59,648;28,04530
 230,67;   56,956;   38,169;   84,651;40,41853
 231,27;   43,631;   27,670;   76,327;32,80360
 231,87;   61,356;   43,169;  100,751;31,58514
 232,47;   88,884;   43,775;  132,047;51,10203
 233,07;   53,257;   42,965;   75,547;31,58731
 233,67;   67,381;   53,768;   94,275;33,60767
 234,27;   25,928;    0,567;   53,259;48,13163
 234,87;   60,262;   34,771;  106,084;35,74606
 235,47;   43,166;   16,169;   74,148;46,56182
 236,07;   46,075;   30,266;   72,042;37,84278
 236,67;   69,363;   49,966;   85,180;55,08144
 237,27;   63,500;   28,873;  109,074;43,17473
 237,87;   65,097;   25,370;   99,805;53,37058
 238,47;   33,813;   14,269;   68,032;36,35173
 239,07;   50,603;   33,272;   95,738;27,74416
 239,67;   86,668;   43,477;  131,421;49,11247
 240,27;   61,590;   46,773;  119,176;20,46534
 240,87;   73,722;   50,773;  119,533;33,37422
 241,47;   51,804;   39,164;   76,131;34,19213
 242,07;   52,425;   39,968;   92,894;23,53668
 242,67;   27,878;  -11,027;   77,914;43,74198
 243,27;   25,250;    7,767;   46,418;45,23320
 243,87;   66,284;   48,671;  108,343;29,51674
 244,47;   55,106;   22,371;   99,703;42,33067
 245,07;   29,300;    2,669;   55,770;50,15144
 245,67;   46,481;   31,068;   85,575;28,27798
 246,27;   32,778;   34,965;   69,007;-6,42212
 246,87;   47,447;   26,668;   63,154;56,95085
 247,46;   17,616;   19,663;   23,793;-49,56557
 248,06;   35,353;   20,470;   69,786;30,17859
 248,66;   60,625;   31,072;  105,898;39,49514
 249,26;   40,575;   32,366;   70,742;21,39166
 249,86;   64,990;   42,873;  102,176;37,29561
 250,46;   40,706;   16,775;   93,507;31,18741
 251,06;   25,681;   22,168;   65,375; 8,13191
 251,66;   38,540;   20,771;   64,724;40,42860
 252,26;   37,419;   38,866;   70,261;-4,60959
 252,86;   52,100;   35,969;   89,070;30,37779
 253,46;   -1,250;   -8,033;   22,118;22,49723
 254,06;   49,153;   31,766;   79,483;36,43902
 254,66;   59,956;   34,973;  100,155;38,32800
 255,26;   74,812;   39,073;  118,836;44,80698
 255,86;   38,104;   37,464;   55,631; 3,52238
 256,46;   34,587;   19,870;   70,208;29,23777
 257,05;   37,619;   23,570;   59,565;39,02874
 257,65;   68,862;   38,071;   97,684;51,65241
 258,25;   61,047;   37,372;  101,457;36,94191
 258,85;   37,900;   15,669;   51,770;61,57980
 259,45;   15,856;    6,869;   42,951;24,90819
 260,05;   47,350;   46,667;   85,818; 1,74501
 260,65;   42,619;   45,066;   83,561;-6,35713
 261,25;   42,584;   29,371;   85,943;23,35654
 261,85;   23,450;   -0,129;   47,622;49,37857
 262,45;   62,300;   46,169;  109,270;25,56363
 263,04;   75,834;   53,073;  116,295;36,00169
 263,64;   51,716;   33,767;   77,097;41,42321
 264,24;   54,128;   37,671;   89,062;32,02265
 264,84;   86,309;   58,974;  138,671;34,29852
 265,44;   42,759;   26,368;   67,716;39,64361
 266,04;   47,810;   48,865;   71,464;-4,67222
 266,64;   53,763;   39,866;   86,780;29,62086
 267,24;   44,963;   40,166;   68,980;16,64575
 267,84;   50,691;   24,668;   76,573;50,13516
 268,43;   55,303;   48,368;   95,935;14,58017
 269,03;   55,234;   46,969;   87,892;20,19824
 269,63;   64,297;   58,566;   92,402;16,93795
 270,23;   16,766;   10,765;   39,045;21,21916
 270,83;   61,919;   55,266;   83,161;23,84940
 271,43;   42,938;   23,967;   58,856;54,37329
 272,03;   61,659;   64,168;   99,116;-7,17679
 272,62;   43,922;   23,269;   68,730;45,43001
 273,22;   38,575;   11,970;   61,046;54,21152
 273,82;   23,379;   17,460;   26,403;66,18058
 274,42;   27,725;   25,164;   46,890;11,79034
 275,02;   33,635;   34,864;   60,388;-4,81788
 275,62;   54,347;   31,972;  100,457;32,67024
 276,21;   45,209;   22,770;   69,267;48,25945
 276,81;   52,306;   46,767;   71,099;22,76678
 277,41;   53,294;   22,971;   96,341;41,32795
 278,01;   14,535;   21,364;   42,788;-31,87949
 278,61;   54,778;   38,869;   83,811;35,39964
 279,20;   83,390;   65,473;  119,076;33,42619
 279,80;    3,476;    6,762;   11,539;-68,78911
 280,40;   45,475;   36,866;   79,742;20,07945
 281,00;   12,978;   -4,331;   33,311;45,98414
 281,60;   49,087;   20,774;   74,812;52,39520
 282,20;   51,787;   36,670;   70,108;45,21098
 282,79;   46,403;   29,568;   70,135;41,50029
 283,39;   22,397;   17,466;   44,702;18,10518
 283,99;   17,557;   23,165;   34,347;-50,14806
 284,59;   17,244;   16,869;   45,289; 1,31726
 285,19;   32,528;   27,067;   57,759;17,79450
 285,78;   43,787;   23,270;   63,808;50,61331
 286,38;   41,678;   39,665;   59,207;10,30472
 286,98;   37,303;   35,168;   73,535; 5,56554
 287,58;   24,406;    4,771;   61,403;34,67147
 288,17;   32,812;    8,973;   80,336;33,40580
 288,77;   63,315;   19,976;   92,504;59,75498
 289,37;   28,100;   11,269;   57,670;36,27274
 289,97;   41,757;   48,965;   66,647;-40,76254
 290,57;   63,337;   46,672;   93,260;35,77206
 291,16;   76,159;   63,868;  102,616;31,72253
 291,76;   22,475;    5,570;   47,346;40,46539
 292,36;   40,994;   34,367;   58,137;27,87829
 292,96;   18,568;   -3,127;   60,117;34,30496
 293,55;   38,406;   24,267;   65,399;34,37603
 294,15;   44,109;   26,870;   62,567;48,29311
 294,75;   35,278;   42,065;   66,207;-28,10942
 295,35;   22,859;   21,068;   52,016; 5,78988
 295,94;   40,585;   42,967;   66,740;-10,01966
 296,54;   30,069;   30,768;   70,613;-1,75554
 297,14;   36,572;   29,971;   76,881;14,07019
 297,73;    8,944;   12,165;   40,085;-11,53656
 298,33;   48,453;   28,066;   57,583;69,07068
 298,93;   54,047;   41,968;   82,554;29,76134
 299,53;   38,481;   24,872;   69,079;30,78481
 300,12;   18,972;  -12,229;   59,481;43,50902
 300,72;   69,316;   41,567;   91,197;55,91129
 301,32;   65,262;   25,771;   99,584;53,50215
 301,92;   19,047;    3,664;   33,050;52,34929
 302,51;   24,672;   11,567;   49,978;34,11799
 303,11;   26,928;   14,667;   48,759;35,96594
 303,71;   44,413;   21,369;   82,132;37,92402
 304,30;   19,531;    5,466;   38,423;42,67864
 304,90;   23,053;   19,666;   44,283;13,76129
 305,50;   32,766;   18,565;   64,345;31,01969
 306,09;   39,275;   15,466;   49,042;70,91097
 306,69;   58,028;   34,171;   90,262;42,53219
 307,29;    1,457;   18,760;   33,144;-120,30076
 307,88;   60,844;   43,269;   72,489;60,14563
 308,48;   24,631;    0,070;   49,727;49,46178
 309,08;   -8,228;   -4,437;   11,774;-23,38177
 309,68;   30,744;   22,365;   39,585;48,65760
 310,27;   32,922;   20,169;   49,830;42,99559
 310,87;   36,869;   23,468;   54,813;42,75192
 311,47;   58,250;   54,967;   92,918; 8,65109
 312,06;   51,922;   47,865;   68,426;19,73275
 312,66;   71,559;   51,168;  100,016;41,74550
 313,26;   54,640;   48,571;   96,224;12,73756
 313,85;   49,228;   38,267;   65,959;39,58367
 314,45;   63,578;   42,969;   86,611;47,22367
 315,04;   59,222;   52,165;   81,826;23,79304
 315,64;   37,116;   21,267;   47,897;59,51483
 316,24;   45,431;   40,770;   85,627;10,39140
 316,83;   57,475;   40,366;   76,742;47,03420
 317,43;   37,038;   35,167;   68,156; 5,66898
 318,03;   38,960;   39,063;   70,012;-0,33456
 318,62;   76,032;   73,061;   94,820;13,65224
 319,22;   35,591;    7,668;   66,973;47,08309
 319,82;   53,659;   40,768;   93,516;24,44044
 320,41;   74,813;   59,069;   98,732;39,69383
 321,01;   98,166;   80,465;  115,945;49,88977
 321,60;   73,925;   81,164;  102,790;-33,46954
 322,20;   88,756;   67,673;  132,855;32,34473
 322,80;   73,516;   54,567;   91,797;50,89642
 323,39;   59,613;   65,764;   94,828;-21,16502
 323,99;   75,119;   61,766;  102,661;32,65138
 324,59;   77,660;   73,063;   97,512;18,80046
 325,18;   65,172;   40,967;   92,178;47,26546
 325,78;   85,344;   76,365;  108,885;27,61038
 326,37;   88,981;   74,868;  108,075;42,50134
 326,97;   75,716;   63,267;  111,497;25,81084
 327,57;   44,016;   42,263;   76,493; 5,12123
 328,16;   77,204;   60,864;   93,631;49,86651
 328,76;   80,185;   50,467;  110,140;49,80128
 329,35;   83,762;   56,871;  137,484;33,35887
 329,95;   50,587;   27,470;   91,308;36,21304
 330,54;   70,750;   52,167;   94,018;44,40296
 331,14;   53,606;   26,967;   82,599;47,88518
 331,74;   75,066;   54,165;   96,145;49,78773
 332,33;   59,931;   35,370;  108,127;33,75792
 332,93;   54,747;   43,764;   79,250;30,95128
 333,52;   65,097;   42,466;   93,102;44,69388
 334,12;   86,034;   72,069;  140,392;20,44073
 334,71;   55,375;   50,666;   87,942;12,63359
 335,31;   87,428;   63,267;  119,859;42,69423
 335,90;   43,685;   32,362;   53,836;52,72765
 336,50;   36,478;   30,665;   77,207;12,49139
 337,10;   69,122;   38,769;  121,530;36,67534
 337,69;   63,878;   51,765;   93,707;28,88207
 338,29;   51,194;   30,467;  101,037;29,37037
 338,88;   45,247;   22,468;   99,854;29,43548
 339,48;   69,863;   57,862;  111,677;22,30049
 340,07;   62,841;   48,566;  107,321;24,29525
 340,67;   70,062;   31,171;  124,784;41,54505
 341,26;   67,375;   48,466;   98,942;37,46176
 341,86;   78,066;   61,469;  138,348;21,58727
 342,45;   79,944;   45,669;  142,689;35,32722
 343,05;   76,844;   27,269;  115,689;56,06712
 343,64;   67,463;   47,366;  122,480;26,75443
 344,24;   49,778;   28,765;   92,107;33,17500
 344,83;   72,257;   71,365;  121,747; 1,77052
 345,43;   48,085;   29,667;  114,240;21,77760
 346,02;   65,356;   41,469;  124,351;28,82093
 346,62;   79,740;   40,971;  140,424;38,98283
 347,21;   69,444;   42,165;  131,985;30,37061
 347,81;   62,737;   26,172;  140,560;31,96619
 348,40;   44,504;   29,064;  100,731;21,54388
 349,00;   64,160;   49,163;  137,712;16,93584
 349,59;   90,875;   65,870;  177,846;22,33049
 350,19;   58,740;   32,571;  139,424;24,49133
 350,78;   62,228;   55,467;  140,759; 7,92744
 351,38;   42,856;   15,869;  140,951;21,57575
 351,97;   47,085;   26,767;  136,040;18,59377
 352,57;   54,331;   42,570;  155,827;10,38459
 353,16;   47,013;   30,564;  134,328;15,85189
 353,76;   75,175;   38,770;  169,846;27,77381
 354,35;   56,366;   27,669;  160,148;21,66085
 354,95;   76,209;   43,970;  182,067;23,34546
 355,54;   73,391;   38,368;  163,973;27,88302
 356,14;   58,566;   40,069;  164,749;14,83496
 356,73;   46,163;   29,162;  145,176;14,65411
 357,32;   52,713;   13,769;  164,432;25,84831
 357,92;   58,859;   17,772;  181,419;25,10718
 358,51;   93,481;   43,372;  214,179;29,33664
 359,11;   63,137;   36,772;  212,360;15,01555
 359,70;   56,519;   28,470;  189,965;17,36790
 360,30;   61,976;   54,562;  188,039; 5,55448
 360,89;   52,347;   31,168;  188,054;13,49952
 361,48;   90,009;   55,570;  216,467;21,40462
 362,08;   60,338;   19,867;  187,156;24,19179
 362,67;   55,016;   39,763;  192,693; 9,97384
 363,27;   87,572;   60,767;  247,678;14,34104
 363,86;   73,466;   35,765;  215,745;20,94720
 364,46;   98,304;   44,664;  257,231;25,23432
 365,05;   98,916;   64,659;  254,989;17,99901
 365,64;   96,869;   50,960;  269,706;20,98768
 366,24;  118,685;   38,558;  309,432;29,58095
 366,83;  139,426;   43,255;  335,383;32,92081
 367,43;  146,320;   51,545;  352,843;31,45584
 368,02;  170,183;   34,646;  399,757;37,12210
 368,61;  217,358;   62,239;  475,425;37,54231
 369,21;  184,288;   32,419;  445,299;36,78280
 369,80;  237,211;   43,007;  526,947;40,12975
 370,39;  270,536;   62,006;  604,971;38,40580
 370,99;  277,759;   42,089;  615,416;41,10574
 371,58;  281,710;   22,974;  630,953;42,55679
 372,18;  313,442;   37,166;  701,603;41,58051
 372,77;  298,953;   42,449;  679,385;40,27144
 373,36;  328,993;   42,747;  690,836;44,16780
 373,96;  300,579;   35,135;  639,498;43,92117
 374,55;  279,178;   29,844;  621,406;42,14844
 375,14;  251,231;   42,849;  573,826;39,24496
 375,74;  220,999;   69,157;  543,276;32,02610
 376,33;  170,280;   45,964;  464,589;29,69616
 376,92;  159,988;   33,278;  447,997;30,55324
 377,52;  245,664;   86,103;  548,460;34,51034
 378,11;  177,033;   46,703;  457,203;31,74917
 378,71;  228,454;   73,011;  514,270;35,22718
 379,30;  232,594;   59,517;  553,928;35,00679
 379,89;  250,160;   59,813;  556,103;38,35406
 380,49;  244,926;   31,018;  568,185;39,82146
 381,08;  268,080;   70,306;  570,990;39,50068
 381,67;  268,608;   55,008;  555,483;42,67941
 382,26;  230,780;   41,706;  539,390;37,99069
 382,86;  237,521;   54,003;  516,041;39,71912
 383,45;  233,351;   50,412;  562,105;35,75164
 384,04;  236,807;   38,712;  553,886;38,45207
 384,64;  249,892;   49,014;  566,760;38,79850
 385,23;  272,923;   64,406;  560,509;42,03102
 385,82;  286,854;   59,615;  592,774;42,62121
 386,42;  316,131;   61,024;  659,022;42,66028
 387,01;  299,848;   55,414;  580,541;46,54762
 387,60;  289,039;   69,009;  590,140;42,22166
 388,20;  286,351;   37,712;  590,805;44,95422
 388,79;  334,791;   72,418;  665,563;44,23419
 389,38;  268,080;   32,106;  564,890;44,29066
 389,97;  314,710;   45,415;  640,955;45,21866
 390,57;  340,157;   71,114;  654,038;46,15402
 391,16;  343,357;   62,514;  655,838;47,33381
 391,75;  331,882;   52,713;  638,562;47,65203
 392,34;  365,007;   60,821;  696,694;47,83752
 392,94;  368,135;   44,718;  689,683;50,14489
 393,53;  357,741;   41,016;  666,612;50,62781
 394,12;  396,978;   53,023;  719,105;51,63858
 394,72;  395,604;   54,213;  706,122;52,36789
 395,31;  389,054;   42,115;  694,874;53,14961
 395,90;  418,753;   42,924;  732,881;54,47140
 396,49;  468,844;   58,028;  779,187;56,96602
 397,09;  434,116;   47,417;  749,188;55,10337
 397,68;  468,541;   44,025;  800,719;56,10139
 398,27;  489,047;   54,626;  809,652;57,53718
 398,86;  500,128;   43,125;  807,657;59,77554
 399,45;  522,703;   56,630;  844,037;59,19084
 400,05;  503,832;   23,820;  799,518;61,88129
 400,64;  538,079;   56,419;  831,001;62,18316
 401,23;  548,719;   53,920;  859,956;61,38674
 401,82;  574,819;   67,220;  868,256;63,36784
 402,42;  592,229;   62,921;  873,953;65,26344
 403,01;  630,241;   81,525;  912,919;65,99949
 403,60;  648,078;   68,532;  940,513;66,46317
 404,19;  658,797;   76,024;  931,900;68,09080
 404,78;  634,203;   57,522;  909,929;67,65329
 405,38;  692,787;   68,332;  984,210;68,18101
 405,97;  683,503;   63,226;  953,933;69,63874
 406,56;  712,909;   71,528; 1004,366;68,75592
 407,15;  717,484;   68,829;  989,442;70,45906
 407,74;  743,137;   80,730; 1026,758;70,01981
 408,34;  724,431;   50,933; 1018,629;69,59809
 408,93;  741,212;   59,531; 1016,234;71,25315
 409,52;  752,546;   51,435; 1041,359;70,82472
 410,11;  793,056;   84,931; 1090,453;70,42359
 410,70;  767,012;   54,727; 1027,230;73,24247
 411,29;  809,466;   58,628; 1030,847;77,22927
 411,89;  838,412;   60,535; 1093,938;75,27333
 412,48;  815,687;   48,228; 1051,606;76,48754
 413,07;  865,884;   65,033; 1101,446;77,27142
 413,66;  866,468;   78,135; 1102,119;76,98686
 414,25;  896,496;   63,337; 1142,311;77,21770
 414,84;  877,912;   69,431; 1102,434;78,26511
 415,44;  908,993;   91,530; 1155,939;76,79974
 416,03;  904,509;   76,637; 1161,173;76,33417
 416,62;  922,371;   76,138; 1168,687;77,45491
 417,21;  942,893;   75,334; 1158,843;80,06940
 417,80;  945,218;   65,037; 1162,871;80,17434
 418,39;  964,233;   78,440; 1179,201;80,47100
 418,98;  936,406;   55,634; 1143,405;80,97033
 419,58;  939,818;   64,033; 1142,067;81,23911
 420,17;  951,803;   52,735; 1164,540;80,86555
 420,76;  974,709;   72,537; 1192,873;80,52687
 421,35;  963,134;   60,236; 1155,197;82,45933
 421,94;  997,433;   88,340; 1223,501;80,08497
 422,53;  982,477;   61,540; 1195,320;81,22715
 423,12;  996,837;   64,039; 1190,766;82,78829
 423,71;  977,812;   60,835; 1162,138;83,26291
 424,30; 1014,543;   85,236; 1210,695;82,57139
 424,90;  974,205;   39,438; 1163,809;83,13695
 425,49; 1002,312;   70,140; 1216,242;81,33411
 426,08; 1036,312;   80,240; 1209,641;84,65294
 426,67;  985,256;   57,436; 1168,257;83,52558
 427,26; 1023,971;   60,343; 1230,391;82,35798
 427,85; 1013,327;   63,238; 1209,968;82,85204
 428,44; 1022,561;   68,442; 1218,093;82,99206
 429,03; 1050,974;   85,341; 1233,155;84,12796
 429,62; 1045,552;   78,941; 1240,296;83,23132
 430,21; 1065,424;   81,443; 1277,807;82,24758
 430,80; 1065,308;   70,445; 1235,381;85,40068
 431,39; 1061,068;   53,344; 1246,926;84,42849
 431,99; 1042,512;   78,535; 1206,838;85,43600
 432,58; 1061,337;   82,639; 1251,166;83,75484
 433,17; 1036,668;   69,735; 1238,319;82,74400
 433,76; 1068,414;   71,347; 1288,314;81,93052
 434,35; 1085,964;   88,245; 1292,462;82,85214
 434,94; 1086,498;   70,849; 1318,887;81,37968
 435,53; 1058,936;   78,643; 1278,669;81,68932
 436,12; 1068,046;   70,044; 1294,267;81,52124
 436,71; 1096,821;   87,740; 1303,239;83,01782
 437,30; 1075,108;   76,941; 1299,177;81,66731
 437,89; 1109,942;   76,245; 1320,802;83,05745
 438,48; 1099,249;   65,942; 1305,731;83,34535
 439,07; 1074,193;   95,238; 1347,147;78,19698
 439,66; 1114,323;   83,648; 1375,711;79,76975
 440,25; 1108,246;   85,844; 1390,567;78,36160
 440,84; 1116,708;   79,850; 1387,984;79,26233
 441,43; 1125,717;   78,054; 1440,985;76,86832
 442,02; 1111,895;   79,650; 1411,022;77,53242
 442,61; 1122,967;   93,344; 1397,226;78,96598
 443,20; 1146,386;   94,249; 1446,625;77,79913
 443,79; 1141,583;   74,546; 1412,957;79,72418
 444,38; 1147,289;   84,248; 1461,789;77,16944
 444,97; 1162,574;   84,146; 1466,359;78,02181
 445,56; 1208,139;  101,846; 1477,038;80,44647
 446,15; 1208,848;   81,651; 1522,539;78,22935
 446,74; 1179,089;   58,644; 1462,286;79,82417
 447,33; 1224,283;   82,646; 1538,357;78,42472
 447,92; 1234,204;   78,151; 1570,720;77,45396
 448,51; 1256,595;   89,746; 1586,019;77,98375
 449,10; 1308,630;   92,045; 1608,840;80,20759
 449,69; 1330,239;   73,950; 1627,741;80,85312
 450,28; 1349,202;   66,948; 1608,251;83,19281
 450,87; 1361,758;   78,647; 1656,333;81,32868
 451,46; 1413,733;   96,048; 1702,208;82,03942
 452,05; 1455,308;   70,950; 1715,384;84,18443
 452,64; 1483,417;   70,850; 1725,182;85,38595
 453,23; 1548,157;  113,752; 1794,936;85,32114
 453,82; 1552,283;   83,451; 1800,660;85,53597
 454,40; 1549,417;   65,450; 1786,682;86,21540
 454,99; 1642,398;  101,253; 1871,891;87,03899
 455,58; 1643,770;   69,747; 1832,095;89,31401
 456,17; 1699,167;   63,852; 1873,634;90,35979
 456,76; 1728,704;   67,751; 1918,820;89,72943
 457,35; 1784,989;   78,348; 1930,490;92,14420
 457,94; 1832,685;   66,954; 1978,929;92,35120
 458,53; 1822,361;   67,350; 2010,101;90,33637
 459,12; 1912,732;   82,657; 2111,116;90,21997
 459,71; 1906,345;   58,148; 2060,071;92,32112
 460,30; 1965,623;   84,448; 2087,511;93,91494
 460,89; 1971,404;   57,551; 2129,920;92,35101
 461,48; 2027,286;   75,954; 2173,829;93,01469
 462,06; 2043,751;   68,050; 2187,303;93,22629
 462,65; 2034,976;   48,249; 2176,527;93,34904
 463,24; 2138,935;   87,456; 2288,680;93,19719
 463,83; 2147,451;   54,450; 2229,803;96,21431
 464,42; 2179,098;   88,349; 2333,687;93,11513
 465,01; 2235,717;   73,050; 2336,482;95,54814
 465,60; 2237,295;   64,050; 2384,322;93,66337
 466,19; 2287,986;   73,354; 2462,829;92,68279
 466,77; 2284,848;   81,551; 2462,939;92,52156
 467,36; 2287,810;   69,457; 2459,256;92,82592
 467,95; 2304,870;   79,551; 2466,098;93,24429
 468,54; 2311,673;   71,954; 2513,866;91,71987
 469,13; 2317,536;   69,452; 2535,977;91,14377
 469,72; 2345,004;   67,555; 2582,723;90,54858
 470,31; 2361,348;   87,855; 2629,242;89,45873
 470,90; 2364,330;   76,750; 2652,044;88,82790
 471,48; 2350,754;   32,057; 2671,875;87,83547
 472,07; 2436,492;  125,747; 2686,454;90,23856
 472,66; 2384,132;   67,853; 2748,412;86,41031
 473,25; 2384,148;   68,351; 2723,339;87,22440
 473,84; 2356,138;   55,955; 2766,545;84,85915
 474,43; 2396,138;   55,459; 2843,049;83,96785
 475,01; 2402,395;   69,254; 2885,926;82,83324
 475,60; 2365,382;   49,755; 2882,364;81,74892
 476,19; 2422,685;   74,158; 2956,932;81,46760
 476,78; 2406,910;   71,057; 2964,456;80,73041
 477,37; 2343,982;   59,355; 2945,364;79,16216
 477,95; 2387,292;   75,656; 3018,661;78,54677
 478,54; 2393,398;   63,253; 3023,691;78,70947
 479,13; 2384,898;   56,253; 3070,291;77,25998
 479,72; 2435,129;   81,154; 3090,147;78,23132
 480,31; 2435,182;   63,459; 3167,468;76,40838
 480,89; 2399,295;   60,254; 3171,026;75,19165
 481,48; 2429,035;   46,260; 3214,084;75,21803
 482,07; 2459,973;   61,654; 3233,866;75,60398
 482,66; 2458,120;   52,853; 3253,650;75,14587
 483,25; 2513,835;   78,960; 3319,884;75,12903
 483,83; 2521,717;   59,954; 3325,385;75,38858
 484,42; 2556,285;   54,354; 3355,129;75,79831
 485,01; 2600,641;   65,958; 3400,413;76,01492
 485,60; 2668,025;   73,764; 3490,590;75,92606
 486,18; 2661,192;   66,956; 3490,761;75,77054
 486,77; 2696,558;   67,252; 3519,736;76,15692
 487,36; 2736,747;   58,464; 3561,750;76,45061
 487,95; 2760,744;   59,161; 3640,781;75,42908
 488,53; 2814,422;   54,461; 3642,522;76,92069
 489,12; 2798,938;   50,563; 3722,252;74,85314
 489,71; 2829,519;   38,062; 3680,357;76,64006
 490,30; 2879,179;   61,460; 3742,503;76,54674
 490,88; 2945,266;   87,561; 3859,141;75,76944
 491,47; 2937,960;   60,663; 3867,512;75,58211
 492,06; 2940,150;   62,563; 3920,615;74,58655
 492,65; 2963,810;   59,161; 3947,060;74,70998
 493,23; 2982,113;   54,860; 3982,825;74,52340
 493,82; 2994,376;   65,853; 4018,031;74,09897
 494,41; 2982,254;   51,361; 4066,179;73,00188
 494,99; 3003,839;   73,655; 4126,945;72,29149
 495,58; 3054,379;   86,060; 4224,403;71,72722
 496,17; 3005,435;   56,356; 4198,681;71,19382
 496,76; 3006,292;   65,356; 4276,761;69,83264
 497,34; 3042,176;   54,557; 4305,235;70,28570
 497,93; 3016,454;   66,057; 4350,675;68,86020
 498,52; 3013,426;   60,059; 4454,387;67,20861
 499,10; 3024,841;   75,862; 4533,217;66,15985
 499,69; 2981,169;   55,360; 4537,006;65,28426
 500,28; 2967,682;   37,959; 4592,068;64,33142
 500,86; 2976,676;   62,862; 4698,539;62,85628
 501,45; 2937,575;   53,462; 4730,438;61,66620
 502,04; 2924,719;   53,362; 4813,958;60,31509
 502,62; 2906,835;   70,956; 4856,181;59,26324
 503,21; 2862,079;   57,856; 4939,699;57,44189
 503,80; 2903,963;   69,662; 5015,577;57,30590
 504,38; 2822,113;   58,460; 5081,425;55,02035
 504,97; 2827,063;   49,962; 5122,776;54,74478
 505,56; 2807,016;   70,859; 5194,989;53,39750
 506,14; 2788,069;   64,064; 5263,709;52,38829
 506,73; 2721,878;   23,565; 5292,507;51,21168
 507,32; 2757,766;   62,865; 5376,045;50,72105
 507,90; 2713,735;   70,860; 5443,284;49,19334
 508,49; 2687,100;   58,865; 5500,366;48,29982
 509,08; 2721,003;   67,264; 5571,931;48,20890
 509,66; 2744,057;   69,960; 5677,644;47,68630
 510,25; 2684,588;   63,561; 5737,400;46,19495
 510,83; 2723,678;   45,165; 5855,607;46,09828
 511,42; 2731,569;   61,968; 5895,913;45,75978
 512,01; 2708,513;   59,164; 5980,328;44,74372
 512,59; 2753,963;   46,562; 6041,676;45,16012
 513,18; 2759,654;   59,961; 6114,379;44,59045
 513,77; 2759,488;   42,257; 6171,797;44,33010
 514,35; 2815,428;   37,763; 6190,255;45,14700
 514,94; 2870,241;   58,662; 6323,517;44,87860
 515,52; 2863,775;   48,166; 6358,342;44,62014
 516,11; 2918,257;   80,665; 6474,047;44,38327
 516,69; 2906,404;   41,959; 6446,727;44,72363
 517,28; 2971,163;   83,358; 6541,973;44,71246
 517,87; 2957,920;   45,558; 6604,054;44,40594
 518,45; 3011,207;   74,858; 6626,192;44,82063
 519,04; 3019,973;   54,258; 6707,970;44,57233
 519,62; 3086,150;   55,863; 6774,114;45,10530
 520,21; 3102,597;   24,466; 6828,002;45,24311
 520,79; 3174,681;   52,068; 7000,875;44,93740
 521,38; 3187,801;   52,960; 6995,363;45,15498
 521,97; 3240,547;   43,068; 7141,554;45,04452
 522,55; 3289,594;   67,759; 7195,230;45,20307
 523,14; 3315,216;   26,759; 7180,289;45,96972
 523,72; 3379,323;   77,561; 7383,422;45,19333
 524,31; 3408,479;   71,665; 7406,107;45,49513
 524,89; 3420,359;   48,468; 7526,815;45,08873
 525,48; 3422,663;   21,666; 7603,580;44,85670
 526,06; 3431,213;   56,264; 7633,128;44,54282
 526,65; 3457,797;   72,370; 7803,105;43,79178
 527,23; 3425,107;   46,262; 7840,596;43,35001
 527,82; 3469,572;   37,967; 7905,978;43,61465
 528,41; 3451,341;   67,366; 8041,021;42,43944
 528,99; 3476,400;   66,365; 8108,167;42,40388
 529,58; 3434,685;   42,562; 8168,736;41,74317
 530,16; 3421,454;   49,461; 8315,379;40,79393
 530,75; 3472,191;   73,964; 8417,069;40,73096
 531,33; 3413,763;   45,566; 8440,980;40,11948
 531,92; 3489,057;   48,560; 8567,344;40,38718
 532,50; 3562,509;   87,770; 8706,468;40,31629
 533,09; 3632,288;   65,665; 8807,204;40,80085
 533,67; 3714,451;   63,458; 8952,011;41,07522
 534,26; 3847,491;   65,760; 9007,665;42,29223
 534,84; 4028,110;   68,461; 9127,061;43,71149
 535,42; 4218,391;   61,564; 9205,969;45,45760
 536,01; 4389,250;   79,263; 9330,215;46,58967
 536,59; 4655,697;   43,366; 9482,202;48,86547
 537,18; 4882,770;   77,360; 9568,605;50,62992
 537,76; 5109,115;   56,972; 9764,700;52,04249
 538,35; 5353,025;   59,368; 9892,694;53,83384
 538,93; 5570,013;   72,664; 9941,828;55,70227
 539,52; 5718,197;   57,370;10111,405;56,30403
 540,10; 5935,522;   63,269;10309,029;57,31398
 540,69; 6106,182;   68,763;10444,071;58,19026
 541,27; 6236,441;   58,262;10514,917;59,08370
 541,85; 6383,753;   47,366;10658,783;59,71292
 542,44; 6441,435;   56,460;10765,484;59,62238
 543,02; 6617,522;   80,369;10952,729;60,12634
 543,61; 6679,150;   77,067;11102,218;59,88202
 544,19; 6780,631;   55,066;11264,023;60,00170
 544,78; 6864,919;   62,766;11296,562;60,55080
 545,36; 6982,978;   77,469;11521,011;60,34416
 545,94; 6997,491;   54,564;11563,069;60,32866
 546,53; 7041,872;   52,771;11724,882;59,87863
 547,11; 7191,291;   90,668;11879,873;60,22987
 547,70; 7185,969;   75,860;11954,706;59,85522
 548,28; 7231,900;   47,965;12093,066;59,64197
 548,86; 7356,000;   81,365;12327,767;59,40223
 549,45; 7400,647;   33,768;12364,953;59,74186
 550,03; 7482,994;   76,467;12507,537;59,58076
 550,62; 7575,475;   63,566;12662,842;59,62175
 551,20; 7644,650;   61,467;12808,418;59,49017
 551,78; 7635,047;   61,164;12952,850;58,75014
 552,37; 7736,891;   55,864;13112,469;58,82867
 552,95; 7806,157;   56,765;13214,547;58,89588
 553,54; 7962,778;   49,965;13393,207;59,30203
 554,12; 7984,316;   67,167;13498,797;58,94407
 554,70; 8119,291;   67,568;13736,973;58,90324
 555,29; 8169,344;   61,965;13856,285;58,77331
 555,87; 8274,853;   60,170;13987,786;58,98125
 556,45; 8355,220;   57,162;14154,058;58,86443
 557,04; 8440,706;   43,667;14376,600;58,58563
 557,62; 8493,307;   68,867;14525,499;58,27388
 558,20; 8567,294;   42,671;14799,940;57,76558
 558,79; 8725,481;  100,368;14905,875;58,25612
 559,37; 8763,550;   49,867;15000,418;58,28336
 559,95; 8815,935;   46,669;15169,691;57,98620
 560,54; 8988,869;   71,768;15324,613;58,46189
 561,12; 9041,619;   50,866;15485,562;58,25028
 561,70; 9107,057;   50,369;15679,551;57,94729
 562,29; 9227,325;   61,768;15810,994;58,19687
 562,87; 9366,547;   73,168;16023,953;58,26283
 563,45; 9433,146;   71,068;16194,754;58,06413
 564,04; 9447,507;   54,362;16227,195;58,07977
 564,62; 9595,912;   37,769;16438,332;58,27936
 565,20; 9651,876;   59,962;16715,838;57,58877
 565,78; 9772,022;   70,765;16797,326;57,99912
 566,37; 9806,253;   71,066;17011,283;57,46790
 566,95; 9834,322;   52,969;17124,330;57,29686
 567,53; 9960,520;   67,262;17308,857;57,38017
 568,12; 9969,200;   62,265;17367,766;57,24732
 568,70;10180,535;   85,264;17565,889;57,75120
 569,28;10250,557;   61,069;17745,252;57,61922
 569,86;10305,128;   67,767;17910,758;57,37469
 570,45;10411,244;   78,569;18124,689;57,25704
 571,03;10415,897;   53,962;18259,898;56,91515
 571,61;10522,841;   46,571;18424,824;57,00362
 572,19;10597,772;   54,263;18395,773;57,48441
 572,78;10688,682;   70,668;18668,975;57,09129
 573,36;10752,091;   84,264;18797,668;57,00634
 573,94;10873,547;   44,064;18892,750;57,45484
 574,52;10813,682;   54,559;19030,768;56,69796
 575,11;10965,604;   37,264;19159,830;57,14892
 575,69;11015,362;   53,566;19268,680;57,04778
 576,27;11069,244;   47,161;19391,381;56,97869
 576,85;11141,091;   43,264;19549,668;56,89325
 577,44;11208,720;   30,262;19814,158;56,50281
 578,02;11159,626;   32,159;19753,887;56,42237
 578,60;11309,426;   50,464;20073,791;56,22923
 579,18;11479,838;   51,963;20160,752;56,83025
 579,76;11497,213;   40,264;20300,129;56,54998
 580,35;11646,888;   60,170;20436,707;56,86304
 580,93;11689,638;   59,667;20641,557;56,50584
 581,51;11697,109;   24,770;20697,168;56,46340
 582,09;11778,229;   58,663;20755,756;56,62421
 582,67;11823,450;   49,567;20971,318;56,27580
 583,26;11997,169;   28,568;21227,014;56,45980
 583,84;12030,669;   14,164;21413,709;56,15309
 584,42;12111,335;   48,064;21513,287;56,19914
 585,00;12328,563;   81,366;21772,180;56,46260
 585,58;12328,206;   25,167;21912,299;56,21129
 586,17;12388,522;   46,761;21948,521;56,35055
 586,75;12339,897;    6,666;22026,902;56,00862
 587,33;12563,072;   47,767;22191,678;56,51804
 587,91;12629,297;   74,866;22390,201;56,25921
 588,49;12597,220;   63,962;22349,758;56,23877
 589,07;12665,060;   45,468;22403,215;56,44393
 589,65;12627,585;   28,267;22444,439;56,20638
 590,24;12673,298;   42,562;22447,799;56,37403
 590,82;12686,110;   28,261;22484,160;56,36759
 591,40;12741,569;   41,464;22520,209;56,49828
 591,98;12728,904;   45,759;22558,227;56,33832
 592,56;12821,710;   61,161;22699,961;56,36584
 593,14;12775,104;   43,359;22728,928;56,12266
 593,72;12898,379;   29,765;22889,107;56,29477
 594,30;12903,226;   36,759;22797,486;56,52924
 594,89;12868,913;   41,364;22862,428;56,20925
 595,47;12928,522;   38,961;22922,623;56,32648
 596,05;12919,507;   30,267;23003,799;56,10474
 596,63;12981,007;   31,167;23056,199;56,24244
 597,21;12975,976;   36,766;23145,441;55,99287
 597,79;12903,284;   35,467;23166,039;55,63121
 598,37;12905,365;   36,669;23222,748;55,50182
 598,95;12938,697;   50,766;23305,301;55,42115
 599,53;12825,988;   46,757;23207,996;55,17508
 600,11;12840,656;   48,665;23341,947;54,91708
 600,70;12703,560;   57,363;23315,111;54,37412
 601,28;12620,969;   38,564;23424,809;53,80259
 601,86;12534,197;   61,766;23355,102;53,54506
 602,44;12407,310;   23,661;23449,660;52,86284
 603,02;12376,514;   38,656;23576,521;52,41706
 603,60;12243,485;   54,858;23663,232;51,62841
 604,18;11979,194;   69,263;23594,734;50,62569
 604,76;11776,328;   59,263;23642,154;49,68460
 605,34;11376,609;   27,565;23530,764;48,28723
 605,92;11075,432;   59,561;23453,719;47,08813
 606,50;10796,798;   17,662;23498,998;45,90512
 607,08;10468,763;   31,666;23394,881;44,67320
 607,66;10262,675;   39,266;23561,643;43,46248
 608,24;10062,628;   46,067;23522,059;42,66725
 608,82; 9795,804;   26,164;23532,031;41,56256
 609,40; 9615,440;   46,466;23471,021;40,85019
 609,98; 9534,213;   18,864;23505,928;40,51315
 610,56; 9530,801;   43,861;23497,662;40,44948
 611,14; 9696,044;   30,765;23481,086;41,21598
 611,72; 9804,601;   42,665;23572,467;41,48754
 612,30; 9999,207;   24,962;23468,496;42,54582
 612,88;10222,194;   60,659;23517,730;43,31971
 613,46;10432,697;   21,862;23505,697;44,33192
 614,04;10719,091;   30,068;23461,873;45,61758
 614,62;10928,145;   41,561;23489,982;46,42779
 615,20;11081,659;   52,768;23402,416;47,23365
 615,78;11230,722;   25,569;23463,430;47,80792
 616,36;11370,348;   41,364;23400,150;48,49988
 616,94;11439,075;    7,666;23272,242;49,13655
 617,52;11451,037;   24,067;23373,656;48,93863
 618,10;11520,860;   63,559;23336,107;49,23097
 618,68;11491,554;   17,966;23253,184;49,38016
 619,26;11506,604;   39,268;23398,834;49,09053
 619,84;11397,594;   18,963;23277,133;48,92316
 620,42;11349,578;   31,165;23313,506;48,61373
 621,00;11223,278;   28,865;23209,607;48,29187
 621,58;11121,169;   38,760;23216,406;47,81508
 622,16;11024,118;   49,270;23335,164;47,13088
 622,74;10951,075;   47,066;23327,742;46,83717
 623,32;10743,731;   42,166;23291,223;46,03011
 623,90;10713,263;   66,971;23311,484;45,80131
 624,48;10517,897;   32,662;23196,598;45,26535
 625,05;10410,897;   34,562;23105,098;44,97657
 625,63;10327,197;   52,962;23188,799;44,40832
 626,21;10213,507;   38,262;23117,596;44,08812
 626,79;10228,150;   53,967;23219,719;43,91907
 627,37;10078,642;   28,162;23090,717;43,57921
 627,95;10127,760;   72,768;23200,215;43,47645
 628,53;10042,578;   49,365;23176,607;43,20971
 629,11; 9958,238;   48,259;23043,449;43,09588
 629,69;10023,213;   53,369;23256,932;42,96687
 630,27;10028,594;   80,763;23105,434;43,20509
 630,84; 9992,697;   43,862;23021,197;43,29847
 631,42;10069,638;   54,367;23319,656;43,04812
 632,00;10054,482;   45,459;23125,768;43,36607
 632,58;10053,582;   50,263;23105,172;43,38911
 633,16;10100,196;   49,870;23096,906;43,60789
 633,74;10094,435;   56,264;23018,488;43,71602
 634,32;10040,966;   45,661;23007,842;43,52942
 634,90;10128,175;   51,970;23195,746;43,53743
 635,47; 9977,356;   38,860;23035,645;43,21690
 636,05;10033,866;   37,461;22989,342;43,55375
 636,63;10035,778;   45,965;23104,807;43,32314
 637,21;10100,913;   67,464;23150,529;43,46671
 637,79;10141,588;   71,465;23192,904;43,55318
 638,37;10155,326;   54,055;23070,883;43,88646
 638,94;10119,244;   33,265;23100,686;43,72391
 639,52;10198,344;   41,665;23195,285;43,86648
 640,10;10286,572;   64,264;23215,900;44,15372
 640,68;10288,737;   54,164;23175,334;44,26495
 641,26;10335,202;   35,864;23250,268;44,36615
 641,84;10418,367;   39,164;23235,002;44,74597
 642,41;10423,433;   28,264;23192,936;44,87510
 642,99;10444,698;   48,464;23145,568;45,01099
 643,57;10480,663;   22,064;23158,402;45,20421
 644,15;10502,428;   27,064;23178,035;45,24805
 644,73;10592,193;   37,564;23277,568;45,41578
 645,30;10556,259;   55,264;23230,303;45,31166
 645,88;10589,623;   44,964;23362,635;45,22175
 646,46;10615,488;   59,264;23447,568;45,13463
 647,04;10560,854;   51,864;23367,902;45,07193
 647,61;10531,519;   46,564;23396,336;44,90388
 648,19;10515,784;   61,664;23433,369;44,72981
 648,77;10423,649;   26,264;23442,002;44,40341
 649,35;10467,614;   51,064;23590,137;44,25217
 649,92;10315,779;   42,464;23596,070;43,61674
 650,50;10250,244;   30,064;23551,104;43,45123
 651,08;10207,410;   39,964;23450,537;43,43100
 651,66;10204,675;   21,864;23534,770;43,30733
 652,23;10161,740;   39,064;23561,004;43,03504
 652,81;10173,505;   36,464;23644,137;42,93960
 653,39;10186,370;   56,164;23647,170;42,94097
 653,97;10266,735;   37,065;23882,504;42,89990
 654,54;10202,400;   23,565;23823,137;42,76899
 655,12;10299,166;   30,965;23831,971;43,14188
 655,70;10394,831;   42,065;23962,805;43,27946
 656,28;10464,296;   32,765;23947,037;43,62053
 656,85;10564,261;   44,065;24051,070;43,82136
 657,43;10491,626;   -1,035;23831,305;44,02699
 658,01;10654,392;   21,465;24078,539;44,19875
 658,58;10841,856;   55,165;24234,371;44,61144
 659,16;10782,021;   51,965;24154,105;44,51910
 659,74;10964,387;   59,465;24338,039;44,91583
 660,32;11049,752;   71,665;24327,672;45,25925
 660,89;11112,017;   34,265;24347,305;45,56301
 661,47;11237,982;   51,665;24464,939;45,82064
 662,05;11236,547;   25,365;24587,373;45,64440
 662,62;11347,513;   59,665;24584,006;46,02712
 663,20;11426,378;   80,665;24740,139;46,00955
 663,78;11526,643;   47,965;24902,773;46,18293
 664,35;11530,008;   52,465;24921,006;46,15286
 664,93;11546,673;   64,465;25123,539;45,82056
 665,51;11625,938;   49,565;25170,973;46,08171
 666,08;11603,403;   30,165;25185,707;46,00671
 666,66;11800,969;   47,465;25667,539;45,87615
 667,23;11764,934;   51,765;25732,773;45,61024
 667,81;11927,499;   65,865;25889,307;45,93359
 668,39;11906,464;   43,265;26047,141;45,62089
 668,96;12115,729;   54,665;26309,074;45,93919
 669,54;12134,194;   38,765;26408,408;45,86876
 670,12;12300,560;   51,165;26808,740;45,77916
 670,69;12380,725;   64,165;26950,674;45,80944
 671,27;12479,090;   25,565;27096,008;46,00414
 671,84;12552,555;   40,665;27105,240;46,22976
 672,42;12710,420;   66,265;27253,875;46,50705
 673,00;12824,185;   57,165;27531,408;46,46905
 673,57;12855,750;   59,965;27276,441;47,01485
 674,15;12985,615;   64,065;27613,475;46,90318
 674,72;12922,080;   58,565;27536,209;46,81448
 675,30;13097,646;   69,466;27513,541;47,47174
 675,88;13178,211;   36,266;27573,176;47,72484
 676,45;13243,575;   59,466;27677,309;47,73765
 677,03;13213,241;   67,866;27525,043;47,87592
 677,60;13230,506;   41,466;27770,576;47,56388
 678,18;13378,371;   59,466;27877,510;47,87866
 678,76;13349,536;   40,766;27809,143;47,92779
 679,33;13392,102;   57,666;27813,176;48,04248
 679,91;13310,866;   44,266;27813,311;47,77478
 680,48;13380,632;   28,766;27740,242;48,18172
 681,06;13355,696;   50,866;27735,176;48,05910
 681,63;13316,662;   37,566;27736,209;47,94132
 682,21;13333,227;   67,966;27797,543;47,83795
 682,78;13135,092;   20,566;27459,576;47,79519
 683,36;13272,857;   46,966;27565,510;48,06174
 683,93;13268,622;   30,466;27450,645;48,27888
 684,51;13253,787;   26,166;27477,277;48,18610
 685,08;13367,553;   38,966;27733,711;48,12677
 685,66;13383,018;   53,066;27694,045;48,22532
 686,24;13382,183;   33,766;27796,578;48,08020
 686,81;13512,248;   57,666;27899,910;48,32434
 687,39;13543,613;   38,866;27807,844;48,63250
 687,96;13591,278;   54,166;27850,479;48,70111
 688,54;13748,844;   30,866;27984,811;49,07350
 689,11;13772,209;   26,966;28043,545;49,06110
 689,69;13850,974;   29,666;28019,279;49,38013
 690,26;14019,539;   59,466;28289,313;49,45147
 690,84;14052,504;   50,066;28239,846;49,67204
 691,41;14177,869;   35,966;28403,879;49,85176
 691,98;14210,435;   31,466;28427,912;49,93219
 692,56;14380,399;   32,866;28437,445;50,51134
 693,13;14499,265;   64,866;28655,080;50,48720
 693,71;14523,430;   24,466;28657,912;50,63646
 694,28;14582,495;   41,966;28715,945;50,70984
 694,86;14677,360;   47,266;28928,879;50,65539
 695,43;14731,425;   61,366;29100,912;50,51752
 696,01;14781,090;   36,266;29145,547;50,65334
 696,58;14844,755;   42,167;29083,879;50,97009
 697,16;14872,120;   38,067;29126,414;50,99655
 697,73;15013,785;   63,467;29338,246;51,06894
 698,30;14966,551;   51,867;29223,980;51,12651
 698,88;15050,616;   40,467;29558,613;50,85058
 699,45;15096,181;   35,367;29765,848;50,65782
 700,03;15152,946;   56,067;29750,980;50,83995
 700,60;15109,512;   56,267;29850,613;50,52383
 701,18;15318,276;   61,867;29963,947;51,02123
 701,75;15407,542;   74,367;30094,682;51,07600
 702,32;15378,106;   50,367;29901,914;51,34655
 702,90;15565,771;   52,467;30254,148;51,36570
 703,47;15650,237;   51,367;30428,881;51,35006
 704,05;15722,302;   67,767;30546,715;51,36180
 704,62;15730,967;   39,867;30587,848;51,36542
 705,19;15822,232;   43,667;30586,982;51,65964
 705,77;15959,798;   29,967;30618,314;52,07810
 706,34;16053,063;   61,667;30627,049;52,31865
 706,91;16141,428;   46,367;30673,883;52,55098
 707,49;16374,693;   57,267;30976,316;52,77467
 708,06;16411,658;   66,367;31089,049;52,68820
 708,64;16392,924;   25,767;31093,582;52,68203
 709,21;16570,789;   58,167;31179,316;53,05916
 709,78;16647,754;   41,367;31281,150;53,15782
 710,36;16749,020;   61,667;31419,684;53,21559
 710,93;16883,383;   50,567;31562,416;53,41742
 711,50;16983,350;   44,467;31506,049;53,83989
 712,08;17116,113;   76,567;31925,383;53,50135
 712,65;17103,580;   73,667;31775,916;53,71831
 713,22;17034,943;   69,067;31900,250;53,29955
 713,80;17244,410;   84,167;31966,883;53,82303
 714,37;17141,775;   55,767;31827,018;53,77820
 714,94;17034,439;   53,967;31727,551;53,61083
 715,52;17108,605;   47,867;31732,984;53,84464
 716,09;17141,070;   65,467;31891,918;53,65224
 716,66;17172,635;   73,467;31935,051;53,66704
 717,23;17211,500;   66,867;31908,484;53,84347
 717,81;17127,564;   50,168;31812,018;53,76701
 718,38;17047,531;   47,468;31671,252;53,75721
 718,95;17067,396;   59,068;31618,984;53,89219
 719,53;17208,361;   56,568;31661,418;54,26950
 720,10;17164,727;   59,968;31481,252;54,43685
 720,67;17033,092;   35,768;31355,984;54,26950
 721,24;17003,656;   59,468;31256,020;54,31430
 721,82;17002,521;   49,968;31236,053;54,35935
 722,39;17162,787;   64,068;31235,885;54,85314
 722,96;17168,852;   64,968;31261,420;54,82637
 723,53;17255,018;   88,268;31151,953;55,26308
 724,11;17440,281;   61,568;31207,486;55,79772
 724,68;17415,447;   71,568;31242,020;55,64205
 725,25;17502,213;   72,768;31399,953;55,63681
 725,82;17713,877;   96,068;31564,387;55,98586
 726,40;17739,441;   62,668;31714,820;55,84699
 726,97;17808,607;   62,168;31875,354;55,78328
 727,54;17845,973;   46,968;31801,486;56,05188
 728,11;17960,338;   49,568;32045,820;55,97771
 728,69;17923,703;   39,568;31938,953;56,06420
 729,26;17939,268;   53,568;32105,088;55,80297
 729,83;18081,434;   53,268;32264,621;55,96836
 730,40;18189,898;   66,768;32291,754;56,23937
 730,97;18264,363;   44,268;32590,588;55,98204
 731,55;18278,229;   41,468;32755,820;55,74544
 732,12;18396,193;   86,268;32841,656;55,89897
 732,69;18381,658;   66,968;32889,988;55,79831
 733,26;18439,225;   55,168;32930,520;55,92049
 733,83;18470,889;   41,168;32979,055;55,95295
 734,41;18606,455;   65,468;32991,590;56,31087
 734,98;18582,420;   51,368;33155,621;55,97786
 735,55;18591,584;   43,168;33183,656;55,96905
 736,12;18638,350;   65,968;33377,289;55,75396
 736,69;18751,414;   76,968;33377,922;56,07781
 737,26;18929,779;   57,468;33552,254;56,34403
 737,84;18960,045;   70,768;33487,188;56,52693
 738,41;18929,910;   63,168;33492,422;56,43782
 738,98;18941,375;   63,569;33375,055;56,67056
 739,55;19000,840;   49,669;33377,789;56,86241
 740,12;19032,805;   62,969;33678,023;56,43256
 740,69;19083,271;   70,569;33575,656;56,74572
 741,26;19141,535;   56,269;33557,391;56,96904
 741,83;19125,002;   53,869;33719,523;56,64863
 742,41;19261,865;   56,169;33833,055;56,86047
 742,98;19375,432;   91,469;33874,590;57,08165
 743,55;19466,596;   53,569;33836,824;57,46346
 744,12;19384,361;   50,469;33859,855;57,18498
 744,69;19455,326;   59,569;33848,492;57,40271
 745,26;19392,791;   42,169;33677,723;57,53026
 745,83;19431,758;   58,769;33854,355;57,32402
 746,40;19405,723;   57,969;33844,789;57,26420
 746,97;19349,486;   44,769;33828,125;57,14269
 747,55;19316,752;   62,269;33966,957;56,79003
 748,12;19363,518;   57,869;33910,191;57,02902
 748,69;19264,383;   68,769;33877,625;56,77688
 749,26;19309,348;   65,069;33958,559;56,77869
 749,83;19344,613;   42,569;33911,992;56,98959
 750,40;19360,379;   89,669;34158,824;56,56351
 750,97;19403,643;   96,269;34144,160;56,70652
 751,54;19374,209;   40,569;33980,793;56,96380
 752,11;19272,674;   52,969;33874,727;56,82645
 752,68;19196,439;   87,869;33912,859;56,49246
 753,25;19190,504;   60,269;33774,594;56,74216
 753,82;19207,168;   65,069;33810,527;56,72496
 754,39;19196,734;   75,169;33727,160;56,82150
 754,96;19148,799;   60,069;33616,395;56,88564
 755,53;19248,764;   29,469;33796,527;56,91729
 756,10;19296,529;   64,169;33720,961;57,14258
 756,67;19276,094;   73,369;33813,395;56,91378
 757,24;19244,561;   72,769;33740,426;56,94424
 757,81;19216,725;   16,469;33677,762;57,03957
 758,38;19327,189;   54,569;33822,695;57,07341
 758,95;19328,455;   79,469;33743,426;57,17981
 759,52;19360,420;   57,469;33615,859;57,52049
 760,09;19320,785;   68,570;33306,992;57,92157
 760,66;19129,451;   59,570;33309,727;57,35276
 761,23;19197,215;   91,070;33353,961;57,43982
 761,80;19141,182;   56,270;33295,793;57,41632
 762,37;19149,746;   68,970;33167,727;57,64802
 762,94;19204,910;   70,970;33187,461;57,77768
 763,51;19098,275;   36,070;32949,793;57,91568
 764,08;18953,641;   66,270;32998,527;57,35219
 764,65;18995,406;   69,570;32798,961;57,82520
 765,22;18899,771;   54,670;32804,496;57,54260
 765,79;18912,736;   77,370;32691,928;57,75141
 766,36;18831,803;   73,170;32743,063;57,41872
 766,93;18938,268;   68,970;32551,295;58,09097
 767,50;18844,732;   89,470;32828,328;57,28747
 768,07;18844,697;   63,870;32699,262;57,54742
 768,64;18619,563;   86,470;32572,596;57,04925
 769,21;18437,527;   57,970;32359,729;56,89956
 769,78;18408,893;   78,770;32244,963;56,98568
 770,34;18257,758;   45,570;32031,195;56,93866
 770,91;18326,322;   58,470;31921,430;57,33257
 771,48;18210,389;   62,370;31836,863;57,11505
 772,05;18121,854;   66,470;31610,697;57,23831
 772,62;18069,219;   42,670;31443,029;57,40873
 773,19;18056,482;   59,370;31579,764;57,09672
 773,76;18044,148;   71,070;31506,297;57,17496
 774,33;17873,814;   74,170;31447,330;56,73526
 774,90;17782,180;   52,870;31206,064;56,91009
 775,47;17893,443;   59,970;30957,498;57,71812
 776,03;17849,510;   73,470;30984,330;57,50742
 776,60;17690,574;   55,970;30757,863;57,43816
 777,17;17740,840;   65,470;30698,098;57,70112
 777,74;17559,904;   30,870;30522,031;57,48890
 778,31;17558,770;   68,970;30582,064;57,31900
 778,88;17369,334;   30,470;30366,898;57,15526
 779,45;17294,699;   75,770;30358,131;56,86125
 780,01;17364,465;   58,370;30299,664;57,22670
 780,58;17231,830;   60,570;30177,998;57,01436
 781,15;17031,295;   38,771;29979,432;56,75401
 781,72;17076,861;   66,771;29962,266;56,89851
 782,29;16978,725;   51,771;29667,100;57,15606
 782,86;16841,590;   55,571;29617,732;56,78211
 783,42;16675,057;   56,171;29598,166;56,25512
 783,99;16594,621;   66,671;29482,100;56,18803
 784,56;16478,285;   55,171;29320,232;56,11850
 785,13;16463,352;   40,271;29247,266;56,22996
 785,70;16244,416;   49,071;29060,299;55,82440
 786,26;16187,682;   51,671;28910,732;55,91315
 786,83;16052,446;   84,371;28889,166;55,43548
 787,40;15982,412;   57,171;28783,500;55,43779
 787,97;16022,277;   43,971;28581,133;55,99122
 788,54;16061,942;   70,371;28515,268;56,21947
 789,10;16017,707;   57,971;28344,400;56,42188
 789,67;15857,572;   70,371;28245,334;56,03273
 790,24;15825,037;   51,071;28193,768;56,04995
 790,81;15610,503;   88,271;27914,400;55,78294
 791,37;15601,868;   73,671;27872,135;55,85991
 791,94;15644,033;   70,771;27886,367;55,98752
 792,51;15488,598;   46,271;27539,201;56,16836
 793,08;15479,863;   69,771;27555,234;56,06634
 793,64;15365,828;   71,271;27455,168;55,85238
 794,21;15268,094;   69,671;27250,602;55,91576
 794,78;15261,658;   53,071;27147,035;56,13275
 795,35;15140,724;   73,471;27007,969;55,94035
 795,91;15198,489;   48,071;26789,301;56,65565
 796,48;14932,254;   55,771;26710,734;55,81130
 797,05;14904,519;   57,671;26624,369;55,88518
 797,62;14897,584;   41,971;26600,701;55,93495
 798,18;14728,149;   57,471;26410,736;55,66930
 798,75;14531,814;   56,571;26279,770;55,20014
 799,32;14616,180;   60,771;26209,102;55,66477
 799,88;14489,345;   55,971;26051,535;55,52245
 800,45;14443,609;   33,971;25945,270;55,61141
 801,02;14378,775;   65,271;25880,104;55,44682
 801,58;14256,640;   90,872;25660,436;55,40090
 802,15;14168,905;   72,872;25615,270;55,18681
 802,72;13992,971;   66,172;25404,703;54,96293
 803,28;13958,936;   49,172;25288,938;55,11051
 803,85;13950,301;   41,972;25144,871;55,40527
 804,42;13789,266;   77,772;24948,004;55,13215
 804,98;13875,631;  100,672;24935,537;55,46621
 805,55;13760,396;   56,972;24702,371;55,60236
 806,12;13710,861;   83,572;24611,004;55,55938
 806,68;13660,826;   66,472;24493,738;55,65238
 807,25;13671,191;   74,972;24436,271;55,81073
 807,82;13712,957;   86,872;24407,805;56,02616
 808,38;13587,321;   73,672;24367,037;55,62691
 808,95;13505,787;   62,972;24166,971;55,77006
 809,52;13543,852;   50,272;24162,004;55,96271
 810,08;13514,617;   55,172;23994,938;56,22213
 810,65;13558,282;   77,172;24169,672;55,95563
 811,21;13546,548;   69,972;24123,404;56,02766
 811,78;13581,112;   92,472;24337,539;55,63458
 812,35;13502,978;   64,972;24173,871;55,73878
 812,91;13541,043;   90,072;24239,705;55,69845
 813,48;13567,108;   68,172;24202,738;55,93196
 814,04;13428,673;   64,172;24088,373;55,62932
 814,61;13428,738;   77,572;24176,006;55,40263
 815,18;13197,304;   67,772;23892,539;55,10875
 815,74;13274,469;   69,772;23709,172;55,85885
 816,31;13144,233;   83,372;23614,406;55,50483
 816,87;13011,398;   43,272;23489,641;55,30974
 817,44;12963,063;   76,972;23452,273;55,12695
 818,00;12833,729;   43,272;23159,506;55,33106
 818,57;12729,694;   71,872;23076,340;55,02332
 819,14;12664,560;   82,872;22924,273;55,08282
 819,70;12632,425;   72,672;22792,707;55,28052
 820,27;12503,790;   62,972;22691,941;54,97739
 820,83;12420,654;   70,072;22541,373;54,96158
 821,40;12354,420;   98,072;22431,908;54,87793
 821,96;12365,385;   75,272;22315,541;55,26063
 822,53;12316,650;   70,973;22257,574;55,19402
 823,09;12243,115;   81,073;22073,309;55,30153
 823,66;12234,580;   68,173;21862,541;55,82363
 824,22;12174,445;   77,173;21851,674;55,55706
 824,79;11980,711;   75,473;21561,408;55,40945
 825,35;12034,176;   65,173;21648,041;55,45604
 825,92;11933,141;   75,173;21398,875;55,60933
 826,48;11876,706;   87,673;21501,309;55,05386
 827,05;11854,771;   89,573;21448,242;55,08395
 827,61;11834,336;   75,273;21249,076;55,53590
 828,18;11623,001;   60,873;21191,209;54,71815
 828,74;11648,167;   91,673;21053,543;55,13103
 829,31;11546,432;   83,373;21002,176;54,79787
 829,87;11488,597;   73,073;20733,709;55,25253
 830,44;11411,562;   85,173;20631,443;55,12625
 831,00;11425,027;   91,273;20673,977;55,06446
 831,57;11378,092;  101,573;20631,609;54,92693
 832,13;11249,157;   72,073;20323,344;55,19201
 832,69;11214,223;   58,173;20309,477;55,08806
 833,26;11158,688;   85,473;20322,711;54,71702
 833,82;11066,053;   93,073;20197,744;54,57925
 834,39;11011,918;   78,773;20137,477;54,50574
 834,95;10928,783;   57,173;19959,410;54,62507
 835,52;10897,548;   87,873;19851,744;54,69412
 836,08;10868,913;   95,573;19951,877;54,25652
 836,64;10805,778;   76,273;19800,711;54,39701
 837,21;10711,243;   88,673;19552,443;54,57612
 837,77;10728,309;   91,873;19491,777;54,82726
 838,34;10603,273;   67,473;19470,012;54,30114
 838,90;10544,439;   64,473;19306,045;54,46523
 839,46;10610,104;   83,873;19312,479;54,74256
 840,03;10590,970;   76,173;19300,811;54,69438
 840,59;10572,935;   85,873;19175,645;54,93550
 841,16;10508,500;  105,173;19156,578;54,60661
 841,72;10457,265;   59,373;18965,512;54,99744
 842,28;10390,229;   77,873;18857,246;54,91321
 842,85;10358,895;   95,573;18812,578;54,83421
 843,41;10338,160;  105,374;18740,813;54,91036
 843,97;10281,125;   89,174;18686,846;54,80230
 844,54;10252,091;  104,774;18624,979;54,79052
 845,10;10178,355;   89,174;18523,713;54,72977
 845,67;10115,421;   68,774;18413,445;54,76602
 846,23;10063,586;   78,674;18361,080;54,61487
 846,79; 9990,051;   90,474;18265,613;54,46768
 847,36; 9772,516;   55,774;18179,047;53,61472
 847,92; 9718,381;   84,874;18034,680;53,66914
 848,48; 9769,347;   41,874;18039,213;54,04951
 849,04; 9719,212;   62,374;17949,447;53,98780
 849,61; 9752,177;   56,274;17918,580;54,28136
 850,17; 9718,941;   68,174;17819,514;54,36642
 850,73; 9628,307;   71,474;17764,848;54,01363
 851,30; 9526,072;   46,074;17669,881;53,79087
 851,86; 9470,337;   75,874;17597,914;53,61512
 852,42; 9426,502;   51,174;17568,348;53,52078
 852,99; 9445,567;   79,274;17583,082;53,51003
 853,55; 9370,532;   83,174;17542,514;53,19421
 854,11; 9303,697;   70,074;17432,049;53,18302
 854,67; 9252,563;   85,474;17420,881;52,88072
 855,24; 9264,328;   51,874;17213,414;53,68081
 855,80; 9220,493;   76,874;17244,848;53,25975
 856,36; 9140,158;   80,574;17175,881;52,99457
 856,92; 9098,923;   54,474;17027,215;53,28809
 857,49; 9155,788;   81,274;17048,248;53,48340
 858,05; 9047,754;   67,274;16968,482;53,13513
 858,61; 8994,219;   65,774;17003,316;52,71393
 859,17; 8985,884;   77,374;16904,250;52,94215
 859,74; 8915,549;   82,074;16836,883;52,72203
 860,30; 8843,714;   93,074;16663,016;52,81032
 860,86; 8844,079;   72,074;16692,350;52,77894
 861,42; 8700,544;   74,674;16545,883;52,36938
 861,99; 8664,909;   54,674;16506,717;52,33535
 862,55; 8575,774;   66,374;16393,051;52,11961
 863,11; 8619,540;   75,174;16437,283;52,22044
 863,67; 8492,405;   61,274;16290,117;51,95152
 864,23; 8425,970;   80,175;16199,351;51,77557
 864,80; 8368,436;   69,175;16081,384;51,83083
 865,36; 8411,801;   71,875;16120,817;51,96558
 865,92; 8304,365;   96,175;16088,751;51,32501
 866,48; 8249,631;   67,375;15987,384;51,39605
 867,04; 8207,695;   60,675;15891,418;51,46329
 867,60; 8155,161;   99,375;15884,451;51,03419
 868,17; 8077,826;   93,675;15884,685;50,56137
 868,73; 7989,891;   82,775;15672,618;50,71967
 869,29; 7886,356;   59,475;15470,151;50,78870
 869,85; 7967,921;  100,475;15369,685;51,52491
 870,41; 7847,287;   80,575;15293,418;51,05365
 870,97; 7830,652;   92,975;15232,252;51,10995
 871,54; 7736,717;   84,175;15178,686;50,69752
 872,10; 7705,282;   84,275;15055,419;50,90464
 872,66; 7588,047;   66,775;14910,652;50,66919
 873,22; 7503,212;   81,975;14890,586;50,11434
 873,78; 7469,677;   65,275;14742,419;50,44852
 874,34; 7407,143;   95,075;14662,652;50,19412
 874,90; 7318,842;  109,775;14536,053;49,97178
 875,46; 7292,542;   96,375;14412,952;50,26458
 876,03; 7136,842;   86,475;14363,353;49,38312
 876,59; 7101,743;   64,475;14153,253;49,94945
 877,15; 7050,243;  101,475;14166,853;49,40335
 877,71; 6965,143;   78,275;14064,652;49,23982
 878,27; 6894,143;   95,675;13910,553;49,21120
 878,83; 6881,143;  114,275;13971,753;48,83188
 879,39; 6784,842;   91,075;14082,753;47,84106
 879,95; 6752,542;   86,275;13964,253;48,03486
 880,51; 6717,743;   75,175;13927,253;47,95358
 881,07; 6768,743;   82,375;13978,753;48,11590
 881,63; 6751,342;   92,575;13971,253;47,97840
 882,19; 6662,643;   82,675;13921,553;47,54697
 882,75; 6707,743;   86,275;14019,553;47,52268
 883,31; 6726,842;   95,575;14187,853;47,05604
 883,88; 6664,342;   96,375;14174,353;46,65420
 884,44; 6636,542;   76,175;14175,753;46,52882
 885,00; 6664,542;  106,075;14266,952;46,31399
 885,56; 6710,442;  101,675;14299,452;46,54790
 886,12; 6700,942;  109,875;14421,152;46,05506
 886,68; 6672,842;   90,775;14436,753;45,88092
 887,24; 6702,042;  102,475;14574,952;45,60081
 887,80; 6683,542;   86,975;14671,753;45,22913
 888,36; 6712,643;  106,275;14715,652;45,22005
 888,92; 6755,643;   98,975;14773,353;45,36252
 889,48; 6846,042;   99,575;14973,853;45,35661
 890,04; 6819,842;   95,275;14803,053;45,72116
 890,60; 6840,342;  117,475;15014,652;45,12846
 891,16; 6817,442;   99,875;15075,853;44,85562
 891,72; 6791,442;  113,275;15058,452;44,68443
 892,28; 6684,342;  112,475;15126,053;43,77283
 892,84; 6608,942;   93,775;15039,853;43,59115
 893,39; 6616,243;  117,575;15112,952;43,33781
 893,95; 6587,942;  112,975;15044,753;43,36367
 894,51; 6417,643;   66,375;14891,253;42,84196
 895,07; 6402,743;  127,375;14906,353;42,46145
 895,63; 6196,243;   74,275;14689,952;41,88631
 896,19; 6126,842;   90,375;14601,952;41,59760
 896,75; 6063,143;  105,175;14460,152;41,50454
 897,31; 5975,842;   82,775;14295,853;41,46229
 897,87; 5886,243;   98,175;14146,853;41,20009
 898,43; 5811,942;   87,775;14075,753;40,92205
 898,99; 5705,842;  109,175;14002,753;40,28240
 899,55; 5633,942;  109,475;13940,652;39,94213
 900,11; 5512,342;  104,975;13747,553;39,63596
 900,67; 5459,542;   91,375;13658,652;39,56702
 901,22; 5383,342;  108,375;13601,952;39,09243
 901,78; 5235,643;   91,275;13560,053;38,19476
 902,34; 5223,942;  103,075;13451,152;38,36408
 902,90; 5115,243;   73,575;13350,652;37,97272
 903,46; 5058,743;   95,775;13236,353;37,76826
 904,02; 4948,143;   88,075;13091,553;37,37514
 904,58; 4884,743;   67,075;12918,152;37,48843
 905,14; 4777,842;   63,975;12874,553;36,79668
 905,70; 4702,743;   66,775;12696,053;36,70810
 906,25; 4706,743;   84,375;12708,452;36,61549
 906,81; 4597,842;   87,675;12732,152;35,66907
 907,37; 4585,643;   79,275;12616,152;35,94490
 907,93; 4540,643;   74,775;12588,152;35,68875
 908,49; 4458,542;  101,875;12497,652;35,14638
 909,05; 4399,342;   89,675;12425,553;34,93604
 909,60; 4328,143;   86,575;12340,452;34,61409
 910,16; 4213,743;   67,675;12291,853;33,91695
 910,72; 4169,143;  100,475;12207,753;33,60514
 911,28; 4116,743;   90,875;12156,053;33,36766
 911,84; 4079,242;   79,575;12106,753;33,25524
 912,39; 3986,542;   73,475;12049,353;32,67458
 912,95; 3914,042;  104,475;12001,452;32,02131
 913,51; 3898,942;   85,375;11945,253;32,15520
 914,07; 3774,643;   83,775;11813,452;31,46606
 914,63; 3700,542;   64,775;11748,053;31,11941
 915,18; 3607,242;   77,475;11617,853;30,58624
 915,74; 3502,042;   63,975;11632,652;29,71876
 916,30; 3446,542;   61,475;11588,553;29,36622
 916,86; 3446,242;   83,575;11514,652;29,41689
 917,42; 3397,643;   82,275;11425,152;29,22863
 917,97; 3276,942;   75,375;11265,452;28,61077
 918,53; 3232,942;   67,775;11196,253;28,44205
 919,09; 3206,343;   88,975;11223,753;27,99667
 919,65; 3158,643;   83,375;11083,452;27,95678
 920,20; 3062,843;   61,875;10983,053;27,47842
 920,76; 2976,843;   65,475;10849,452;26,99716
 921,32; 2969,042;   82,675;10770,952;27,00498
 921,87; 2922,042;   97,475;10670,253;26,71547
 922,43; 2838,742;   64,675;10561,353;26,42805
 922,99; 2768,343;   61,875;10406,753;26,16239
 923,55; 2735,343;   63,775;10357,353;25,95373
 924,10; 2666,442;   73,575;10282,853;25,39717
 924,66; 2608,942;   78,675;10170,152;25,07331
 925,22; 2526,643;   43,275;10093,952;24,70846
 925,77; 2502,843;   66,075; 9927,053;24,71122
 926,33; 2494,242;   90,375; 9903,253;24,49707
 926,89; 2373,242;   71,975; 9692,753;23,91976
 927,44; 2331,843;   52,175; 9580,553;23,92503
 928,00; 2291,542;   66,875; 9533,753;23,49948
 928,56; 2220,343;   80,375; 9372,253;23,03052
 929,12; 2181,942;   72,775; 9275,152;22,91981
 929,67; 2092,942;   67,575; 9091,053;22,44553
 930,23; 2032,743;   50,975; 8915,253;22,35678
 930,78; 2032,243;  100,675; 8842,553;22,09557
 931,34; 1922,443;   61,975; 8632,152;21,70862
 931,90; 1860,042;   61,675; 8494,353;21,32617
 932,45; 1763,243;   78,775; 8290,753;20,51232
 933,01; 1705,042;   52,975; 8024,453;20,72473
 933,57; 1646,343;   72,175; 7753,252;20,49410
 934,12; 1572,542;   70,475; 7399,553;20,49463
 934,68; 1434,443;   59,075; 7020,252;19,75768
 935,24; 1355,642;   67,875; 6614,752;19,66995
 935,79; 1271,843;   72,975; 6254,853;19,39326
 936,35; 1207,843;   91,375; 5812,252;19,51567
 936,90; 1100,542;   80,275; 5348,752;19,36551
 937,46; 1017,443;   72,775; 4956,953;19,34138
 938,02;  921,943;   63,375; 4549,152;19,13977
 938,57;  881,443;   73,175; 4265,053;19,28175
 939,13;  822,542;   70,575; 3986,752;19,20157
 939,68;  715,143;   57,375; 3713,452;17,99107
 940,24;  728,242;   68,775; 3504,052;19,19692
 940,79;  706,843;   91,875; 3391,052;18,64003
 941,35;  668,242;   79,675; 3217,552;18,75687
 941,91;  628,943;   71,375; 3122,252;18,27564
 942,46;  594,343;   75,075; 3063,552;17,37565
 943,02;  602,242;   65,375; 3050,752;17,98324
 943,57;  566,042;   61,275; 2982,452;17,27959
 944,13;  574,643;   67,375; 2974,452;17,44940
 944,68;  582,943;   65,975; 3041,752;17,37252
 945,24;  593,143;   82,275; 3060,052;17,15600
 945,79;  572,643;   68,775; 3104,052;16,60038
 946,35;  552,042;   51,775; 3194,752;15,91699
 946,90;  609,742;   98,575; 3283,552;16,04933
 947,46;  569,443;   52,175; 3311,052;15,87257
 948,01;  577,042;   51,575; 3390,052;15,73973
 948,57;  614,943;   86,775; 3552,952;15,23775
 949,12;  596,843;   65,875; 3613,353;14,96747
 949,68;  616,542;   76,275; 3732,653;14,77603
 950,23;  614,643;   70,075; 3833,252;14,47095
 950,79;  614,242;   75,775; 3933,452;13,95833
 951,34;  615,042;   83,275; 4070,952;13,33527
 951,90;  617,143;   57,475; 4140,853;13,70599
 952,45;  632,742;   81,075; 4292,152;13,10039
 953,01;  615,443;   65,975; 4364,252;12,78344
 953,56;  651,843;   87,975; 4500,853;12,77777
 954,12;  634,843;   42,075; 4567,553;13,09845
 954,67;  647,843;   70,875; 4720,453;12,40903
 955,23;  648,943;   61,975; 4804,553;12,37655
 955,78;  651,242;   67,175; 4882,953;12,12821
 956,33;  641,643;   58,575; 4947,252;11,92690
 956,89;  637,042;   53,475; 5038,553;11,70629
 957,44;  668,443;   53,675; 5170,752;12,01404
 958,00;  661,542;   49,475; 5238,353;11,79576
 958,55;  685,443;   70,475; 5313,953;11,72824
 959,10;  666,742;   52,375; 5370,252;11,55287
 959,66;  671,742;   74,275; 5488,752;11,03463
 960,21;  674,742;   78,475; 5567,453;10,86300
 960,77;  676,143;   54,275; 5606,152;11,20103
 961,32;  665,943;   48,375; 5663,453;10,99838
 961,87;  680,242;   79,775; 5738,752;10,61088
 962,43;  672,843;   68,975; 5780,652;10,57251
 962,98;  678,343;   76,175; 5828,652;10,46797
 963,54;  628,042;   27,075; 5820,652;10,37299
 964,09;  652,042;   56,275; 5873,953;10,24064
 964,64;  658,643;   64,975; 5901,053;10,17237
 965,20;  624,343;   44,375; 5966,652; 9,79298
 965,75;  647,643;   66,575; 5976,353; 9,83231
 966,30;  653,443;   75,275; 6068,553; 9,64693
 966,86;  634,742;   62,975; 6121,953; 9,43670
 967,41;  630,443;   81,075; 6084,453; 9,15097
 967,96;  652,143;   75,175; 6108,953; 9,56229
 968,52;  642,343;   81,775; 6126,353; 9,27389
 969,07;  609,242;   72,975; 6120,152; 8,86806
 969,62;  605,542;   77,175; 6134,953; 8,72213
 970,18;  579,843;   57,575; 6147,652; 8,57571
 970,73;  573,542;   66,475; 6203,553; 8,26236
 971,28;  600,443;   95,775; 6197,053; 8,27151
 971,84;  573,542;   55,075; 6118,752; 8,55038
 972,39;  592,443;   95,875; 6148,652; 8,20396
 972,94;  570,343;   54,975; 6140,652; 8,46853
 973,49;  551,742;   64,575; 6141,252; 8,01700
 974,05;  568,643;   64,375; 6178,053; 8,24819
 974,60;  561,443;   88,575; 6213,252; 7,72069
 975,15;  563,542;   77,675; 6231,553; 7,89531
 975,71;  545,542;   62,375; 6121,453; 7,97427
 976,26;  559,943;   77,575; 6110,252; 7,99591
 976,81;  555,242;   90,675; 6134,152; 7,68709
 977,36;  549,643;   84,775; 6156,953; 7,65570
 977,92;  543,542;   90,175; 6209,353; 7,40896
 978,47;  531,343;   77,175; 6060,252; 7,59087
 979,02;  533,742;   95,475; 6085,652; 7,31644
 979,57;  530,542;   86,775; 6058,453; 7,43120
 980,13;  530,643;   76,175; 6038,752; 7,62200
 980,68;  526,343;   77,075; 6010,553; 7,57174
 981,23;  524,143;   89,175; 6054,652; 7,29141
 981,78;  511,342;   82,075; 5974,152; 7,28550
 982,33;  516,843;   79,275; 5893,252; 7,52613
 982,89;  498,842;   94,375; 5938,152; 6,92134
 983,44;  481,642;   65,675; 5935,853; 7,08611
 983,99;  506,642;  104,775; 5949,453; 6,87579
 984,54;  494,443;   81,475; 5900,053; 7,09740
 985,09;  492,242;   87,275; 5873,752; 6,99851
 985,65;  463,543;   69,375; 5811,853; 6,86407
 986,20;  484,342;  106,575; 5791,152; 6,64548
 986,75;  495,642;   95,875; 5823,953; 6,97909
 987,30;  475,142;   97,175; 5726,053; 6,71479
 987,85;  458,642;   92,475; 5721,353; 6,50516
 988,40;  472,443;   96,675; 5693,953; 6,71340
 988,96;  459,443;  114,875; 5666,553; 6,20655
 989,51;  461,842;  108,875; 5644,053; 6,37681
 990,06;  471,742;  128,275; 5680,853; 6,18573
 990,61;  435,242;   93,575; 5569,053; 6,23996
 991,16;  466,242;  104,375; 5558,053; 6,63529
 991,71;  424,742;   79,875; 5505,853; 6,35586
 992,26;  434,242;   93,475; 5457,252; 6,35313
 992,81;  415,142;   75,075; 5427,053; 6,35405
 993,37;  440,543;  113,475; 5390,553; 6,19789
 993,92;  427,842;  108,375; 5368,953; 6,07286
 994,47;  438,443;  117,475; 5329,652; 6,15803
 995,02;  430,043;  118,475; 5313,252; 5,99771
 995,57;  409,443;   90,875; 5274,652; 6,14547
 996,12;  460,543;  133,575; 5247,553; 6,39360
 996,67;  437,742;  132,375; 5191,652; 6,03579
 997,22;  417,543;   99,875; 5128,652; 6,31699
 997,77;  436,043;  115,275; 5110,553; 6,42141
 998,32;  410,842;  103,775; 5015,652; 6,25153
 998,87;  426,142;  114,275; 5018,752; 6,35883
 999,42;  412,342;  101,675; 4972,553; 6,37806
 999,97;  394,242;  109,975; 4956,353; 5,86557
1000,53;  424,142;  123,475; 4993,752; 6,17352
1001,08;  383,242;   98,375; 4879,053; 5,95873
1001,63;  422,342;  144,475; 4878,053; 5,87014
1002,18;  355,642;   85,075; 4777,453; 5,76611
1002,73;  418,943;  131,375; 4813,853; 6,14135
1003,28;  387,742;  103,575; 4811,953; 6,03536
1003,83;  389,543;  119,075; 4691,752; 5,91486
1004,38;  415,742;  137,775; 4703,152; 6,08860
1004,93;  384,043;  114,375; 4680,953; 5,90524
1005,48;  365,742;  104,075; 4573,053; 5,85520
1006,03;  356,943;  112,775; 4525,652; 5,53307
1006,58;  370,043;  111,475; 4486,553; 5,91001
1007,13;  340,642;   94,475; 4466,252; 5,63083
1007,68;  357,342;  104,975; 4462,453; 5,79160
1008,23;  363,642;  114,575; 4425,853; 5,77712
1008,78;  362,842;  107,375; 4384,152; 5,97336
1009,33;  355,842;  121,875; 4307,752; 5,58945
1009,88;  326,842;   84,775; 4329,553; 5,70271
1010,43;  358,242;  118,875; 4320,752; 5,69668
1010,98;  330,342;  100,675; 4310,053; 5,45609
1011,52;  349,642;   97,075; 4264,953; 6,05986
1012,07;  383,742;  144,475; 4319,252; 5,73126
1012,62;  329,543;  103,875; 4259,152; 5,43087
1013,17;  330,842;   97,175; 4172,053; 5,73434
1013,72;  322,043;   94,575; 4143,453; 5,61804
1014,27;  333,043;  100,275; 4105,853; 5,81108
1014,82;  315,242;   86,875; 4042,952; 5,77257
1015,37;  303,742;   84,375; 3964,853; 5,65311
1015,92;  332,043;  109,475; 3894,252; 5,88060
1016,47;  297,543;   90,275; 3819,452; 5,55800
1017,02;  285,242;   81,075; 3732,153; 5,59198
1017,57;  304,943;   96,475; 3718,853; 5,75499
1018,11;  287,142;   77,275; 3656,252; 5,86390
1018,66;  319,943;  120,175; 3636,552; 5,68106
1019,21;  294,043;  109,675; 3579,552; 5,31337
1019,76;  263,943;   77,675; 3497,353; 5,44693
1020,31;  269,142;   71,975; 3446,452; 5,84290
1020,86;  291,943;   96,175; 3448,052; 5,84053
1021,41;  271,443;   80,175; 3387,052; 5,78393
1021,96;  269,342;   83,675; 3385,853; 5,62258
1022,50;  298,943;  105,975; 3332,952; 5,97982
1023,05;  272,842;   94,675; 3288,052; 5,57928
1023,60;  264,142;   97,975; 3251,353; 5,26951
1024,15;  262,043;   81,075; 3184,853; 5,83056
1024,70;  287,943;   95,075; 3176,252; 6,25954
1025,25;  262,342;   81,175; 3127,452; 5,94718
1025,79;  283,242;  101,175; 3110,752; 6,04960
1026,34;  260,642;   83,475; 3044,653; 5,98301
1026,89;  265,742;  102,175; 3039,052; 5,56944
1027,44;  258,842;   95,875; 2952,952; 5,70399
1027,99;  250,542;   93,475; 2944,552; 5,50906
1028,53;  246,042;   89,675; 2900,052; 5,56393
1029,08;  257,242;  114,775; 2876,653; 5,15836
1029,63;  261,642;  114,875; 2854,952; 5,35633
1030,18;  251,742;   92,075; 2788,552; 5,92134
1030,73;  234,443;   91,175; 2739,552; 5,40963
1031,27;  226,042;   85,875; 2715,252; 5,33082
1031,82;  229,943;   81,875; 2686,452; 5,68490
1032,37;  248,342;   98,875; 2688,853; 5,77100
1032,92;  260,242;  100,575; 2675,452; 6,20097
1033,46;  233,042;   99,775; 2599,252; 5,33181
1034,01;  229,542;   78,375; 2582,952; 6,03565
1034,56;  239,542;   98,875; 2559,252; 5,71731
1035,11;  221,143;   92,375; 2523,552; 5,29651
1035,65;  229,943;   87,575; 2478,052; 5,95561
1036,20;  225,842;   99,375; 2454,452; 5,36999
1036,75;  260,242;  118,675; 2446,353; 6,08192
1037,29;  232,143;   90,275; 2398,252; 6,14683
1037,84;  208,943;   78,375; 2347,252; 5,75472
1038,39;  223,443;   91,075; 2329,952; 5,91223
1038,94;  189,742;   73,075; 2277,153; 5,29326
1039,48;  221,143;   83,575; 2278,552; 6,26738
1040,03;  227,443;  102,875; 2245,252; 5,81445
1040,58;  208,643;  101,175; 2194,552; 5,13369
1041,12;  217,742;   91,375; 2191,653; 6,01670
1041,67;  204,042;  101,075; 2166,752; 4,98468
1042,22;  232,443;  118,475; 2145,252; 5,62309
1042,76;  202,742;   99,275; 2118,452; 5,12424
1043,31;  209,542;   90,675; 2060,653; 6,03395
1043,86;  211,342;   98,875; 2044,252; 5,78127
1044,40;  218,443;   92,975; 2018,052; 6,51753
1044,95;  216,143;   94,175; 1988,552; 6,43839
1045,50;  186,443;   75,375; 1934,353; 5,97466
1046,04;  216,742;  114,375; 1930,453; 5,63674
1046,59;  214,042;   96,175; 1878,353; 6,61368
1047,13;  217,042;  121,075; 1879,453; 5,45773
1047,68;  195,542;  115,675; 1860,052; 4,57857
1048,23;  214,042;  118,775; 1866,752; 5,45016
1048,77;  199,842;   90,175; 1784,953; 6,47091
1049,32;  197,143;  104,175; 1785,953; 5,52793
1049,86;  205,042;   92,675; 1760,552; 6,73716
1050,41;  173,342;   82,475; 1735,552; 5,49687
1050,96;  191,143;  100,875; 1698,652; 5,64957
1051,50;  188,342;  101,675; 1663,252; 5,55000
1052,05;  192,143;   94,675; 1664,052; 6,21058
1052,59;  191,643;   82,975; 1624,152; 7,05094
1053,14;  172,943;   84,475; 1582,652; 5,90501
1053,69;  174,143;   98,475; 1571,453; 5,13704
1054,23;  191,342;  104,575; 1569,052; 5,92481
1054,78;  190,943;  100,775; 1550,152; 6,22112
1055,32;  202,443;  123,075; 1550,453; 5,56037
1055,87;  168,242;   68,875; 1491,752; 6,98356
1056,41;  163,242;   78,775; 1469,552; 6,07340
1056,96;  174,542;   96,775; 1451,052; 5,74236
1057,50;  191,842;  113,375; 1470,853; 5,78039
1058,05;  150,643;   82,075; 1401,953; 5,19499
1058,59;  168,443;   95,875; 1396,552; 5,57921
1059,14;  174,542;  103,575; 1370,453; 5,60176
1059,68;  150,542;   75,975; 1329,353; 5,94932
1060,23;  198,742;  126,875; 1383,752; 5,71794
1060,77;  164,342;   97,375; 1317,052; 5,49059
1061,32;  193,143;  108,575; 1320,652; 6,97707
1061,86;  175,342;  111,175; 1289,752; 5,44449
1062,41;  177,042;   93,975; 1242,953; 7,22969
1062,95;  168,542;  109,575; 1230,853; 5,25896
1063,50;  181,643;  111,075; 1230,052; 6,30643
1064,04;  147,943;   90,475; 1197,453; 5,19139
1064,59;  176,443;  114,775; 1210,052; 5,63031
1065,13;  169,342;  103,475; 1170,552; 6,17270
1065,68;  173,143;  107,275; 1161,353; 6,24883
1066,22;  175,842;  115,875; 1166,453; 5,70805
1066,76;  189,542;  130,175; 1145,252; 5,84857
1067,31;  158,842;   99,875; 1110,552; 5,83445
1067,85;  161,842;  100,975; 1090,252; 6,15272
1068,40;  169,042;  110,275; 1095,353; 5,96577
1068,94;  159,443;   99,175; 1079,353; 6,14863
1069,49;  153,342;   98,175; 1041,652; 5,84725
1070,03;  170,542;  111,175; 1034,353; 6,43078
1070,57;  148,842;   88,775; 1012,852; 6,50027
1071,12;  132,643;   75,875;  987,153; 6,22944
1071,66;  187,242;  131,775; 1039,953; 6,10756
1072,21;  176,443;  112,475; 1011,352; 7,11638
1072,75;  162,943;  104,475;  978,552; 6,68905
1073,29;  143,943;   77,075;  942,453; 7,72698
1073,84;  156,143;   95,975;  941,153; 7,11892
1074,38;  149,042;   93,875;  928,253; 6,61181
1074,92;  159,542;  107,275;  940,153; 6,27553
1075,47;  166,842;  112,775;  938,852; 6,54509
1076,01;  169,643;  121,775;  926,253; 5,95014
1076,56;  149,643;   97,275;  891,953; 6,58978
1077,10;  139,042;   86,075;  865,253; 6,79787
1077,64;  147,742;   97,875;  884,453; 6,33981
1078,19;  165,742;  123,175;  887,753; 5,56745
1078,73;  154,143;   98,775;  853,852; 7,33269
1079,27;  166,242;  121,075;  875,552; 5,98659
1079,81;  168,742;  121,375;  860,953; 6,40467
1080,36;  162,842;  105,975;  836,052; 7,78924
1080,90;  152,342;   96,375;  819,753; 7,73697
1081,44;  136,242;   82,475;  789,552; 7,60419
1081,99;  116,043;   70,375;  771,753; 6,51112
1082,53;  151,542;  113,075;  798,653; 5,61096
1083,07;  153,242;  104,175;  791,453; 7,13940
1083,62;  151,842;  101,275;  772,552; 7,53302
1084,16;  143,943;   98,975;  782,453; 6,57922
1084,70;  162,242;  107,475;  767,153; 8,30216
1085,24;  150,443;  108,775;  750,653; 6,49150
1085,79;  145,443;  109,175;  747,552; 5,68120
1086,33;  128,443;   99,075;  711,453; 4,79565
1086,87;  145,742;  102,075;  714,852; 7,12616
1087,41;  144,042;   84,475;  686,852; 9,88873
1087,96;  163,342;  124,575;  732,552; 6,37647
1088,50;  143,443;  112,075;  696,953; 5,36309
1089,04;  155,943;  121,775;  715,153; 5,75814
1089,58;  121,043;   82,375;  655,953; 6,74146
1090,13;  134,042;  102,975;  653,153; 5,64681
1090,67;  152,242;  101,775;  678,753; 8,74687
1091,21;  130,842;   92,075;  651,852; 6,92552
1091,75;  136,342;  106,875;  647,153; 5,45414
1092,29;  152,842;  105,875;  642,552; 8,75153
1092,84;  132,242;  105,975;  628,352; 5,02845
1093,38;  168,842;  128,175;  662,753; 7,60741
1093,92;  167,143;  113,475;  640,052;10,19176
1094,46;  160,542;  128,175;  638,852; 6,33815
1095,00;  129,542;   93,975;  602,052; 7,00041
1095,54;  125,942;   89,975;  591,352; 7,17374
1096,09;  150,742;  114,975;  597,352; 7,41484
1096,63;  148,542;  117,175;  598,453; 6,51755
1097,17;  125,543;  102,575;  573,052; 4,88174
1097,71;  149,042;  122,875;  582,453; 5,69382
1098,25;  134,742;  103,275;  553,653; 6,98691
1098,79;  141,242;  104,775;  568,753; 7,85975
1099,33;  149,143;  111,975;  572,052; 8,07853
1099,88;  136,842;  110,775;  562,253; 5,77382
1100,42;  100,043;   83,275;  521,253; 3,82839

