0134 elitro
Integration time [ms]:   8,000
Averaging Nr. [scans]: 10
Smoothing Nr. [pixels]: 0
Data measured with spectrometer [name]: 7314920SP
Wave   ;Sample   ;Dark     ;Reference;Reflectance
[nm]   ;[counts] ;[counts] ;[counts] ;[%]

 199,42;   89,898;   63,873;  150,055;30,19786
 200,02;  111,412;   92,669;  145,732;35,32304
 200,62;   76,864;   67,563;   88,793;43,81283
 201,22;  107,882;   86,969;  138,011;40,97167
 201,82;   89,406;   66,174;  141,790;30,72351
 202,42;  118,889;  101,668;  154,973;32,30642
 203,03;   63,374;   60,168;   91,775;10,14246
 203,63;   85,681;   69,967;  109,037;40,21974
 204,23;   91,528;   70,671;  129,903;35,21294
 204,83;   84,235;   74,567;  123,718;19,66964
 205,43;   89,898;   56,673;  123,555;49,67732
 206,03;   72,412;   50,167;   90,459;55,20937
 206,63;   69,042;   68,865;  100,007; 0,56898
 207,24;  115,491;   74,675;  162,566;46,43914
 207,84;   58,289;   39,967;   83,699;41,89538
 208,44;   66,682;   50,669;   95,011;36,11192
 209,04;   51,365;   47,365;   85,066;10,61012
 209,64;   96,159;   69,972;  127,998;45,13036
 210,24;   71,135;   45,367;   97,218;49,69577
 210,84;   68,805;   51,469;  101,970;34,32723
 211,44;   98,197;   86,470;  122,908;32,18447
 212,05;   68,665;   60,865;   99,266;20,31216
 212,65;   80,773;   66,368;  112,975;30,90875
 213,25;  101,289;   93,768;  142,073;15,56941
 213,85;   93,157;   84,465;  114,904;28,55584
 214,45;   70,435;   53,367;  100,418;36,27507
 215,05;   55,305;   39,369;  100,070;26,25260
 215,65;   66,428;   55,169;  105,630;22,31170
 216,25;   57,835;   40,267;   82,518;41,57955
 216,85;   35,158;   34,069;   89,651; 1,96037
 217,45;   63,874;   49,068;   97,375;30,64907
 218,05;   76,266;   58,270;  112,886;32,95059
 218,66;   48,835;   28,769;   75,692;42,76514
 219,26;   49,181;   26,567;   79,337;42,85362
 219,86;   54,382;   36,771;   81,584;39,29944
 220,46;   84,843;   54,270;  104,127;61,32219
 221,06;   69,728;   51,871;  115,903;27,88813
 221,66;   71,398;   43,471;  103,481;46,53599
 222,26;   58,759;   39,772;  102,398;30,31852
 222,86;   89,443;   67,268;  118,954;42,90319
 223,46;   75,335;   51,767;   88,918;63,43765
 224,06;   84,505;   64,971;  120,343;35,27798
 224,66;   80,813;   57,570;  105,805;48,18560
 225,26;   70,074;   48,169;  113,748;33,40171
 225,86;   76,529;   42,173;  112,376;48,93777
 226,46;   83,266;   49,968;  102,913;62,89131
 227,06;   49,713;   27,670;   87,705;36,71582
 227,66;   50,434;   37,665;   74,845;34,34442
 228,27;   52,143;   29,270;   96,227;34,16138
 228,87;  103,690;   89,170;  143,046;26,94981
 229,47;   53,883;   29,172;   92,357;39,10763
 230,07;   28,474;   11,169;   59,648;35,69486
 230,67;   52,758;   38,169;   84,651;31,38750
 231,27;   43,943;   27,670;   76,327;33,44520
 231,87;   66,958;   43,169;  100,751;41,31415
 232,47;   90,145;   43,775;  132,047;52,53050
 233,07;   57,919;   42,965;   75,547;45,89601
 233,67;   66,074;   53,768;   94,275;30,37906
 234,27;   32,012;    0,567;   53,259;59,67692
 234,87;   62,282;   34,771;  106,084;38,57819
 235,47;   46,274;   16,169;   74,148;51,92312
 236,07;   43,950;   30,266;   72,042;32,75540
 236,67;   58,742;   49,966;   85,180;24,92191
 237,27;   58,444;   28,873;  109,074;36,87137
 237,87;   63,713;   25,370;   99,805;51,51115
 238,47;   37,912;   14,269;   68,032;43,97712
 239,07;   63,736;   33,272;   95,738;48,76904
 239,67;   83,845;   43,477;  131,421;45,90268
 240,27;   63,229;   46,773;  119,176;22,72826
 240,87;   84,067;   50,773;  119,533;48,42072
 241,47;   46,157;   39,164;   76,131;18,91764
 242,07;   54,720;   39,968;   92,894;27,87231
 242,67;   24,621;  -11,027;   77,914;40,08049
 243,27;   25,735;    7,767;   46,418;46,48718
 243,87;   69,105;   48,671;  108,343;34,24408
 244,47;   60,528;   22,371;   99,703;49,34224
 245,07;   25,905;    2,669;   55,770;43,75736
 245,67;   53,174;   31,068;   85,575;40,55554
 246,27;   53,842;   34,965;   69,007;55,45237
 246,87;   33,843;   26,668;   63,154;19,66457
 247,46;   15,564;   19,663;   23,793;-99,24175
 248,06;   37,966;   20,470;   69,786;35,47791
 248,66;   59,159;   31,072;  105,898;37,53683
 249,26;   45,450;   32,366;   70,742;34,09394
 249,86;   64,129;   42,873;  102,176;35,84281
 250,46;   44,868;   16,775;   93,507;36,61177
 251,06;   28,474;   22,168;   65,375;14,59418
 251,66;   35,559;   20,771;   64,724;33,64521
 252,26;   39,096;   38,866;   70,261; 0,73257
 252,86;   43,105;   35,969;   89,070;13,43775
 253,46;    2,535;   -8,033;   22,118;35,04954
 254,06;   42,627;   31,766;   79,483;22,76136
 254,66;   45,598;   34,973;  100,155;16,30062
 255,26;   69,852;   39,073;  118,836;38,58816
 255,86;   49,357;   37,464;   55,631;65,46558
 256,46;   40,197;   19,870;   70,208;40,38172
 257,05;   37,836;   23,570;   59,565;39,63212
 257,65;   65,482;   38,071;   97,684;45,98199
 258,25;   64,483;   37,372;  101,457;42,30344
 258,85;   21,505;   15,669;   51,770;16,16460
 259,45;   20,058;    6,869;   42,951;36,55431
 260,05;   51,835;   46,667;   85,818;13,19977
 260,65;   62,596;   45,066;   83,561;45,53822
 261,25;   48,405;   29,371;   85,943;33,64585
 261,85;   18,274;   -0,129;   47,622;38,54036
 262,45;   62,505;   46,169;  109,270;25,88801
 263,04;   65,475;   53,073;  116,295;19,61655
 263,64;   49,804;   33,767;   77,097;37,01148
 264,24;   61,351;   37,671;   89,062;46,07841
 264,84;  100,960;   58,974;  138,671;52,68178
 265,44;   43,250;   26,368;   67,716;40,83093
 266,04;   48,881;   48,865;   71,464; 0,06675
 266,64;   42,042;   39,866;   86,780; 4,63819
 267,24;   46,442;   40,166;   68,980;21,78106
 267,84;   39,389;   24,668;   76,573;28,36125
 268,43;   66,397;   48,368;   95,935;37,90200
 269,03;   59,735;   46,969;   87,892;31,19680
 269,63;   63,173;   58,566;   92,402;13,61580
 270,23;   19,434;   10,765;   39,045;30,65503
 270,83;   49,096;   55,266;   83,161;-22,11859
 271,43;   34,027;   23,967;   58,856;28,83400
 272,03;   79,550;   64,168;   99,116;44,01617
 272,62;   36,028;   23,269;   68,730;28,06527
 273,22;   37,790;   11,970;   61,046;52,61131
 273,82;   11,802;   17,460;   26,403;-63,27144
 274,42;   18,780;   25,164;   46,890;-29,38173
 275,02;   30,196;   34,864;   60,388;-18,29204
 275,62;   64,483;   31,972;  100,457;47,47049
 276,21;   40,720;   22,770;   69,267;38,60507
 276,81;   47,689;   46,767;   71,099; 3,78881
 277,41;   48,221;   22,971;   96,341;34,41387
 278,01;   26,596;   21,364;   42,788;24,41823
 278,61;   59,482;   38,869;   83,811;45,86530
 279,20;   77,629;   65,473;  119,076;22,67772
 279,80;    2,210;    6,762;   11,539;-95,27705
 280,40;   50,550;   36,866;   79,742;31,91506
 281,00;   13,882;   -4,331;   33,311;48,38422
 281,60;   50,637;   20,774;   74,812;55,26299
 282,20;   38,897;   36,670;   70,108; 6,66151
 282,79;   38,297;   29,568;   70,135;21,51700
 283,39;   15,673;   17,466;   44,702;-6,58322
 283,99;   26,119;   23,165;   34,347;26,41742
 284,59;   27,351;   16,869;   45,289;36,88129
 285,19;   35,012;   27,067;   57,759;25,88599
 285,78;   35,797;   23,270;   63,808;30,90281
 286,38;   45,442;   39,665;   59,207;29,56270
 286,98;   52,997;   35,168;   73,535;46,46928
 287,58;   24,328;    4,771;   61,403;34,53407
 288,17;   33,952;    8,973;   80,336;35,00283
 288,77;   64,284;   19,976;   92,504;61,09024
 289,37;   25,205;   11,269;   57,670;30,03295
 289,97;   50,819;   48,965;   66,647;10,48594
 290,57;   60,467;   46,672;   93,260;29,61101
 291,16;   72,850;   63,868;  102,616;23,18257
 291,76;   17,890;    5,570;   47,346;29,48938
 292,36;   39,981;   34,367;   58,137;23,61737
 292,96;   15,806;   -3,127;   60,117;29,93647
 293,55;   32,489;   24,267;   65,399;19,98883
 294,15;   33,720;   26,870;   62,567;19,19025
 294,75;   40,242;   42,065;   66,207;-7,55028
 295,35;   26,350;   21,068;   52,016;17,06985
 295,94;   44,865;   42,967;   66,740; 7,98773
 296,54;   24,966;   30,768;   70,613;-14,56228
 297,14;   37,198;   29,971;   76,881;15,40452
 297,73;   18,611;   12,165;   40,085;23,08769
 298,33;   40,927;   28,066;   57,583;43,57160
 298,93;   51,543;   41,968;   82,554;23,59148
 299,53;   35,713;   24,872;   69,079;24,52375
 300,12;   14,098;  -12,229;   59,481;36,71211
 300,72;   62,304;   41,567;   91,197;41,78341
 301,32;   54,682;   25,771;   99,584;39,16825
 301,92;   -3,697;    3,664;   33,050;-25,04826
 302,51;   26,758;   11,567;   49,978;39,54860
 303,11;   17,612;   14,667;   48,759; 8,63812
 303,71;   34,512;   21,369;   82,132;21,63083
 304,30;   19,204;    5,466;   38,423;41,68396
 304,90;   22,627;   19,666;   44,283;12,02845
 305,50;   27,934;   18,565;   64,345;20,46571
 306,09;   28,850;   15,466;   49,042;39,86142
 306,69;   62,851;   34,171;   90,262;51,13144
 307,29;   17,079;   18,760;   33,144;-11,68836
 307,88;   50,351;   43,269;   72,489;24,23552
 308,48;   25,343;    0,070;   49,727;50,89598
 309,08;    4,518;   -4,437;   11,774;55,24247
 309,68;   19,711;   22,365;   39,585;-15,41128
 310,27;   24,328;   20,169;   49,830;14,02062
 310,87;   35,966;   23,468;   54,813;39,87163
 311,47;   56,735;   54,967;   92,918; 4,65827
 312,06;   51,288;   47,865;   68,426;16,64886
 312,66;   70,150;   51,168;  100,016;38,86090
 313,26;   67,959;   48,571;   96,224;40,68583
 313,85;   43,012;   38,267;   65,959;17,13462
 314,45;   60,282;   42,969;   86,611;39,66994
 315,04;   55,088;   52,165;   81,826; 9,85524
 315,64;   29,904;   21,267;   47,897;32,43350
 316,24;   57,243;   40,770;   85,627;36,72432
 316,83;   56,550;   40,366;   76,742;44,49047
 317,43;   41,527;   35,167;   68,156;19,27874
 318,03;   42,711;   39,063;   70,012;11,78528
 318,62;   78,964;   73,061;   94,820;27,12838
 319,22;   38,389;    7,668;   66,973;51,80187
 319,82;   60,550;   40,768;   93,516;37,50431
 320,41;   78,812;   59,069;   98,732;49,77785
 321,01;   85,534;   80,465;  115,945;14,28742
 321,60;   83,680;   81,164;  102,790;11,63529
 322,20;   93,998;   67,673;  132,855;40,38716
 322,80;   70,904;   54,567;   91,797;43,88161
 323,39;   59,373;   65,764;   94,828;-21,99190
 323,99;   67,296;   61,766;  102,661;13,52239
 324,59;   74,011;   73,063;   97,512; 3,87499
 325,18;   62,858;   40,967;   92,178;42,74673
 325,78;   88,911;   76,365;  108,885;38,57947
 326,37;   76,674;   74,868;  108,075; 5,43784
 326,97;   85,004;   63,267;  111,497;45,06973
 327,57;   39,364;   42,263;   76,493;-8,46798
 328,16;   72,457;   60,864;   93,631;35,38082
 328,76;   71,665;   50,467;  110,140;35,52507
 329,35;   81,982;   56,871;  137,484;31,15041
 329,95;   65,097;   27,470;   91,308;58,94182
 330,54;   62,335;   52,167;   94,018;24,29527
 331,14;   44,289;   26,967;   82,599;31,13630
 331,74;   75,834;   54,165;   96,145;51,61820
 332,33;   61,343;   35,370;  108,127;35,69887
 332,93;   51,103;   43,764;   79,250;20,68225
 333,52;   64,573;   42,466;   93,102;43,65890
 334,12;   91,735;   72,069;  140,392;28,78484
 334,71;   63,350;   50,666;   87,942;34,02696
 335,31;   82,512;   63,267;  119,859;34,00646
 335,90;   35,726;   32,362;   53,836;15,66346
 336,50;   33,542;   30,665;   77,207; 6,18191
 337,10;   65,228;   38,769;  121,530;31,97011
 337,69;   55,742;   51,765;   93,707; 9,48257
 338,29;   59,381;   30,467;  101,037;40,97188
 338,88;   45,343;   22,468;   99,854;29,55944
 339,48;   80,803;   57,862;  111,677;42,62902
 340,07;   65,719;   48,566;  107,321;29,19433
 340,67;   67,582;   31,171;  124,784;38,89552
 341,26;   61,650;   48,466;   98,942;26,11919
 341,86;   92,774;   61,469;  138,348;40,71920
 342,45;   85,451;   45,669;  142,689;41,00358
 343,05;   72,551;   27,269;  115,689;51,21206
 343,64;   70,642;   47,366;  122,480;30,98758
 344,24;   41,942;   28,765;   92,107;20,80319
 344,83;   84,419;   71,365;  121,747;25,91005
 345,43;   55,965;   29,667;  114,240;31,09607
 346,02;   54,558;   41,469;  124,351;15,79303
 346,62;   82,959;   40,971;  140,424;42,21894
 347,21;   62,611;   42,165;  131,985;22,76340
 347,81;   62,267;   26,172;  140,560;31,55504
 348,40;   44,757;   29,064;  100,731;21,89749
 349,00;   74,211;   49,163;  137,712;28,28658
 349,59;   97,290;   65,870;  177,846;28,05912
 350,19;   68,259;   32,571;  139,424;33,39923
 350,78;   63,112;   55,467;  140,759; 8,96322
 351,38;   42,658;   15,869;  140,951;21,41760
 351,97;   57,965;   26,767;  136,040;28,55132
 352,57;   63,943;   42,570;  155,827;18,87163
 353,16;   54,173;   30,564;  134,328;22,75185
 353,76;   74,090;   38,770;  169,846;26,94580
 354,35;   49,974;   27,669;  160,148;16,83627
 354,95;   72,920;   43,970;  182,067;20,96376
 355,54;   70,689;   38,368;  163,973;25,73217
 356,14;   69,274;   40,069;  164,749;23,42376
 356,73;   64,303;   29,162;  145,176;30,28982
 357,32;   42,912;   13,769;  164,432;19,34354
 357,92;   67,490;   17,772;  181,419;30,38128
 358,51;   89,913;   43,372;  214,179;27,24784
 359,11;   88,467;   36,772;  212,360;29,44118
 359,70;   58,636;   28,470;  189,965;18,67889
 360,30;   84,710;   54,562;  188,039;22,58714
 360,89;   54,943;   31,168;  188,054;15,15418
 361,48;   93,220;   55,570;  216,467;23,40026
 362,08;   64,927;   19,867;  187,156;26,93536
 362,67;   69,964;   39,763;  192,693;19,74854
 363,27;  104,858;   60,767;  247,678;23,58927
 363,86;   85,134;   35,765;  215,745;27,43040
 364,46;  109,757;   44,664;  257,231;30,62246
 365,05;   94,925;   64,659;  254,989;15,90182
 365,64;  100,587;   50,960;  269,706;22,68700
 366,24;  111,086;   38,558;  309,432;26,77557
 366,83;  141,601;   43,255;  335,383;33,66523
 367,43;  147,398;   51,545;  352,843;31,81335
 368,02;  163,775;   34,646;  399,757;35,36706
 368,61;  202,381;   62,239;  475,425;33,91734
 369,21;  170,229;   32,419;  445,299;33,37766
 369,80;  205,033;   43,007;  526,947;33,48061
 370,39;  251,948;   62,006;  604,971;34,98239
 370,99;  248,012;   42,089;  615,416;35,91732
 371,58;  256,724;   22,974;  630,953;38,44701
 372,18;  298,283;   37,166;  701,603;39,29900
 372,77;  277,440;   42,449;  679,385;36,89387
 373,36;  288,554;   42,747;  690,836;37,92805
 373,96;  277,736;   35,135;  639,498;40,14150
 374,55;  272,415;   29,844;  621,406;41,00521
 375,14;  251,217;   42,849;  573,826;39,24229
 375,74;  261,457;   69,157;  543,276;40,55947
 376,33;  200,705;   45,964;  464,589;36,96421
 376,92;  205,540;   33,278;  447,997;41,53707
 377,52;  264,055;   86,103;  548,460;38,48798
 378,11;  218,716;   46,703;  457,203;41,90344
 378,71;  238,719;   73,011;  514,270;37,55339
 379,30;  239,613;   59,517;  553,928;36,42633
 379,89;  240,942;   59,813;  556,103;36,49670
 380,49;  245,652;   31,018;  568,185;39,95659
 381,08;  282,094;   70,306;  570,990;42,29978
 381,67;  275,941;   55,008;  555,483;44,14470
 382,26;  268,594;   41,706;  539,390;45,58881
 382,86;  273,209;   54,003;  516,041;47,44324
 383,45;  269,027;   50,412;  562,105;42,72376
 384,04;  287,581;   38,712;  553,886;48,30764
 384,64;  278,781;   49,014;  566,760;44,37839
 385,23;  294,440;   64,406;  560,509;46,36824
 385,82;  311,059;   59,615;  592,774;47,16106
 386,42;  346,615;   61,024;  659,022;47,75786
 387,01;  342,435;   55,414;  580,541;54,65749
 387,60;  347,380;   69,009;  590,140;53,41671
 388,20;  320,927;   37,712;  590,805;51,20558
 388,79;  388,521;   72,418;  665,563;53,29262
 389,38;  328,794;   32,106;  564,890;55,68638
 389,97;  380,012;   45,415;  640,955;56,18387
 390,57;  409,451;   71,114;  654,038;58,04123
 391,16;  405,251;   62,514;  655,838;57,76544
 391,75;  416,666;   52,713;  638,562;62,12391
 392,34;  450,760;   60,821;  696,694;61,32345
 392,94;  422,567;   44,718;  689,683;58,58445
 393,53;  427,951;   41,016;  666,612;61,85066
 394,12;  477,953;   53,023;  719,105;63,79543
 394,72;  479,989;   54,213;  706,122;65,31214
 395,31;  491,859;   42,115;  694,874;68,89888
 395,90;  526,138;   42,924;  732,881;70,03536
 396,49;  543,262;   58,028;  779,187;67,28529
 397,09;  534,236;   47,417;  749,188;69,37010
 397,68;  586,730;   44,025;  800,719;71,72060
 398,27;  600,854;   54,626;  809,652;72,34557
 398,86;  591,823;   43,125;  807,657;71,76910
 399,45;  648,147;   56,630;  844,037;75,12221
 400,05;  625,875;   23,820;  799,518;77,61465
 400,64;  672,513;   56,419;  831,001;79,53891
 401,23;  672,168;   53,920;  859,956;76,70224
 401,82;  703,368;   67,220;  868,256;79,41561
 402,42;  711,283;   62,921;  873,953;79,94283
 403,01;  764,830;   81,525;  912,919;82,18792
 403,60;  765,032;   68,532;  940,513;79,87569
 404,19;  776,384;   76,024;  931,900;81,82961
 404,78;  783,768;   57,522;  909,929;85,19943
 405,38;  826,148;   68,332;  984,210;82,74201
 405,97;  805,108;   63,226;  953,933;83,29134
 406,56;  847,231;   71,528; 1004,366;83,15523
 407,15;  838,216;   68,829;  989,442;83,57339
 407,74;  871,078;   80,730; 1026,758;83,54381
 408,34;  870,194;   50,933; 1018,629;84,66101
 408,93;  901,963;   59,531; 1016,234;88,05574
 409,52;  918,233;   51,435; 1041,359;87,56208
 410,11;  958,709;   84,931; 1090,453;86,89797
 410,70;  942,123;   54,727; 1027,230;91,24867
 411,29;  940,185;   58,628; 1030,847;90,67476
 411,89;  982,903;   60,535; 1093,938;89,25539
 412,48;  961,608;   48,228; 1051,606;91,03049
 413,07; 1031,756;   65,033; 1101,446;93,27588
 413,66; 1017,656;   78,135; 1102,119;91,75159
 414,25; 1062,403;   63,337; 1142,311;92,59408
 414,84; 1058,163;   69,431; 1102,434;95,71433
 415,44; 1085,732;   91,530; 1155,939;93,40411
 416,03; 1100,411;   76,637; 1161,173;94,39738
 416,62; 1115,088;   76,138; 1168,687;95,09413
 417,21; 1109,172;   75,334; 1158,843;95,41569
 417,80; 1127,426;   65,037; 1162,871;96,77143
 418,39; 1146,866;   78,440; 1179,201;97,06245
 418,98; 1089,579;   55,634; 1143,405;95,05172
 419,58; 1123,687;   64,033; 1142,067;98,29501
 420,17; 1141,187;   52,735; 1164,540;97,89952
 420,76; 1142,811;   72,537; 1192,873;95,53149
 421,35; 1138,726;   60,236; 1155,197;98,49571
 421,94; 1196,666;   88,340; 1223,501;97,63597
 422,53; 1162,812;   61,540; 1195,320;97,13276
 423,12; 1174,958;   64,039; 1190,766;98,59699
 423,71; 1166,203;   60,835; 1162,138;100,36909
 424,30; 1205,441;   85,236; 1210,695;99,53322
 424,90; 1148,219;   39,438; 1163,809;98,61346
 425,49; 1207,142;   70,140; 1216,242;99,20608
 426,08; 1222,042;   80,240; 1209,641;101,09800
 426,67; 1161,349;   57,436; 1168,257;99,37813
 427,26; 1226,528;   60,343; 1230,391;99,66984
 427,85; 1213,342;   63,238; 1209,968;100,29421
 428,44; 1244,212;   68,442; 1218,093;102,27190
 429,03; 1219,420;   85,341; 1233,155;98,80333
 429,62; 1231,597;   78,941; 1240,296;99,25094
 430,21; 1246,790;   81,443; 1277,807;97,40734
 430,80; 1221,290;   70,445; 1235,381;98,79045
 431,39; 1240,036;   53,344; 1246,926;99,42271
 431,99; 1242,403;   78,535; 1206,838;103,15208
 432,58; 1223,057;   82,639; 1251,166;97,59457
 433,17; 1222,857;   69,735; 1238,319;98,67684
 433,76; 1266,814;   71,347; 1288,314;98,23332
 434,35; 1279,544;   88,245; 1292,462;98,92729
 434,94; 1255,014;   70,849; 1318,887;94,88215
 435,53; 1261,997;   78,643; 1278,669;98,61069
 436,12; 1262,813;   70,044; 1294,267;97,43070
 436,71; 1274,658;   87,740; 1303,239;97,64861
 437,30; 1248,151;   76,941; 1299,177;95,82515
 437,89; 1292,521;   76,245; 1320,802;97,72760
 438,48; 1277,905;   65,942; 1305,731;97,75553
 439,07; 1279,011;   95,238; 1347,147;94,55748
 439,66; 1305,129;   83,648; 1375,711;94,53729
 440,25; 1304,813;   85,844; 1390,567;93,42742
 440,84; 1325,530;   79,850; 1387,984;95,22568
 441,43; 1346,785;   78,054; 1440,985;93,08839
 442,02; 1321,522;   79,650; 1411,022;93,27761
 442,61; 1348,636;   93,344; 1397,226;96,27340
 443,20; 1369,007;   94,249; 1446,625;94,26061
 443,79; 1343,775;   74,546; 1412,957;94,83107
 444,38; 1391,099;   84,248; 1461,789;94,86834
 444,97; 1404,659;   84,146; 1466,359;95,53617
 445,56; 1450,229;  101,846; 1477,038;98,05055
 446,15; 1465,484;   81,651; 1522,539;96,04031
 446,74; 1461,359;   58,644; 1462,286;99,93397
 447,33; 1519,375;   82,646; 1538,357;98,69607
 447,92; 1552,138;   78,151; 1570,720;98,75504
 448,51; 1570,183;   89,746; 1586,019;98,94163
 449,10; 1629,313;   92,045; 1608,840;101,34976
 449,69; 1647,769;   73,950; 1627,741;101,28893
 450,28; 1688,306;   66,948; 1608,251;105,19397
 450,87; 1743,660;   78,647; 1656,333;105,53517
 451,46; 1769,245;   96,048; 1702,208;104,17370
 452,05; 1814,430;   70,950; 1715,384;106,02307
 452,64; 1855,745;   70,850; 1725,182;107,89222
 453,23; 1940,800;  113,752; 1794,936;108,67624
 453,82; 1951,715;   83,451; 1800,660;108,79651
 454,40; 1951,145;   65,450; 1786,682;109,55499
 454,99; 2070,154;  101,253; 1871,891;111,19729
 455,58; 2039,368;   69,747; 1832,095;111,76118
 456,17; 2142,115;   63,852; 1873,634;114,83503
 456,76; 2188,238;   67,751; 1918,820;114,55472
 457,35; 2207,399;   78,348; 1930,490;114,95076
 457,94; 2254,346;   66,954; 1978,929;114,40489
 458,53; 2307,992;   67,350; 2010,101;115,33346
 459,12; 2398,724;   82,657; 2111,116;114,17866
 459,71; 2380,853;   58,148; 2060,071;116,02370
 460,30; 2435,529;   84,448; 2087,511;117,37430
 460,89; 2468,038;   57,551; 2129,920;116,31554
 461,48; 2511,946;   75,954; 2173,829;116,11715
 462,06; 2571,476;   68,050; 2187,303;118,12773
 462,65; 2565,291;   48,249; 2176,527;118,26659
 463,24; 2683,616;   87,456; 2288,680;117,94164
 463,83; 2644,576;   54,450; 2229,803;119,06691
 464,42; 2717,014;   88,349; 2333,687;117,07213
 465,01; 2753,845;   73,050; 2336,482;118,43941
 465,60; 2767,022;   64,050; 2384,322;116,49375
 466,19; 2842,246;   73,354; 2462,829;115,87871
 466,77; 2851,884;   81,551; 2462,939;116,33272
 467,36; 2855,801;   69,457; 2459,256;116,59323
 467,95; 2860,107;   79,551; 2466,098;116,50957
 468,54; 2913,839;   71,954; 2513,866;116,37948
 469,13; 2909,277;   69,452; 2535,977;115,13464
 469,72; 2943,377;   67,555; 2582,723;114,33916
 470,31; 2986,524;   87,855; 2629,242;114,05851
 470,90; 2982,353;   76,750; 2652,044;112,82607
 471,48; 2950,247;   32,057; 2671,875;110,54512
 472,07; 3028,691;  125,747; 2686,454;113,36492
 472,66; 3043,785;   67,853; 2748,412;111,01906
 473,25; 3049,784;   68,351; 2723,339;112,29555
 473,84; 3040,608;   55,955; 2766,545;110,11083
 474,43; 3043,648;   55,459; 2843,049;107,19615
 475,01; 3098,762;   69,254; 2885,926;107,55629
 475,60; 3100,655;   49,755; 2882,364;107,70634
 476,19; 3145,086;   74,158; 2956,932;106,52683
 476,78; 3140,701;   71,057; 2964,456;106,09127
 477,37; 3128,354;   59,355; 2945,364;106,34061
 477,95; 3206,570;   75,656; 3018,661;106,38492
 478,54; 3195,154;   63,253; 3023,691;105,79183
 479,13; 3141,154;   56,253; 3070,291;102,35112
 479,72; 3240,593;   81,154; 3090,147;104,99985
 480,31; 3278,794;   63,459; 3167,468;103,58654
 480,89; 3262,862;   60,254; 3171,026;102,95219
 481,48; 3293,556;   46,260; 3214,084;102,50872
 482,07; 3297,739;   61,654; 3233,866;102,01349
 482,66; 3322,177;   52,853; 3253,650;102,14093
 483,25; 3386,256;   78,960; 3319,884;102,04793
 483,83; 3375,985;   59,954; 3325,385;101,54955
 484,42; 3419,746;   54,354; 3355,129;101,95765
 485,01; 3469,740;   65,958; 3400,413;102,07909
 485,60; 3518,280;   73,764; 3490,590;100,81039
 486,18; 3515,970;   66,956; 3490,761;100,73627
 486,77; 3518,500;   67,252; 3519,736;99,96418
 487,36; 3570,403;   58,464; 3561,750;100,24700
 487,95; 3615,872;   59,161; 3640,781;99,30451
 488,53; 3612,648;   54,461; 3642,522;99,16741
 489,12; 3628,088;   50,563; 3722,252;97,43538
 489,71; 3614,957;   38,062; 3680,357;98,20440
 490,30; 3656,702;   61,460; 3742,503;97,66911
 490,88; 3735,795;   87,561; 3859,141;96,72958
 491,47; 3719,211;   60,663; 3867,512;96,10436
 492,06; 3711,895;   62,563; 3920,615;94,59003
 492,65; 3714,841;   59,161; 3947,060;94,02713
 493,23; 3736,533;   54,860; 3982,825;93,72978
 493,82; 3724,631;   65,853; 4018,031;92,57624
 494,41; 3707,687;   51,361; 4066,179;91,07078
 494,99; 3748,008;   73,655; 4126,945;90,65114
 495,58; 3768,302;   86,060; 4224,403;88,97865
 496,17; 3723,116;   56,356; 4198,681;88,51938
 496,76; 3763,770;   65,356; 4276,761;87,81900
 497,34; 3773,571;   54,557; 4305,235;87,49225
 497,93; 3715,347;   66,057; 4350,675;85,17189
 498,52; 3754,340;   60,059; 4454,387;84,06932
 499,10; 3739,580;   75,862; 4533,217;82,19488
 499,69; 3670,687;   55,360; 4537,006;80,66962
 500,28; 3694,694;   37,959; 4592,068;80,29529
 500,86; 3686,610;   62,862; 4698,539;78,17086
 501,45; 3629,210;   53,462; 4730,438;76,45427
 502,04; 3641,457;   53,362; 4813,958;75,37071
 502,62; 3620,316;   70,956; 4856,181;74,17332
 503,21; 3589,962;   57,856; 4939,699;72,35190
 503,80; 3589,003;   69,662; 5015,577;71,15652
 504,38; 3589,533;   58,460; 5081,425;70,29858
 504,97; 3555,303;   49,962; 5122,776;69,10051
 505,56; 3508,125;   70,859; 5194,989;67,07999
 506,14; 3525,926;   64,064; 5263,709;66,57881
 506,73; 3437,342;   23,565; 5292,507;64,79056
 507,32; 3472,434;   62,865; 5376,045;64,17191
 507,90; 3461,156;   70,860; 5443,284;63,10552
 508,49; 3440,565;   58,865; 5500,366;62,14645
 509,08; 3451,357;   67,264; 5571,931;61,47680
 509,66; 3430,379;   69,960; 5677,644;59,92526
 510,25; 3448,918;   63,561; 5737,400;59,66607
 510,83; 3428,342;   45,165; 5855,607;58,22581
 511,42; 3443,266;   61,968; 5895,913;57,95903
 512,01; 3432,272;   59,164; 5980,328;56,96698
 512,59; 3434,203;   46,562; 6041,676;56,50669
 513,18; 3463,987;   59,961; 6114,379;56,22383
 513,77; 3477,078;   42,257; 6171,797;56,03718
 514,35; 3477,372;   37,763; 6190,255;55,90595
 514,94; 3486,380;   58,662; 6323,517;54,71344
 515,52; 3560,050;   48,166; 6358,342;55,65429
 516,11; 3590,419;   80,665; 6474,047;54,89667
 516,69; 3536,117;   41,959; 6446,727;54,55558
 517,28; 3626,063;   83,358; 6541,973;54,85240
 517,87; 3631,017;   45,558; 6604,054;54,66892
 518,45; 3670,509;   74,858; 6626,192;54,88426
 519,04; 3665,178;   54,258; 6707,970;54,26926
 519,62; 3723,995;   55,863; 6774,114;54,59951
 520,21; 3743,973;   24,466; 6828,002;54,67020
 520,79; 3782,573;   52,068; 7000,875;53,68556
 521,38; 3819,225;   52,960; 6995,363;54,25017
 521,97; 3858,143;   43,068; 7141,554;53,74491
 522,55; 3870,102;   67,759; 7195,230;53,34771
 523,14; 3884,525;   26,759; 7180,289;53,92814
 523,72; 3935,048;   77,561; 7383,422;52,79990
 524,31; 3970,442;   71,665; 7406,107;53,15711
 524,89; 4039,050;   48,468; 7526,815;53,36182
 525,48; 4009,942;   21,666; 7603,580;52,60250
 526,06; 4045,772;   56,264; 7633,128;52,65382
 526,65; 4082,813;   72,370; 7803,105;51,87660
 527,23; 4038,049;   46,262; 7840,596;51,21396
 527,82; 4099,858;   37,967; 7905,978;51,62539
 528,41; 4104,419;   67,366; 8041,021;50,62990
 528,99; 4103,865;   66,365; 8108,167;50,20641
 529,58; 4101,526;   42,562; 8168,736;49,94926
 530,16; 4130,587;   49,461; 8315,379;49,37293
 530,75; 4161,850;   73,964; 8417,069;48,99717
 531,33; 4144,042;   45,566; 8440,980;48,81803
 531,92; 4111,379;   48,560; 8567,344;47,69247
 532,50; 4240,720;   87,770; 8706,468;48,18536
 533,09; 4187,357;   65,665; 8807,204;47,15065
 533,67; 4164,255;   63,458; 8952,011;46,13571
 534,26; 4214,709;   65,760; 9007,665;46,39894
 534,84; 4254,541;   68,461; 9127,061;46,21112
 535,42; 4312,549;   61,564; 9205,969;46,48728
 536,01; 4368,995;   79,263; 9330,215;46,37071
 536,59; 4487,973;   43,366; 9482,202;47,08851
 537,18; 4583,387;   77,360; 9568,605;47,47561
 537,76; 4722,144;   56,972; 9764,700;48,05627
 538,35; 4847,820;   59,368; 9892,694;48,69615
 538,93; 5040,072;   72,664; 9941,828;50,33261
 539,52; 5142,413;   57,370;10111,405;50,57713
 540,10; 5409,928;   63,269;10309,029;52,18411
 540,69; 5562,934;   68,763;10444,071;52,95429
 541,27; 5808,979;   58,262;10514,917;54,99577
 541,85; 5983,727;   47,366;10658,783;55,94315
 542,44; 6164,656;   56,460;10765,484;57,03784
 543,02; 6390,328;   80,369;10952,729;58,03669
 543,61; 6567,435;   77,067;11102,218;58,86874
 544,19; 6789,104;   55,066;11264,023;60,07729
 544,78; 6891,396;   62,766;11296,562;60,78649
 545,36; 7031,582;   77,469;11521,011;60,76888
 545,94; 7164,549;   54,564;11563,069;61,78027
 546,53; 7255,897;   52,771;11724,882;61,71229
 547,11; 7473,289;   90,668;11879,873;62,62187
 547,70; 7522,787;   75,860;11954,706;62,69066
 548,28; 7639,265;   47,965;12093,066;63,02396
 548,86; 7804,965;   81,365;12327,767;63,06832
 549,45; 7824,743;   33,768;12364,953;63,18107
 550,03; 7948,781;   76,467;12507,537;63,32773
 550,62; 8068,350;   63,566;12662,842;63,53368
 551,20; 8199,835;   61,467;12808,418;63,84561
 551,78; 8209,703;   61,164;12952,850;63,20771
 552,37; 8300,149;   55,864;13112,469;63,14264
 552,95; 8461,019;   56,765;13214,547;63,87288
 553,54; 8521,142;   49,965;13393,207;63,48665
 554,12; 8579,404;   67,167;13498,797;63,37457
 554,70; 8756,189;   67,568;13736,973;63,56254
 555,29; 8792,511;   61,965;13856,285;63,29087
 555,87; 8871,767;   60,170;13987,786;63,26708
 556,45; 8944,956;   57,162;14154,058;63,04788
 557,04; 9006,589;   43,667;14376,600;62,53376
 557,62; 9070,289;   68,867;14525,499;62,26500
 558,20; 9186,921;   42,671;14799,940;61,96437
 558,79; 9303,373;  100,368;14905,875;62,15934
 559,37; 9327,335;   49,867;15000,418;62,05436
 559,95; 9369,035;   46,669;15169,691;61,64354
 560,54; 9441,166;   71,768;15324,613;61,42721
 561,12; 9511,496;   50,866;15485,562;61,29457
 561,70; 9640,158;   50,369;15679,551;61,35823
 562,29; 9731,620;   61,768;15810,994;61,39890
 562,87; 9778,243;   73,168;16023,953;60,84387
 563,45; 9891,543;   71,068;16194,754;60,90713
 564,04; 9908,849;   54,362;16227,195;60,93234
 564,62;10002,313;   37,769;16438,332;60,75733
 565,20;10135,311;   59,962;16715,838;60,49126
 565,78;10207,188;   70,765;16797,326;60,60076
 566,37;10292,827;   71,066;17011,283;60,34020
 566,95;10362,828;   52,969;17124,330;60,39272
 567,53;10476,557;   67,262;17308,857;60,37315
 568,12;10529,265;   62,265;17367,766;60,48366
 568,70;10750,796;   85,264;17565,889;61,01345
 569,28;10804,158;   61,069;17745,252;60,74971
 569,86;10843,912;   67,767;17910,758;60,39428
 570,45;11035,451;   78,569;18124,689;60,71600
 571,03;11013,134;   53,962;18259,898;60,19560
 571,61;11150,359;   46,571;18424,824;60,41808
 572,19;11231,418;   54,263;18395,773;60,93912
 572,78;11381,273;   70,668;18668,975;60,81524
 573,36;11457,550;   84,264;18797,668;60,77615
 573,94;11500,903;   44,064;18892,750;60,78323
 574,52;11551,294;   54,559;19030,768;60,58499
 575,11;11622,257;   37,264;19159,830;60,58284
 575,69;11755,042;   53,566;19268,680;60,89725
 576,27;11748,771;   47,161;19391,381;60,49151
 576,85;11840,850;   43,264;19549,668;60,48058
 577,44;11916,057;   30,262;19814,158;60,07813
 578,02;11947,540;   32,159;19753,887;60,41753
 578,60;12079,880;   50,464;20073,791;60,07701
 579,18;12182,487;   51,963;20160,752;60,32449
 579,76;12178,072;   40,264;20300,129;59,91061
 580,35;12266,497;   60,170;20436,707;59,90384
 580,93;12369,428;   59,667;20641,557;59,80870
 581,51;12351,221;   24,770;20697,168;59,62758
 582,09;12468,972;   58,663;20755,756;59,96160
 582,67;12488,035;   49,567;20971,318;59,45233
 583,26;12601,366;   28,568;21227,014;59,31000
 583,84;12608,826;   14,164;21413,709;58,85481
 584,42;12691,096;   48,064;21513,287;58,90007
 585,00;12828,542;   81,366;21772,180;58,76762
 585,58;12859,789;   25,167;21912,299;58,64004
 586,17;12908,748;   46,761;21948,521;58,72581
 586,75;12912,673;    6,666;22026,902;58,60976
 587,33;13091,858;   47,767;22191,678;58,90600
 587,91;13118,973;   74,866;22390,201;58,45355
 588,49;13116,757;   63,962;22349,758;58,57002
 589,07;13120,851;   45,468;22403,215;58,48256
 589,65;13086,966;   28,267;22444,439;58,25570
 590,24;13144,033;   42,562;22447,799;58,47504
 590,82;13191,940;   28,261;22484,160;58,62014
 591,40;13251,526;   41,464;22520,209;58,76690
 591,98;13232,217;   45,759;22558,227;58,57402
 592,56;13362,241;   61,161;22699,961;58,75347
 593,14;13329,018;   43,359;22728,928;58,56436
 593,72;13394,142;   29,765;22889,107;58,46352
 594,30;13349,240;   36,759;22797,486;58,48882
 594,89;13375,973;   41,364;22862,428;58,43114
 595,47;13397,349;   38,961;22922,623;58,37522
 596,05;13400,488;   30,267;23003,799;58,19837
 596,63;13521,089;   31,167;23056,199;58,58807
 597,21;13515,250;   36,766;23145,441;58,32651
 597,79;13487,565;   35,467;23166,039;58,15722
 598,37;13522,074;   36,669;23222,748;58,16165
 598,95;13560,073;   50,766;23305,301;58,09322
 599,53;13562,578;   46,757;23207,996;58,35535
 600,11;13621,719;   48,665;23341,947;58,27025
 600,70;13508,411;   57,363;23315,111;57,83470
 601,28;13520,227;   38,564;23424,809;57,64783
 601,86;13457,673;   61,766;23355,102;57,50961
 602,44;13490,041;   23,661;23449,660;57,48476
 603,02;13534,894;   38,656;23576,521;57,33841
 603,60;13583,386;   54,858;23663,232;57,30394
 604,18;13451,241;   69,263;23594,734;56,88293
 604,76;13472,172;   59,263;23642,154;56,87559
 605,34;13274,580;   27,565;23530,764;56,36260
 605,92;13229,664;   59,561;23453,719;56,29655
 606,50;13140,033;   17,662;23498,998;55,88426
 607,08;13090,343;   31,666;23394,881;55,89418
 607,66;13057,649;   39,266;23561,643;55,34468
 608,24;12928,212;   46,067;23522,059;54,87370
 608,82;12905,557;   26,164;23532,031;54,79225
 609,40;12785,919;   46,466;23471,021;54,38504
 609,98;12610,673;   18,864;23505,928;53,61168
 610,56;12545,125;   43,861;23497,662;53,30166
 611,14;12388,511;   30,765;23481,086;52,69755
 611,72;12234,365;   42,665;23572,467;51,81387
 612,30;12059,249;   24,962;23468,496;51,33307
 612,88;11894,002;   60,659;23517,730;50,44681
 613,46;11622,634;   21,862;23505,697;49,39897
 614,04;11371,189;   30,068;23461,873;48,40054
 614,62;11131,172;   41,561;23489,982;47,29364
 615,20;10875,250;   52,768;23402,416;46,34966
 615,78;10583,628;   25,569;23463,430;45,04702
 616,36;10354,703;   41,364;23400,150;44,15186
 616,94;10022,649;    7,666;23272,242;43,04821
 617,52; 9757,327;   24,067;23373,656;41,68493
 618,10; 9653,471;   63,559;23336,107;41,20697
 618,68; 9402,627;   17,966;23253,184;40,38981
 619,26; 9332,297;   39,268;23398,834;39,78254
 619,84; 9188,441;   18,963;23277,133;39,42476
 620,42; 9157,941;   31,165;23313,506;39,20043
 621,00; 9233,042;   28,865;23209,607;39,70614
 621,58; 9278,387;   38,760;23216,406;39,86439
 622,16; 9379,536;   49,270;23335,164;40,06832
 622,74; 9524,649;   47,066;23327,742;40,71009
 623,32; 9674,004;   42,166;23291,223;41,42894
 623,90; 9774,782;   66,971;23311,484;41,76388
 624,48; 9843,833;   32,662;23196,598;42,35537
 625,05;10010,833;   34,562;23105,098;43,24248
 625,63;10092,434;   52,962;23188,799;43,39360
 626,21;10185,148;   38,262;23117,596;43,96525
 626,79;10302,835;   53,967;23219,719;44,24147
 627,37;10247,479;   28,162;23090,717;44,31130
 627,95;10395,851;   72,768;23200,215;44,63564
 628,53;10380,441;   49,365;23176,607;44,67059
 629,11;10287,348;   48,259;23043,449;44,52709
 629,69;10363,912;   53,369;23256,932;44,43517
 630,27;10353,241;   80,763;23105,434;44,61509
 630,84;10370,634;   43,862;23021,197;44,94330
 631,42;10326,027;   54,367;23319,656;44,15015
 632,00;10180,494;   45,459;23125,768;43,91204
 632,58;10157,834;   50,263;23105,172;43,84130
 633,16;10124,213;   49,870;23096,906;43,71210
 633,74;10072,195;   56,264;23018,488;43,61917
 634,32; 9975,595;   45,661;23007,842;43,24473
 634,90; 9960,090;   51,970;23195,746;42,81116
 635,47; 9777,179;   38,860;23035,645;42,34644
 636,05; 9753,295;   37,461;22989,342;42,33132
 636,63; 9619,542;   45,965;23104,807;41,51803
 637,21; 9622,572;   67,464;23150,529;41,39445
 637,79; 9591,558;   71,465;23192,904;41,17431
 638,37; 9388,301;   54,055;23070,883;40,55401
 638,94; 9280,611;   33,265;23100,686;40,08834
 639,52; 9245,711;   41,665;23195,285;39,75208
 640,10; 9174,628;   64,264;23215,900;39,35084
 640,68; 9116,193;   54,164;23175,334;39,19365
 641,26; 8997,259;   35,864;23250,268;38,60274
 641,84; 8956,925;   39,164;23235,002;38,44552
 642,41; 8825,689;   28,264;23192,936;37,97777
 642,99; 8787,355;   48,464;23145,568;37,83544
 643,57; 8721,320;   22,064;23158,402;37,59997
 644,15; 8675,586;   27,064;23178,035;37,35706
 644,73; 8674,852;   37,564;23277,568;37,16560
 645,30; 8633,217;   55,264;23230,303;37,01376
 645,88; 8623,082;   44,964;23362,635;36,78806
 646,46; 8666,247;   59,264;23447,568;36,80037
 647,04; 8639,313;   51,864;23367,902;36,83065
 647,61; 8694,278;   46,564;23396,336;37,03554
 648,19; 8793,144;   61,664;23433,369;37,35919
 648,77; 8832,109;   26,264;23442,002;37,60652
 649,35; 8892,574;   51,064;23590,137;37,56100
 649,92; 8972,439;   42,464;23596,070;37,91341
 650,50; 9025,405;   30,064;23551,104;38,24381
 651,08; 9110,771;   39,964;23450,537;38,74662
 651,66; 9180,636;   21,864;23534,770;38,95210
 652,23; 9219,001;   39,064;23561,004;39,02712
 652,81; 9281,767;   36,464;23644,137;39,16228
 653,39; 9362,932;   56,164;23647,170;39,45049
 653,97; 9384,897;   37,065;23882,504;39,20176
 654,54; 9287,363;   23,565;23823,137;38,92422
 655,12; 9422,028;   30,965;23831,971;39,45658
 655,70; 9413,294;   42,065;23962,805;39,17617
 656,28; 9466,859;   32,765;23947,037;39,44964
 656,85; 9382,024;   44,065;24051,070;38,89681
 657,43; 9298,890;   -1,035;23831,305;39,02229
 658,01; 9345,355;   21,465;24078,539;38,75738
 658,58; 9369,820;   55,165;24234,371;38,52341
 659,16; 9288,586;   51,965;24154,105;38,32282
 659,74; 9326,552;   59,465;24338,039;38,16982
 660,32; 9324,917;   71,665;24327,672;38,14829
 660,89; 9229,282;   34,265;24347,305;37,81928
 661,47; 9255,247;   51,665;24464,939;37,69909
 662,05; 9269,213;   25,365;24587,373;37,63474
 662,62; 9346,479;   59,665;24584,006;37,86774
 663,20; 9385,344;   80,665;24740,139;37,73267
 663,78; 9444,109;   47,965;24902,773;37,80413
 664,35; 9465,574;   52,465;24921,006;37,85147
 664,93; 9556,240;   64,465;25123,539;37,87760
 665,51; 9645,505;   49,565;25170,973;38,19826
 666,08; 9661,671;   30,165;25185,707;38,28781
 666,66; 9847,936;   47,465;25667,539;38,25309
 667,23; 9823,102;   51,765;25732,773;38,04888
 667,81; 9947,066;   65,865;25889,307;38,26446
 668,39;10001,632;   43,265;26047,141;38,29570
 668,96;10148,598;   54,665;26309,074;38,44662
 669,54;10182,363;   38,765;26408,408;38,46695
 670,12;10346,429;   51,165;26808,740;38,47607
 670,69;10357,794;   64,165;26950,674;38,28548
 671,27;10360,759;   25,565;27096,008;38,17889
 671,84;10270,524;   40,665;27105,240;37,79797
 672,42;10304,490;   66,265;27253,875;37,65769
 673,00;10283,455;   57,165;27531,408;37,22137
 673,57;10225,320;   59,965;27276,441;37,35000
 674,15;10186,586;   64,065;27613,475;36,74315
 674,72;10125,651;   58,565;27536,209;36,63737
 675,30;10040,217;   69,466;27513,541;36,33116
 675,88;10041,782;   36,266;27573,176;36,33493
 676,45;10047,048;   59,466;27677,309;36,16351
 677,03;10000,113;   67,866;27525,043;36,17359
 677,60; 9959,979;   41,466;27770,576;35,76931
 678,18;10081,544;   59,466;27877,510;36,02726
 678,76;10081,709;   40,766;27809,143;36,15963
 679,33;10128,574;   57,666;27813,176;36,28436
 679,91;10197,340;   44,266;27813,311;36,56256
 680,48;10317,405;   28,766;27740,242;37,12772
 681,06;10330,570;   50,866;27735,176;37,13188
 681,63;10406,636;   37,566;27736,209;37,43530
 682,21;10601,102;   67,966;27797,543;37,98520
 682,78;10488,467;   20,566;27459,576;38,14970
 683,36;10660,933;   46,966;27565,510;38,57023
 683,93;10772,197;   30,466;27450,645;39,17455
 684,51;10902,963;   26,166;27477,277;39,62243
 685,08;10991,628;   38,966;27733,711;39,54780
 685,66;11068,094;   53,066;27694,045;39,85035
 686,24;11127,859;   33,766;27796,578;39,96027
 686,81;11198,625;   57,666;27899,910;40,01459
 687,39;11196,590;   38,866;27807,844;40,18053
 687,96;11156,955;   54,166;27850,479;39,94339
 688,54;11220,521;   30,866;27984,811;40,02889
 689,11;11196,586;   26,966;28043,545;39,86789
 689,69;11104,752;   29,666;28019,279;39,56856
 690,26;11181,316;   59,466;28289,313;39,39749
 690,84;11023,482;   50,066;28239,846;38,92693
 691,41;11023,248;   35,966;28403,879;38,73137
 691,98;10968,913;   31,466;28427,912;38,51696
 692,56;10915,179;   32,866;28437,445;38,31182
 693,13;10991,544;   64,866;28655,080;38,21824
 693,71;10868,909;   24,466;28657,912;37,87334
 694,28;10868,475;   41,966;28715,945;37,75726
 694,86;11016,540;   47,266;28928,879;37,98013
 695,43;10937,205;   61,366;29100,912;37,45182
 696,01;11042,271;   36,266;29145,547;37,80926
 696,58;11075,536;   42,167;29083,879;37,99146
 697,16;11193,201;   38,067;29126,414;38,34915
 697,73;11394,267;   63,467;29338,246;38,70499
 698,30;11355,933;   51,867;29223,980;38,74956
 698,88;11605,598;   40,467;29558,613;39,17973
 699,45;11758,763;   35,367;29765,848;39,43224
 700,03;11873,729;   56,067;29750,980;39,79692
 700,60;12066,394;   56,267;29850,613;40,31009
 701,18;12245,459;   61,867;29963,947;40,74497
 701,75;12472,425;   74,367;30094,682;41,29889
 702,32;12505,890;   50,367;29901,914;41,72488
 702,90;12722,556;   52,467;30254,148;41,95160
 703,47;12766,321;   51,367;30428,881;41,85647
 704,05;12943,386;   67,767;30546,715;42,24430
 704,62;13007,552;   39,867;30587,848;42,45022
 705,19;12992,517;   43,667;30586,982;42,39504
 705,77;13109,582;   29,967;30618,314;42,76012
 706,34;13273,348;   61,667;30627,049;43,22433
 706,91;13306,713;   46,367;30673,883;43,29553
 707,49;13240,078;   57,267;30976,316;42,63653
 708,06;13282,244;   66,367;31089,049;42,60069
 708,64;13178,010;   25,767;31093,582;42,33398
 709,21;13193,074;   58,167;31179,316;42,20573
 709,78;13183,340;   41,367;31281,150;42,06807
 710,36;13134,405;   61,667;31419,684;41,68866
 710,93;13110,671;   50,567;31562,416;41,44506
 711,50;13113,736;   44,467;31506,049;41,54041
 712,08;13185,302;   76,567;31925,383;41,15925
 712,65;13199,667;   73,667;31775,916;41,40400
 713,22;13220,133;   69,067;31900,250;41,31504
 713,80;13291,098;   84,167;31966,883;41,42348
 714,37;13154,563;   55,767;31827,018;41,22846
 714,94;13258,229;   53,967;31727,551;41,68856
 715,52;13388,094;   47,867;31732,984;42,10250
 716,09;13546,159;   65,467;31891,918;42,35688
 716,66;13582,225;   73,467;31935,051;42,39826
 717,23;13825,590;   66,867;31908,484;43,20987
 717,81;13912,455;   50,168;31812,018;43,64446
 718,38;13921,921;   47,468;31671,252;43,87348
 718,95;14097,387;   59,068;31618,984;44,48148
 719,53;14148,252;   56,568;31661,418;44,58709
 720,10;14202,017;   59,968;31481,252;45,00786
 720,67;14318,883;   35,768;31355,984;45,60350
 721,24;14354,948;   59,468;31256,020;45,82391
 721,82;14338,713;   49,968;31236,053;45,81769
 722,39;14503,479;   64,068;31235,885;46,32201
 722,96;14616,444;   64,968;31261,420;46,64465
 723,53;14620,109;   88,268;31151,953;46,78080
 724,11;14736,774;   61,568;31207,486;47,11759
 724,68;14778,540;   71,568;31242,020;47,18242
 725,25;14823,506;   72,768;31399,953;47,08606
 725,82;14936,571;   96,068;31564,387;47,16014
 726,40;14867,236;   62,668;31714,820;46,77271
 726,97;14848,002;   62,168;31875,354;46,47706
 727,54;14814,267;   46,968;31801,486;46,50456
 728,11;14888,433;   49,568;32045,820;46,37688
 728,69;14818,498;   39,568;31938,953;46,32983
 729,26;14896,163;   53,568;32105,088;46,30855
 729,83;14858,929;   53,268;32264,621;45,96411
 730,40;14914,394;   66,768;32291,754;46,07489
 730,97;14985,459;   44,268;32590,588;45,90747
 731,55;15081,425;   41,468;32755,820;45,97357
 732,12;15168,090;   86,268;32841,656;46,04379
 732,69;15186,655;   66,968;32889,988;46,06428
 733,26;15318,921;   55,168;32930,520;46,42917
 733,83;15414,187;   41,168;32979,055;46,67275
 734,41;15568,852;   65,468;32991,590;47,08536
 734,98;15697,018;   51,368;33155,621;47,26175
 735,55;15847,183;   43,168;33183,656;47,68793
 736,12;16037,147;   65,968;33377,289;47,94520
 736,69;16232,713;   76,968;33377,922;48,51436
 737,26;16307,579;   57,468;33552,254;48,51534
 737,84;16512,344;   70,768;33487,188;49,20209
 738,41;16561,809;   63,168;33492,422;49,35390
 738,98;16667,176;   63,569;33375,055;49,84349
 739,55;16805,840;   49,669;33377,789;50,27638
 740,12;16965,506;   62,969;33678,023;50,28264
 740,69;17138,871;   70,569;33575,656;50,94242
 741,26;17068,236;   56,269;33557,391;50,78029
 741,83;17117,902;   53,869;33719,523;50,68677
 742,41;17243,168;   56,169;33833,055;50,88391
 742,98;17365,232;   91,469;33874,590;51,13134
 743,55;17235,098;   53,569;33836,824;50,85812
 744,12;17214,963;   50,469;33859,855;50,76843
 744,69;17244,828;   59,569;33848,492;50,86063
 745,26;17151,594;   42,169;33677,723;50,86708
 745,83;17177,160;   58,769;33854,355;50,65274
 746,40;17154,225;   57,969;33844,789;50,60037
 746,97;17164,791;   44,769;33828,125;50,67591
 747,55;17119,756;   62,269;33966,957;50,31011
 748,12;17164,121;   57,869;33910,191;50,53199
 748,69;17085,486;   68,769;33877,625;50,33213
 749,26;17131,951;   65,069;33958,559;50,35446
 749,83;17098,717;   42,569;33911,992;50,35854
 750,40;17205,982;   89,669;34158,824;50,23991
 750,97;17208,148;   96,269;34144,160;50,25827
 751,54;17288,113;   40,569;33980,793;50,81741
 752,11;17320,078;   52,969;33874,727;51,05326
 752,68;17441,545;   87,869;33912,859;51,30430
 753,25;17523,410;   60,269;33774,594;51,79739
 753,82;17482,775;   65,069;33810,527;51,61496
 754,39;17742,240;   75,169;33727,160;52,49933
 754,96;17851,406;   60,069;33616,395;53,01932
 755,53;17979,371;   29,469;33796,527;53,15803
 756,10;18130,236;   64,169;33720,961;53,67733
 756,67;18173,701;   73,369;33813,395;53,64647
 757,24;18235,768;   72,769;33740,426;53,94791
 757,81;18333,934;   16,469;33677,762;54,41700
 758,38;18429,299;   54,569;33822,695;54,41442
 758,95;18368,363;   79,469;33743,426;54,32782
 759,52;18497,229;   57,469;33615,859;54,94828
 760,09;18443,094;   68,570;33306,992;55,28098
 760,66;18537,061;   59,570;33309,727;55,57114
 761,23;18487,324;   91,070;33353,961;55,30564
 761,80;18405,090;   56,270;33295,793;55,20182
 762,37;18277,557;   68,970;33167,727;55,01290
 762,94;18485,521;   70,970;33187,461;55,60538
 763,51;18302,287;   36,070;32949,793;55,49727
 764,08;18186,951;   66,270;32998,527;55,02411
 764,65;18078,316;   69,570;32798,961;55,02316
 765,22;18041,883;   54,670;32804,496;54,92308
 765,79;18027,648;   77,370;32691,928;55,03763
 766,36;17875,713;   73,170;32743,063;54,49220
 766,93;17873,578;   68,970;32551,295;54,81322
 767,50;17868,344;   89,470;32828,328;54,30511
 768,07;17826,209;   63,870;32699,262;54,42662
 768,64;17693,275;   86,470;32572,596;54,19792
 769,21;17530,641;   57,970;32359,729;54,09201
 769,78;17421,006;   78,770;32244,963;53,91448
 770,34;17351,971;   45,570;32031,195;54,10681
 770,91;17406,736;   58,470;31921,430;54,44650
 771,48;17398,602;   62,370;31836,863;54,56021
 772,05;17340,967;   66,470;31610,697;54,76278
 772,62;17273,732;   42,670;31443,029;54,87537
 773,19;17425,898;   59,370;31579,764;55,09617
 773,76;17428,564;   71,070;31506,297;55,21670
 774,33;17478,328;   74,170;31447,330;55,47467
 774,90;17343,094;   52,870;31206,064;55,50064
 775,47;17403,859;   59,970;30957,498;56,13358
 776,03;17495,125;   73,470;30984,330;56,36095
 776,60;17434,391;   55,970;30757,863;56,60374
 777,17;17455,656;   65,470;30698,098;56,77014
 777,74;17462,922;   30,870;30522,031;57,17084
 778,31;17506,688;   68,970;30582,064;57,14831
 778,88;17394,652;   30,470;30366,898;57,23872
 779,45;17343,217;   75,770;30358,131;57,02147
 780,01;17394,684;   58,370;30299,664;57,32663
 780,58;17350,748;   60,570;30177,998;57,40921
 781,15;17327,213;   38,771;29979,432;57,74235
 781,72;17251,479;   66,771;29962,266;57,48260
 782,29;17185,844;   51,771;29667,100;57,85542
 782,86;17072,811;   55,571;29617,732;57,56426
 783,42;17085,275;   56,171;29598,166;57,64372
 783,99;16896,840;   66,671;29482,100;57,21545
 784,56;16851,307;   55,171;29320,232;57,39313
 785,13;16705,570;   40,271;29247,266;57,05928
 785,70;16586,736;   49,071;29060,299;57,00436
 786,26;16466,102;   51,671;28910,732;56,87791
 786,83;16354,768;   84,371;28889,166;56,48503
 787,40;16244,433;   57,171;28783,500;56,34991
 787,97;16169,198;   43,971;28581,133;56,50607
 788,54;16041,363;   70,371;28515,268;56,14713
 789,10;15969,129;   57,971;28344,400;56,25015
 789,67;15995,095;   70,371;28245,334;56,52083
 790,24;15979,960;   51,071;28193,768;56,60044
 790,81;15802,525;   88,271;27914,400;56,47302
 791,37;15847,891;   73,671;27872,135;56,74493
 791,94;15812,656;   70,771;27886,367;56,59374
 792,51;15848,621;   46,271;27539,201;57,47787
 793,08;15750,787;   69,771;27555,234;57,05203
 793,64;15690,752;   71,271;27455,168;57,03893
 794,21;15728,617;   69,671;27250,602;57,61004
 794,78;15683,583;   53,071;27147,035;57,69001
 795,35;15578,349;   73,471;27007,969;57,56513
 795,91;15542,214;   48,071;26789,301;57,94103
 796,48;15528,679;   55,771;26710,734;58,04888
 797,05;15558,244;   57,671;26624,369;58,34588
 797,62;15504,109;   41,971;26600,701;58,21867
 798,18;15359,976;   57,471;26410,736;58,06682
 798,75;15349,141;   56,571;26279,770;58,31695
 799,32;15284,605;   60,771;26209,102;58,22106
 799,88;15227,972;   55,971;26051,535;58,36381
 800,45;15195,637;   33,971;25945,270;58,51372
 801,02;15160,603;   65,271;25880,104;58,47542
 801,58;15087,567;   90,872;25660,436;58,65057
 802,15;14944,033;   72,872;25615,270;58,22148
 802,72;14758,398;   66,172;25404,703;57,98373
 803,28;14735,063;   49,172;25288,938;58,18553
 803,85;14592,929;   41,972;25144,871;57,96524
 804,42;14402,694;   77,772;24948,004;57,59867
 804,98;14519,560;  100,672;24935,537;58,05905
 805,55;14338,226;   56,972;24702,371;57,94694
 806,12;14198,490;   83,572;24611,004;57,54748
 806,68;14017,656;   66,472;24493,738;57,11316
 807,25;13959,722;   74,972;24436,271;56,99511
 807,82;13938,187;   86,872;24407,805;56,95223
 808,38;13829,052;   73,672;24367,037;56,62196
 808,95;13775,218;   62,972;24166,971;56,88785
 809,52;13767,283;   50,272;24162,004;56,88937
 810,08;13751,349;   55,172;23994,938;57,21099
 810,65;13767,813;   77,172;24169,672;56,82533
 811,21;13727,679;   69,972;24123,404;56,78070
 811,78;13781,744;   92,472;24337,539;56,46209
 812,35;13756,710;   64,972;24173,871;56,79122
 812,91;13835,875;   90,072;24239,705;56,91930
 813,48;13772,041;   68,172;24202,738;56,78109
 814,04;13792,506;   64,172;24088,373;57,14377
 814,61;13787,972;   77,572;24176,006;56,89332
 815,18;13699,637;   67,772;23892,539;57,21720
 815,74;13732,002;   69,772;23709,172;57,79432
 816,31;13714,867;   83,372;23614,406;57,92986
 816,87;13622,133;   43,272;23489,641;57,91456
 817,44;13553,398;   76,972;23452,273;57,65242
 818,00;13371,863;   43,272;23159,506;57,65901
 818,57;13433,829;   71,872;23076,340;58,08418
 819,14;13414,994;   82,872;22924,273;58,36823
 819,70;13315,060;   72,672;22792,707;58,28507
 820,27;13306,125;   62,972;22691,941;58,52300
 820,83;13168,091;   70,072;22541,373;58,28776
 821,40;12988,256;   98,072;22431,908;57,71594
 821,96;12849,121;   75,272;22315,541;57,43568
 822,53;12885,587;   70,973;22257,574;57,75835
 823,09;12798,752;   81,073;22073,309;57,82804
 823,66;12678,617;   68,173;21862,541;57,86102
 824,22;12536,883;   77,173;21851,674;57,22156
 824,79;12339,248;   75,473;21561,408;57,07815
 825,35;12299,813;   65,173;21648,041;56,68682
 825,92;12193,379;   75,173;21398,875;56,82975
 826,48;12228,545;   87,673;21501,309;56,69692
 827,05;11965,110;   89,573;21448,242;55,60055
 827,61;11905,476;   75,273;21249,076;55,87188
 828,18;11794,841;   60,873;21191,209;55,53138
 828,74;11755,706;   91,673;21053,543;55,64405
 829,31;11684,172;   83,373;21002,176;55,45632
 829,87;11645,937;   73,073;20733,709;56,01407
 830,44;11645,803;   85,173;20631,443;56,26632
 831,00;11525,567;   91,273;20673,977;55,55293
 831,57;11600,333;  101,573;20631,609;56,00945
 832,13;11437,998;   72,073;20323,344;56,12450
 832,69;11476,164;   58,173;20309,477;56,38151
 833,26;11475,629;   85,473;20322,711;56,28315
 833,82;11425,595;   93,073;20197,744;56,36761
 834,39;11356,460;   78,773;20137,477;56,22341
 834,95;11339,625;   57,173;19959,410;56,68937
 835,52;11322,690;   87,873;19851,744;56,84523
 836,08;11403,756;   95,573;19951,877;56,95009
 836,64;11292,422;   76,273;19800,711;56,86423
 837,21;11279,287;   88,673;19552,443;57,49459
 837,77;11195,652;   91,873;19491,777;57,23626
 838,34;11173,218;   67,473;19470,012;57,23862
 838,90;11144,683;   64,473;19306,045;57,58474
 839,46;11142,748;   83,873;19312,479;57,51262
 840,03;11049,614;   76,173;19300,811;57,08009
 840,59;10929,079;   85,873;19175,645;56,80113
 841,16;10909,845;  105,173;19156,578;56,71325
 841,72;10794,610;   59,373;18965,512;56,78175
 842,28;10748,676;   77,873;18857,246;56,82193
 842,85;10726,341;   95,573;18812,578;56,79738
 843,41;10667,506;  105,374;18740,813;56,67767
 843,97;10546,771;   89,174;18686,846;56,23068
 844,54;10494,237;  104,774;18624,979;56,09800
 845,10;10333,303;   89,174;18523,713;55,57030
 845,67;10261,067;   68,774;18413,445;55,55997
 846,23;10229,434;   78,674;18361,080;55,52201
 846,79;10108,799;   90,474;18265,613;55,12104
 847,36; 9951,364;   55,774;18179,047;54,60156
 847,92; 9949,529;   84,874;18034,680;54,95689
 848,48; 9915,795;   41,874;18039,213;54,86323
 849,04; 9850,160;   62,374;17949,447;54,71989
 849,61; 9833,825;   56,274;17918,580;54,73846
 850,17; 9875,991;   68,174;17819,514;55,25114
 850,73; 9794,356;   71,474;17764,848;54,95211
 851,30; 9739,821;   46,074;17669,881;55,00371
 851,86; 9745,587;   75,874;17597,914;55,18600
 852,42; 9819,752;   51,174;17568,348;55,76572
 852,99; 9844,618;   79,274;17583,082;55,78983
 853,55; 9773,783;   83,174;17542,514;55,50387
 854,11; 9697,148;   70,074;17432,049;55,44919
 854,67; 9687,414;   85,474;17420,881;55,38918
 855,24; 9600,979;   51,874;17213,414;55,64247
 855,80; 9724,245;   76,874;17244,848;56,19400
 856,36; 9683,110;   80,574;17175,881;56,17060
 856,92; 9600,575;   54,474;17027,215;56,24372
 857,49; 9593,940;   81,274;17048,248;56,06578
 858,05; 9563,706;   67,274;16968,482;56,18789
 858,61; 9481,071;   65,774;17003,316;55,58833
 859,17; 9430,438;   77,374;16904,250;55,58408
 859,74; 9339,502;   82,074;16836,883;55,25236
 860,30; 9304,368;   93,074;16663,016;55,59038
 860,86; 9228,333;   72,074;16692,350;55,09090
 861,42; 9138,599;   74,674;16545,883;55,02890
 861,99; 9004,564;   54,674;16506,717;54,39987
 862,55; 8987,129;   66,374;16393,051;54,63913
 863,11; 8900,995;   75,174;16437,283;53,94061
 863,67; 8830,260;   61,274;16290,117;54,03334
 864,23; 8816,926;   80,175;16199,351;54,20098
 864,80; 8713,391;   69,175;16081,384;53,98516
 865,36; 8719,057;   71,875;16120,817;53,88007
 865,92; 8673,722;   96,175;16088,751;53,63455
 866,48; 8569,387;   67,375;15987,384;53,40457
 867,04; 8568,253;   60,675;15891,418;53,74086
 867,60; 8489,918;   99,375;15884,451;53,15491
 868,17; 8436,283;   93,675;15884,685;52,83138
 868,73; 8409,749;   82,775;15672,618;53,41282
 869,29; 8338,114;   59,475;15470,151;53,72016
 869,85; 8428,079;  100,475;15369,685;54,53854
 870,41; 8281,845;   80,575;15293,418;53,91017
 870,97; 8271,811;   92,975;15232,252;54,02395
 871,54; 8178,476;   84,175;15178,686;53,62413
 872,10; 8180,441;   84,275;15055,419;54,07847
 872,66; 8159,406;   66,775;14910,652;54,51831
 873,22; 8110,072;   81,975;14890,586;54,21236
 873,78; 8001,537;   65,275;14742,419;54,07225
 874,34; 7961,703;   95,075;14662,652;54,00093
 874,90; 7928,303;  109,775;14536,053;54,19643
 875,46; 7876,703;   96,375;14412,952;54,34489
 876,03; 7786,203;   86,475;14363,353;53,93145
 876,59; 7735,703;   64,475;14153,253;54,44921
 877,15; 7671,502;  101,475;14166,853;53,82029
 877,71; 7648,303;   78,275;14064,652;54,12429
 878,27; 7538,703;   95,675;13910,553;53,87690
 878,83; 7536,502;  114,275;13971,753;53,56117
 879,39; 7487,103;   91,075;14082,753;52,86019
 879,95; 7380,502;   86,275;13964,253;52,55973
 880,51; 7382,803;   75,175;13927,253;52,75474
 881,07; 7294,203;   82,375;13978,753;51,89718
 881,63; 7296,902;   92,575;13971,253;51,90932
 882,19; 7353,502;   82,675;13921,553;52,53914
 882,75; 7290,002;   86,275;14019,553;51,70160
 883,31; 7353,203;   95,575;14187,853;51,50074
 883,88; 7349,703;   96,375;14174,353;51,52251
 884,44; 7322,502;   76,175;14175,753;51,39393
 885,00; 7361,902;  106,075;14266,952;51,23854
 885,56; 7402,902;  101,675;14299,452;51,42514
 886,12; 7485,402;  109,875;14421,152;51,53647
 886,68; 7439,603;   90,775;14436,753;51,22570
 887,24; 7564,402;  102,475;14574,952;51,55943
 887,80; 7574,603;   86,975;14671,753;51,33865
 888,36; 7607,402;  106,275;14715,652;51,34461
 888,92; 7609,902;   98,975;14773,353;51,18396
 889,48; 7740,902;   99,575;14973,853;51,37276
 890,04; 7772,603;   95,275;14803,053;52,19910
 890,60; 7862,502;  117,475;15014,652;51,98990
 891,16; 7843,103;   99,875;15075,853;51,70432
 891,72; 7895,902;  113,275;15058,452;52,07451
 892,28; 7948,303;  112,475;15126,053;52,19161
 892,84; 7886,203;   93,775;15039,853;52,13694
 893,39; 7958,002;  117,575;15112,952;52,28563
 893,95; 7793,502;  112,975;15044,753;51,43746
 894,51; 7656,803;   66,375;14891,253;51,20061
 895,07; 7698,902;  127,375;14906,353;51,23174
 895,63; 7490,203;   74,275;14689,952;50,73954
 896,19; 7484,902;   90,375;14601,952;50,95606
 896,75; 7436,603;  105,175;14460,152;51,07237
 897,31; 7351,803;   82,775;14295,853;51,14324
 897,87; 7161,703;   98,175;14146,853;50,27895
 898,43; 7158,203;   87,775;14075,753;50,54646
 898,99; 6995,002;  109,175;14002,753;49,56123
 899,55; 6944,203;  109,475;13940,652;49,41537
 900,11; 6868,502;  104,975;13747,553;49,57661
 900,67; 6719,103;   91,375;13658,652;48,85083
 901,22; 6657,402;  108,375;13601,952;48,53440
 901,78; 6561,002;   91,275;13560,053;48,03500
 902,34; 6561,902;  103,075;13451,152;48,38770
 902,90; 6408,103;   73,575;13350,652;47,71026
 903,46; 6337,703;   95,775;13236,353;47,50117
 904,02; 6293,603;   88,075;13091,553;47,72206
 904,58; 6238,103;   67,075;12918,152;48,01953
 905,14; 6184,203;   63,975;12874,553;47,77480
 905,70; 6186,603;   66,775;12696,053;48,45746
 906,25; 6206,502;   84,375;12708,452;48,49564
 906,81; 6161,303;   87,675;12732,152;48,03384
 907,37; 6113,402;   79,275;12616,152;48,13102
 907,93; 6115,803;   74,775;12588,152;48,27656
 908,49; 6109,002;  101,875;12497,652;48,46108
 909,05; 6045,803;   89,675;12425,553;48,28297
 909,60; 6013,103;   86,575;12340,452;48,36451
 910,16; 5954,703;   67,675;12291,853;48,15889
 910,72; 5931,703;  100,475;12207,753;48,16299
 911,28; 5844,103;   90,875;12156,053;47,68457
 911,84; 5785,402;   79,575;12106,753;47,44112
 912,39; 5718,002;   73,475;12049,353;47,13247
 912,95; 5687,402;  104,475;12001,452;46,92728
 913,51; 5590,502;   85,375;11945,253;46,41808
 914,07; 5567,002;   83,775;11813,452;46,74662
 914,63; 5499,303;   64,775;11748,053;46,51544
 915,18; 5431,803;   77,475;11617,853;46,39647
 915,74; 5350,002;   63,975;11632,652;45,69258
 916,30; 5334,203;   61,475;11588,553;45,74210
 916,86; 5302,103;   83,575;11514,652;45,65211
 917,42; 5229,803;   82,275;11425,152;45,38115
 917,97; 5094,303;   75,375;11265,452;44,85159
 918,53; 5032,303;   67,775;11196,253;44,61102
 919,09; 5050,402;   88,975;11223,753;44,55794
 919,65; 4983,502;   83,375;11083,452;44,54630
 920,20; 4892,002;   61,875;10983,053;44,22717
 920,76; 4819,402;   65,475;10849,452;44,08325
 921,32; 4750,502;   82,675;10770,952;43,67240
 921,87; 4736,203;   97,475;10670,253;43,87426
 922,43; 4633,803;   64,675;10561,353;43,52928
 922,99; 4591,203;   61,875;10406,753;43,78329
 923,55; 4559,103;   63,775;10357,353;43,67119
 924,10; 4511,002;   73,575;10282,853;43,46466
 924,66; 4523,603;   78,675;10170,152;44,04635
 925,22; 4371,402;   43,275;10093,952;43,06304
 925,77; 4353,203;   66,075; 9927,053;43,47569
 926,33; 4344,902;   90,375; 9903,253;43,35657
 926,89; 4232,803;   71,975; 9692,753;43,24835
 927,44; 4167,603;   52,175; 9580,553;43,19127
 928,00; 4135,103;   66,875; 9533,753;42,97328
 928,56; 4136,002;   80,375; 9372,253;43,64702
 929,12; 4059,603;   72,775; 9275,152;43,32389
 929,67; 3951,702;   67,575; 9091,053;43,04468
 930,23; 3875,802;   50,975; 8915,253;43,14878
 930,78; 3860,702;  100,675; 8842,553;43,01167
 931,34; 3766,502;   61,975; 8632,152;43,22580
 931,90; 3656,903;   61,675; 8494,353;42,63447
 932,45; 3588,202;   78,775; 8290,753;42,73547
 933,01; 3398,502;   52,975; 8024,453;41,96872
 933,57; 3285,103;   72,175; 7753,252;41,82913
 934,12; 3122,302;   70,475; 7399,553;41,63999
 934,68; 2920,702;   59,075; 7020,252;41,10838
 935,24; 2761,002;   67,875; 6614,752;41,13606
 935,79; 2590,403;   72,975; 6254,853;40,72270
 936,35; 2421,103;   91,375; 5812,252;40,72326
 936,90; 2255,302;   80,275; 5348,752;41,28380
 937,46; 2062,603;   72,775; 4956,953;40,74028
 938,02; 1905,302;   63,375; 4549,152;41,06150
 938,57; 1774,603;   73,175; 4265,053;40,58867
 939,13; 1671,902;   70,575; 3986,752;40,89006
 939,68; 1526,302;   57,375; 3713,452;40,17769
 940,24; 1450,902;   68,775; 3504,052;40,23336
 940,79; 1450,103;   91,875; 3391,052;41,16867
 941,35; 1364,302;   79,675; 3217,552;40,93938
 941,91; 1314,103;   71,375; 3122,252;40,73345
 942,46; 1266,502;   75,075; 3063,552;39,86737
 943,02; 1251,802;   65,375; 3050,752;39,74129
 943,57; 1216,502;   61,275; 2982,452;39,54664
 944,13; 1243,402;   67,375; 2974,452;40,45394
 944,68; 1252,402;   65,975; 3041,752;39,86950
 945,24; 1266,103;   82,275; 3060,052;39,75541
 945,79; 1278,703;   68,775; 3104,052;39,86217
 946,35; 1310,203;   51,775; 3194,752;40,03934
 946,90; 1362,502;   98,575; 3283,552;39,68403
 947,46; 1367,002;   52,175; 3311,052;40,34602
 948,01; 1366,203;   51,575; 3390,052;39,37806
 948,57; 1430,703;   86,775; 3552,952;38,77261
 949,12; 1410,402;   65,875; 3613,353;37,90094
 949,68; 1494,103;   76,275; 3732,653;38,77684
 950,23; 1513,103;   70,075; 3833,252;38,34599
 950,79; 1531,802;   75,775; 3933,452;37,74363
 951,34; 1573,402;   83,275; 4070,952;37,36831
 951,90; 1559,103;   57,475; 4140,853;36,77415
 952,45; 1613,802;   81,075; 4292,152;36,39751
 953,01; 1620,502;   65,975; 4364,252;36,16629
 953,56; 1653,703;   87,975; 4500,853;35,48087
 954,12; 1616,502;   42,075; 4567,553;34,79030
 954,67; 1686,302;   70,875; 4720,453;34,74353
 955,23; 1665,203;   61,975; 4804,553;33,80498
 955,78; 1692,902;   67,175; 4882,953;33,75836
 956,33; 1705,203;   58,575; 4947,252;33,68247
 956,89; 1720,103;   53,475; 5038,553;33,43233
 957,44; 1729,902;   53,675; 5170,752;32,75752
 958,00; 1753,002;   49,475; 5238,353;32,83037
 958,55; 1787,502;   70,475; 5313,953;32,74597
 959,10; 1776,703;   52,375; 5370,252;32,42511
 959,66; 1804,402;   74,275; 5488,752;31,95373
 960,21; 1818,302;   78,475; 5567,453;31,69675
 960,77; 1808,302;   54,275; 5606,152;31,59341
 961,32; 1828,703;   48,375; 5663,453;31,70620
 961,87; 1858,802;   79,775; 5738,752;31,43726
 962,43; 1850,902;   68,975; 5780,652;31,19797
 962,98; 1893,703;   76,175; 5828,652;31,59556
 963,54; 1826,203;   27,075; 5820,652;31,05383
 964,09; 1859,103;   56,275; 5873,953;30,98878
 964,64; 1863,302;   64,975; 5901,053;30,81397
 965,20; 1843,402;   44,375; 5966,652;30,37729
 965,75; 1885,703;   66,575; 5976,353;30,78166
 966,30; 1870,603;   75,275; 6068,553;29,95569
 966,86; 1867,902;   62,975; 6121,953;29,78931
 967,41; 1894,603;   81,075; 6084,453;30,20845
 967,96; 1852,902;   75,175; 6108,953;29,46293
 968,52; 1870,802;   81,775; 6126,353;29,59723
 969,07; 1837,002;   72,975; 6120,152;29,17109
 969,62; 1804,502;   77,175; 6134,953;28,51421
 970,18; 1787,302;   57,575; 6147,652;28,40239
 970,73; 1777,902;   66,475; 6203,553;27,88668
 971,28; 1797,502;   95,775; 6197,053;27,89133
 971,84; 1752,502;   55,075; 6118,752;27,99337
 972,39; 1739,703;   95,875; 6148,652;27,15824
 972,94; 1697,502;   54,975; 6140,652;26,99005
 973,49; 1671,802;   64,575; 6141,252;26,44912
 974,05; 1664,802;   64,375; 6178,053;26,17782
 974,60; 1615,703;   88,575; 6213,252;24,93401
 975,15; 1637,703;   77,675; 6231,553;25,35032
 975,71; 1573,502;   62,375; 6121,453;24,93989
 976,26; 1578,703;   77,575; 6110,252;24,88327
 976,81; 1590,302;   90,675; 6134,152;24,81398
 977,36; 1572,703;   84,775; 6156,953;24,50402
 977,92; 1573,703;   90,175; 6209,353;24,24390
 978,47; 1520,402;   77,175; 6060,252;24,12182
 979,02; 1543,603;   95,475; 6085,652;24,17504
 979,57; 1495,802;   86,775; 6058,453;23,59517
 980,13; 1465,203;   76,175; 6038,752;23,29576
 980,68; 1483,203;   77,075; 6010,553;23,69820
 981,23; 1499,502;   89,175; 6054,652;23,64149
 981,78; 1465,902;   82,075; 5974,152;23,48624
 982,33; 1450,402;   79,275; 5893,252;23,58330
 982,89; 1462,203;   94,375; 5938,152;23,40656
 983,44; 1434,103;   65,675; 5935,853;23,31152
 983,99; 1465,703;  104,775; 5949,453;23,28490
 984,54; 1407,302;   81,475; 5900,053;22,78611
 985,09; 1418,703;   87,275; 5873,752;23,00929
 985,65; 1399,002;   69,375; 5811,853;23,15425
 986,20; 1428,002;  106,575; 5791,152;23,24583
 986,75; 1397,302;   95,875; 5823,953;22,72014
 987,30; 1374,203;   97,175; 5726,053;22,68707
 987,85; 1342,203;   92,475; 5721,353;22,20207
 988,40; 1287,703;   96,675; 5693,953;21,27869
 988,96; 1312,703;  114,875; 5666,553;21,57596
 989,51; 1293,502;  108,875; 5644,053;21,40180
 990,06; 1300,902;  128,275; 5680,853;21,11861
 990,61; 1239,203;   93,575; 5569,053;20,92288
 991,16; 1241,203;  104,375; 5558,053;20,84515
 991,71; 1174,802;   79,875; 5505,853;20,17936
 992,26; 1174,502;   93,475; 5457,252;20,15422
 992,81; 1141,502;   75,075; 5427,053;19,92586
 993,37; 1132,603;  113,475; 5390,553;19,31235
 993,92; 1135,402;  108,375; 5368,953;19,52309
 994,47; 1125,703;  117,475; 5329,652;19,34369
 995,02; 1088,402;  118,475; 5313,252;18,67120
 995,57; 1056,502;   90,875; 5274,652;18,62787
 996,12; 1078,203;  133,575; 5247,553;18,47148
 996,67; 1045,402;  132,375; 5191,652;18,04660
 997,22;  994,503;   99,875; 5128,652;17,79016
 997,77; 1017,602;  115,275; 5110,553;18,06361
 998,32;  987,203;  103,775; 5015,652;17,98554
 998,87;  990,102;  114,275; 5018,752;17,85771
 999,42;  975,302;  101,675; 4972,553;17,93573
 999,97;  964,503;  109,975; 4956,353;17,63229
1000,53;  980,503;  123,475; 4993,752;17,59710
1001,08;  948,203;   98,375; 4879,053;17,77630
1001,63;  950,802;  144,475; 4878,053;17,03421
1002,18;  895,903;   85,075; 4777,453;17,27967
1002,73;  934,602;  131,375; 4813,853;17,15390
1003,28;  914,003;  103,575; 4811,953;17,21246
1003,83;  905,003;  119,075; 4691,752;17,18747
1004,38;  933,403;  137,775; 4703,152;17,42742
1004,93;  897,403;  114,375; 4680,953;17,14692
1005,48;  882,302;  104,075; 4573,053;17,41399
1006,03;  866,602;  112,775; 4525,652;17,08245
1006,58;  868,102;  111,475; 4486,553;17,29404
1007,13;  834,102;   94,475; 4466,252;16,91823
1007,68;  846,802;  104,975; 4462,453;17,02424
1008,23;  843,003;  114,575; 4425,853;16,89586
1008,78;  818,503;  107,375; 4384,152;16,62765
1009,33;  807,503;  121,875; 4307,752;16,37954
1009,88;  773,503;   84,775; 4329,553;16,22529
1010,43;  797,503;  118,875; 4320,752;16,15058
1010,98;  769,102;  100,675; 4310,053;15,87948
1011,52;  736,602;   97,075; 4264,953;15,34420
1012,07;  777,403;  144,475; 4319,252;15,16075
1012,62;  728,903;  103,875; 4259,152;15,04178
1013,17;  710,003;   97,175; 4172,053;15,03916
1013,72;  685,403;   94,575; 4143,453;14,59238
1014,27;  688,703;  100,275; 4105,853;14,69020
1014,82;  654,302;   86,875; 4042,952;14,34318
1015,37;  612,703;   84,375; 3964,853;13,61501
1015,92;  635,602;  109,475; 3894,252;13,90115
1016,47;  604,102;   90,275; 3819,452;13,77857
1017,02;  580,903;   81,075; 3732,153;13,68986
1017,57;  586,203;   96,475; 3718,853;13,51951
1018,11;  566,102;   77,275; 3656,252;13,65830
1018,66;  595,003;  120,175; 3636,552;13,50331
1019,21;  565,703;  109,675; 3579,552;13,14247
1019,76;  537,302;   77,675; 3497,353;13,44067
1020,31;  510,203;   71,975; 3446,452;12,98653
1020,86;  520,503;   96,175; 3448,052;12,65940
1021,41;  519,602;   80,175; 3387,052;13,28829
1021,96;  520,203;   83,675; 3385,853;13,21938
1022,50;  544,503;  105,975; 3332,952;13,58942
1023,05;  509,503;   94,675; 3288,052;12,99024
1023,60;  515,602;   97,975; 3251,353;13,24381
1024,15;  494,402;   81,075; 3184,853;13,31692
1024,70;  498,103;   95,075; 3176,252;13,08031
1025,25;  489,503;   81,175; 3127,452;13,40415
1025,79;  482,503;  101,175; 3110,752;12,67047
1026,34;  479,302;   83,475; 3044,653;13,36723
1026,89;  479,802;  102,175; 3039,052;12,85813
1027,44;  480,603;   95,875; 2952,952;13,46577
1027,99;  471,003;   93,475; 2944,552;13,24157
1028,53;  451,103;   89,675; 2900,052;12,86046
1029,08;  470,703;  114,775; 2876,653;12,88716
1029,63;  463,703;  114,875; 2854,952;12,73057
1030,18;  443,503;   92,075; 2788,552;13,03284
1030,73;  404,003;   91,175; 2739,552;11,81204
1031,27;  408,203;   85,875; 2715,252;12,25870
1031,82;  398,103;   81,875; 2686,452;12,14122
1032,37;  414,103;   98,875; 2688,853;12,17105
1032,92;  408,503;  100,575; 2675,452;11,95892
1033,46;  396,402;   99,775; 2599,252;11,86758
1034,01;  367,503;   78,375; 2582,952;11,54396
1034,56;  376,703;   98,875; 2559,252;11,29207
1035,11;  369,003;   92,375; 2523,552;11,37833
1035,65;  353,703;   87,575; 2478,052;11,13282
1036,20;  363,402;   99,375; 2454,452;11,21099
1036,75;  369,503;  118,675; 2446,353;10,77587
1037,29;  337,603;   90,275; 2398,252;10,71620
1037,84;  331,203;   78,375; 2347,252;11,14329
1038,39;  339,503;   91,075; 2329,952;11,09607
1038,94;  311,402;   73,075; 2277,153;10,81303
1039,48;  326,003;   83,575; 2278,552;11,04465
1040,03;  325,402;  102,875; 2245,252;10,38694
1040,58;  299,203;  101,175; 2194,552; 9,45971
1041,12;  315,402;   91,375; 2191,653;10,66657
1041,67;  316,003;  101,075; 2166,752;10,40470
1042,22;  318,703;  118,475; 2145,252; 9,87911
1042,76;  293,802;   99,275; 2118,452; 9,63400
1043,31;  300,802;   90,675; 2060,653;10,66649
1043,86;  307,703;   98,875; 2044,252;10,73455
1044,40;  304,603;   92,975; 2018,052;10,99319
1044,95;  302,603;   94,175; 1988,552;11,00243
1045,50;  271,802;   75,375; 1934,353;10,56643
1046,04;  302,103;  114,375; 1930,453;10,33698
1046,59;  274,902;   96,175; 1878,353;10,02860
1047,13;  303,902;  121,075; 1879,453;10,39751
1047,68;  293,902;  115,675; 1860,052;10,21725
1048,23;  299,603;  118,775; 1866,752;10,34496
1048,77;  266,603;   90,175; 1784,953;10,41007
1049,32;  272,203;  104,175; 1785,953; 9,99107
1049,86;  265,902;   92,675; 1760,552;10,38610
1050,41;  252,303;   82,475; 1735,552;10,27341
1050,96;  268,103;  100,875; 1698,652;10,46626
1051,50;  268,902;  101,675; 1663,252;10,70888
1052,05;  284,203;   94,675; 1664,052;12,07660
1052,59;  244,702;   82,975; 1624,152;10,49376
1053,14;  242,503;   84,475; 1582,652;10,54798
1053,69;  248,702;   98,475; 1571,453;10,19890
1054,23;  265,203;  104,575; 1569,052;10,96825
1054,78;  254,102;  100,775; 1550,152;10,57885
1055,32;  260,902;  123,075; 1550,453; 9,65599
1055,87;  212,503;   68,875; 1491,752;10,09416
1056,41;  212,902;   78,775; 1469,552; 9,64407
1056,96;  228,503;   96,775; 1451,052; 9,72677
1057,50;  248,803;  113,375; 1470,853; 9,97641
1058,05;  215,602;   82,075; 1401,953;10,11666
1058,59;  220,402;   95,875; 1396,552; 9,57405
1059,14;  224,003;  103,575; 1370,453; 9,50585
1059,68;  197,503;   75,975; 1329,353; 9,69600
1060,23;  244,003;  126,875; 1383,752; 9,31893
1060,77;  213,202;   97,375; 1317,052; 9,49657
1061,32;  231,602;  108,575; 1320,652;10,15013
1061,86;  215,602;  111,175; 1289,752; 8,86047
1062,41;  212,602;   93,975; 1242,953;10,32461
1062,95;  197,202;  109,575; 1230,853; 7,81497
1063,50;  212,702;  111,075; 1230,052; 9,08218
1064,04;  193,202;   90,475; 1197,453; 9,28000
1064,59;  214,902;  114,775; 1210,052; 9,14175
1065,13;  210,303;  103,475; 1170,552;10,01122
1065,68;  193,602;  107,275; 1161,353; 8,18986
1066,22;  212,003;  115,875; 1166,453; 9,14997
1066,76;  222,503;  130,175; 1145,252; 9,09561
1067,31;  183,303;   99,875; 1110,552; 8,25461
1067,85;  186,202;  100,975; 1090,252; 8,61513
1068,40;  194,503;  110,275; 1095,353; 8,55034
1068,94;  191,503;   99,175; 1079,353; 9,41947
1069,49;  187,003;   98,175; 1041,652; 9,41490
1070,03;  192,602;  111,175; 1034,353; 8,82035
1070,57;  177,003;   88,775; 1012,852; 9,54763
1071,12;  153,702;   75,875;  987,153; 8,54048
1071,66;  218,803;  131,775; 1039,953; 9,58265
1072,21;  196,303;  112,475; 1011,352; 9,32580
1072,75;  180,902;  104,475;  978,552; 8,74379
1073,29;  170,602;   77,075;  942,453;10,80771
1073,84;  184,702;   95,975;  941,153;10,49809
1074,38;  178,303;   93,875;  928,253;10,11862
1074,92;  180,303;  107,275;  940,153; 8,76810
1075,47;  194,003;  112,775;  938,852; 9,83292
1076,01;  199,503;  121,775;  926,253; 9,66186
1076,56;  176,202;   97,275;  891,953; 9,93202
1077,10;  164,902;   86,075;  865,253;10,11676
1077,64;  176,503;   97,875;  884,453; 9,99615
1078,19;  198,602;  123,175;  887,753; 9,86525
1078,73;  168,702;   98,775;  853,852; 9,26097
1079,27;  190,003;  121,075;  875,552; 9,13579
1079,81;  189,902;  121,375;  860,953; 9,26576
1080,36;  176,303;  105,975;  836,052; 9,63288
1080,90;  176,902;   96,375;  819,753;11,13215
1081,44;  151,902;   82,475;  789,552; 9,81894
1081,99;  129,003;   70,375;  771,753; 8,35891
1082,53;  168,202;  113,075;  798,653; 8,04103
1083,07;  167,803;  104,175;  791,453; 9,25791
1083,62;  173,303;  101,275;  772,552;10,72992
1084,16;  165,003;   98,975;  782,453; 9,66052
1084,70;  174,702;  107,475;  767,153;10,19096
1085,24;  173,702;  108,775;  750,653;10,11525
1085,79;  160,503;  109,175;  747,552; 8,04031
1086,33;  154,303;   99,075;  711,453; 9,01854
1086,87;  155,602;  102,075;  714,852; 8,73523
1087,41;  154,202;   84,475;  686,852;11,57538
1087,96;  182,503;  124,575;  732,552; 9,52790
1088,50;  149,602;  112,075;  696,953; 6,41630
1089,04;  184,003;  121,775;  715,153;10,48700
1089,58;  141,702;   82,375;  655,953;10,34341
1090,13;  149,902;  102,975;  653,153; 8,52952
1090,67;  154,303;  101,775;  678,753; 9,10391
1091,21;  149,202;   92,075;  651,852;10,20539
1091,75;  148,602;  106,875;  647,153; 7,72334
1092,29;  159,702;  105,875;  642,552;10,02977
1092,84;  152,003;  105,975;  628,352; 8,81116
1093,38;  174,902;  128,175;  662,753; 8,74101
1093,92;  174,602;  113,475;  640,052;11,60845
1094,46;  161,402;  128,175;  638,852; 6,50655
1095,00;  147,602;   93,975;  602,052;10,55498
1095,54;  147,202;   89,975;  591,352;11,41405
1096,09;  155,702;  114,975;  597,352; 8,44308
1096,63;  169,402;  117,175;  598,453;10,85185
1097,17;  147,102;  102,575;  573,052; 9,46432
1097,71;  170,602;  122,875;  582,453;10,38508
1098,25;  151,702;  103,275;  553,653;10,75265
1098,79;  159,003;  104,775;  568,753;11,68753
1099,33;  145,803;  111,975;  572,052; 7,35257
1099,88;  156,303;  110,775;  562,253;10,08411
1100,42;  126,902;   83,275;  521,253; 9,96113

