0121 ELITRO MAX
Integration time [ms]:   8,000
Averaging Nr. [scans]: 10
Smoothing Nr. [pixels]: 0
Data measured with spectrometer [name]: 7314920SP
Wave   ;Sample   ;Dark     ;Reference;Reflectance
[nm]   ;[counts] ;[counts] ;[counts] ;[%]

 199,42;  103,984;   63,873;  150,055;46,54198
 200,02;  119,450;   92,669;  145,732;50,47095
 200,62;   65,924;   67,563;   88,793;-7,71823
 201,22;  123,733;   86,969;  138,011;72,02682
 201,82;  107,331;   66,174;  141,790;54,42845
 202,42;  114,423;  101,668;  154,973;23,92748
 203,03;   67,485;   60,168;   91,775;23,15199
 203,63;   81,776;   69,967;  109,037;30,22384
 204,23;   96,644;   70,671;  129,903;43,85045
 204,83;   98,221;   74,567;  123,718;48,12450
 205,43;  102,684;   56,673;  123,555;68,79411
 206,03;   70,093;   50,167;   90,459;49,45529
 206,63;   70,854;   68,865;  100,007; 6,38781
 207,24;  131,751;   74,675;  162,566;64,93874
 207,84;   62,766;   39,967;   83,699;52,13315
 208,44;   67,633;   50,669;   95,011;38,25672
 209,04;   58,981;   47,365;   85,066;30,81208
 209,64;   91,819;   69,972;  127,998;37,65018
 210,24;   63,621;   45,367;   97,218;35,20416
 210,84;   79,560;   51,469;  101,970;55,62460
 211,44;  102,370;   86,470;  122,908;43,63598
 212,05;   78,381;   60,865;   99,266;45,61439
 212,65;   90,485;   66,368;  112,975;51,74659
 213,25;  115,723;   93,768;  142,073;45,45021
 213,85;   96,191;   84,465;  114,904;38,52272
 214,45;   72,621;   53,367;  100,418;40,92090
 215,05;   61,560;   39,369;  100,070;36,55785
 215,65;   65,687;   55,169;  105,630;20,84467
 216,25;   73,421;   40,267;   82,518;78,46821
 216,85;   62,705;   34,069;   89,651;51,52062
 217,45;   65,485;   49,068;   97,375;33,98598
 218,05;   88,752;   58,270;  112,886;55,81141
 218,66;   49,078;   28,769;   75,692;43,28163
 219,26;   42,976;   26,567;   79,337;31,09429
 219,86;   59,290;   36,771;   81,584;50,25041
 220,46;   85,225;   54,270;  104,127;62,08724
 221,06;   84,144;   51,871;  115,903;50,40215
 221,66;   70,827;   43,471;  103,481;45,58481
 222,26;   71,319;   39,772;  102,398;50,37357
 222,86;   93,968;   67,268;  118,954;51,65805
 223,46;   69,821;   51,767;   88,918;48,59539
 224,06;   86,517;   64,971;  120,343;38,91123
 224,66;   88,807;   57,570;  105,805;64,75953
 225,26;   81,542;   48,169;  113,748;50,88964
 225,86;   84,001;   42,173;  112,376;59,58197
 226,46;   72,895;   49,968;  102,913;43,30363
 227,06;   59,607;   27,670;   87,705;53,19693
 227,66;   59,964;   37,665;   74,845;59,97535
 228,27;   59,325;   29,270;   96,227;44,88680
 228,87;  110,380;   89,170;  143,046;39,36748
 229,47;   67,746;   29,172;   92,357;61,04947
 230,07;   43,542;   11,169;   59,648;66,77718
 230,67;   60,305;   38,169;   84,651;47,62317
 231,27;   54,525;   27,670;   76,327;55,19215
 231,87;   68,605;   43,169;  100,751;44,17389
 232,47;   92,096;   43,775;  132,047;54,74044
 233,07;   58,726;   42,965;   75,547;48,37513
 233,67;   68,085;   53,768;   94,275;35,34598
 234,27;   43,993;    0,567;   53,259;82,41586
 234,87;   69,790;   34,771;  106,084;49,10566
 235,47;   39,742;   16,169;   74,148;40,65768
 236,07;   48,401;   30,266;   72,042;43,41018
 236,67;   61,211;   49,966;   85,180;31,93208
 237,27;   67,639;   28,873;  109,074;48,33555
 237,87;   65,507;   25,370;   99,805;53,92191
 238,47;   45,750;   14,269;   68,032;58,55581
 239,07;   63,792;   33,272;   95,738;48,85747
 239,67;  102,753;   43,477;  131,421;67,40189
 240,27;   69,301;   46,773;  119,176;31,11541
 240,87;   85,666;   50,773;  119,533;50,74571
 241,47;   44,434;   39,164;   76,131;14,25779
 242,07;   56,440;   39,968;   92,894;31,12335
 242,67;   40,611;  -11,027;   77,914;58,05867
 243,27;   23,521;    7,767;   46,418;40,75882
 243,87;   83,817;   48,671;  108,343;58,89832
 244,47;   62,744;   22,371;   99,703;52,20802
 245,07;   28,660;    2,669;   55,770;48,94631
 245,67;   52,485;   31,068;   85,575;39,29327
 246,27;   45,654;   34,965;   69,007;31,40017
 246,87;   40,968;   26,668;   63,154;39,19288
 247,46;   16,624;   19,663;   23,793;-73,57498
 248,06;   45,852;   20,470;   69,786;51,46805
 248,66;   59,219;   31,072;  105,898;37,61646
 249,26;   37,801;   32,366;   70,742;14,16289
 249,86;   68,101;   42,873;  102,176;42,54157
 250,46;   67,623;   16,775;   93,507;66,26730
 251,06;   45,185;   22,168;   65,375;53,27268
 251,66;   33,462;   20,771;   64,724;28,87462
 252,26;   45,256;   38,866;   70,261;20,35304
 252,86;   54,160;   35,969;   89,070;34,25731
 253,46;   10,521;   -8,033;   22,118;61,53574
 254,06;   44,574;   31,766;   79,483;26,84135
 254,66;   60,684;   34,973;  100,155;39,44460
 255,26;   83,529;   39,073;  118,836;55,73515
 255,86;   45,534;   37,464;   55,631;44,42438
 256,46;   33,570;   19,870;   70,208;27,21632
 257,05;   56,735;   23,570;   59,565;92,13677
 257,65;   79,590;   38,071;   97,684;69,64701
 258,25;   69,846;   37,372;  101,457;50,67348
 258,85;   23,960;   15,669;   51,770;22,96604
 259,45;   26,805;    6,869;   42,951;55,25243
 260,05;   56,721;   46,667;   85,818;25,67936
 260,65;   55,956;   45,066;   83,561;28,28895
 261,25;   55,917;   29,371;   85,943;46,92406
 261,85;   27,099;   -0,129;   47,622;57,02146
 262,45;   67,660;   46,169;  109,270;34,05806
 263,04;   89,956;   53,073;  116,295;58,33910
 263,64;   54,903;   33,767;   77,097;48,77936
 264,24;   75,472;   37,671;   89,062;73,55486
 264,84;  106,876;   58,974;  138,671;60,10491
 265,44;   48,258;   26,368;   67,716;52,94185
 266,04;   54,819;   48,865;   71,464;26,34373
 266,64;   67,111;   39,866;   86,780;58,07352
 267,24;   45,311;   40,166;   68,980;17,85431
 267,84;   41,423;   24,668;   76,573;32,27938
 268,43;   70,813;   48,368;   95,935;47,18644
 269,03;   65,578;   46,969;   87,892;45,47331
 269,63;   72,829;   58,566;   92,402;42,15227
 270,23;   16,764;   10,765;   39,045;21,21175
 270,83;   63,456;   55,266;   83,161;29,35950
 271,43;   40,431;   23,967;   58,856;47,18747
 272,03;   73,458;   64,168;   99,116;26,58349
 272,62;   44,887;   23,269;   68,730;47,55419
 273,22;   29,880;   11,970;   61,046;36,49363
 273,82;   13,675;   17,460;   26,403;-42,32513
 274,42;   33,862;   25,164;   46,890;40,03394
 275,02;   32,999;   34,864;   60,388;-7,30832
 275,62;   80,646;   31,972;  100,457;71,07267
 276,21;   39,797;   22,770;   69,267;36,62023
 276,81;   57,966;   46,767;   71,099;46,02541
 277,41;   51,554;   22,971;   96,341;38,95736
 278,01;   25,199;   21,364;   42,788;17,89935
 278,61;   58,733;   38,869;   83,811;44,19878
 279,20;   81,501;   65,473;  119,076;29,90226
 279,80;   -6,878;    6,762;   11,539;-285,51736
 280,40;   45,501;   36,866;   79,742;20,13977
 281,00;   16,233;   -4,331;   33,311;54,63009
 281,60;   45,648;   20,774;   74,812;46,03183
 282,20;   48,970;   36,670;   70,108;36,78482
 282,79;   47,313;   29,568;   70,135;43,74286
 283,39;   30,929;   17,466;   44,702;49,42964
 283,99;   26,326;   23,165;   34,347;28,27534
 284,59;   40,415;   16,869;   45,289;82,84968
 285,19;   31,193;   27,067;   57,759;13,44483
 285,78;   37,570;   23,270;   63,808;35,27583
 286,38;   37,654;   39,665;   59,207;-10,28901
 286,98;   48,513;   35,168;   73,535;34,78287
 287,58;   28,344;    4,771;   61,403;41,62576
 288,17;   49,929;    8,973;   80,336;57,39113
 288,77;   55,360;   19,976;   92,504;48,78716
 289,37;   32,160;   11,269;   57,670;45,02269
 289,97;   48,826;   48,965;   66,647;-0,78053
 290,57;   68,309;   46,672;   93,260;46,44410
 291,16;   64,858;   63,868;  102,616; 2,55603
 291,76;   25,780;    5,570;   47,346;48,37619
 292,36;   52,376;   34,367;   58,137;75,76133
 292,96;   21,874;   -3,127;   60,117;39,53144
 293,55;   44,966;   24,267;   65,399;50,32306
 294,15;   44,297;   26,870;   62,567;48,81983
 294,75;   45,154;   42,065;   66,207;12,79630
 295,35;   24,058;   21,068;   52,016; 9,66268
 295,94;   37,438;   42,967;   66,740;-23,25381
 296,54;   34,995;   30,768;   70,613;10,60871
 297,14;   52,127;   29,971;   76,881;47,22968
 297,73;   23,036;   12,165;   40,085;38,93687
 298,33;   45,274;   28,066;   57,583;58,29817
 298,93;   51,868;   41,968;   82,554;24,39224
 299,53;   43,464;   24,872;   69,079;42,05702
 300,12;   27,627;  -12,229;   59,481;55,57863
 300,72;   59,003;   41,567;   91,197;35,13198
 301,32;   58,590;   25,771;   99,584;44,46199
 301,92;    9,989;    3,664;   33,050;21,52507
 302,51;   31,048;   11,567;   49,978;50,71806
 303,11;   29,593;   14,667;   48,759;43,78306
 303,71;   53,750;   21,369;   82,132;53,29130
 304,30;   18,946;    5,466;   38,423;40,90266
 304,90;   17,974;   19,666;   44,283;-6,87371
 305,50;   30,064;   18,565;   64,345;25,11729
 306,09;   29,001;   15,466;   49,042;40,31168
 306,69;   68,572;   34,171;   90,262;61,33001
 307,29;   21,848;   18,760;   33,144;21,46677
 307,88;   57,215;   43,269;   72,489;47,72677
 308,48;   26,525;    0,070;   49,727;53,27516
 309,08;    3,970;   -4,437;   11,774;51,85794
 309,68;   30,936;   22,365;   39,585;49,77437
 310,27;   30,187;   20,169;   49,830;33,77673
 310,87;   41,795;   23,468;   54,813;58,46908
 311,47;   62,021;   54,967;   92,918;18,58646
 312,06;   50,409;   47,865;   68,426;12,37274
 312,66;   74,558;   51,168;  100,016;47,88403
 313,26;   69,962;   48,571;   96,224;44,88934
 313,85;   40,293;   38,267;   65,959; 7,31793
 314,45;   68,433;   42,969;   86,611;58,34716
 315,04;   50,109;   52,165;   81,826;-6,93187
 315,64;   39,203;   21,267;   47,897;67,35345
 316,24;   63,025;   40,770;   85,627;49,61288
 316,83;   43,201;   40,366;   76,742; 7,79409
 317,43;   43,531;   35,167;   68,156;25,35138
 318,03;   42,079;   39,063;   70,012; 9,74543
 318,62;   75,868;   73,061;   94,820;12,89734
 319,22;   44,323;    7,668;   66,973;61,80736
 319,82;   59,258;   40,768;   93,516;35,05422
 320,41;   88,350;   59,069;   98,732;73,82516
 321,01;   86,964;   80,465;  115,945;18,31644
 321,60;   78,962;   81,164;  102,790;-10,18164
 322,20;  101,284;   67,673;  132,855;51,56458
 322,80;   66,303;   54,567;   91,797;31,52291
 323,39;   59,472;   65,764;   94,828;-21,65098
 323,99;   81,156;   61,766;  102,661;47,41365
 324,59;   68,179;   73,063;   97,512;-19,97630
 325,18;   68,348;   40,967;   92,178;53,46768
 325,78;   81,336;   76,365;  108,885;15,28670
 326,37;   77,785;   74,868;  108,075; 8,78639
 326,97;   75,603;   63,267;  111,497;25,57730
 327,57;   46,624;   42,263;   76,493;12,74158
 328,16;   69,434;   60,864;   93,631;26,15632
 328,76;   73,538;   50,467;  110,140;38,66365
 329,35;   93,790;   56,871;  137,484;45,79748
 329,95;   56,470;   27,470;   91,308;45,42761
 330,54;   70,721;   52,167;   94,018;44,33270
 331,14;   43,966;   26,967;   82,599;30,55613
 331,74;   73,664;   54,165;   96,145;46,44778
 332,33;   72,225;   35,370;  108,127;50,65471
 332,93;   52,089;   43,764;   79,250;23,46096
 333,52;   72,229;   42,466;   93,102;58,77771
 334,12;   95,678;   72,069;  140,392;34,55502
 334,71;   69,501;   50,666;   87,942;50,52852
 335,31;   90,593;   63,267;  119,859;48,28690
 335,90;   37,960;   32,362;   53,836;26,06666
 336,50;   37,154;   30,665;   77,207;13,94284
 337,10;   67,787;   38,769;  121,530;35,06304
 337,69;   65,454;   51,765;   93,707;32,63851
 338,29;   61,576;   30,467;  101,037;44,08171
 338,88;   46,068;   22,468;   99,854;30,49630
 339,48;   63,932;   57,862;  111,677;11,27983
 340,07;   66,283;   48,566;  107,321;30,15461
 340,67;   75,490;   31,171;  124,784;47,34248
 341,26;   67,701;   48,466;   98,942;38,10733
 341,86;  103,242;   61,469;  138,348;54,33592
 342,45;   81,115;   45,669;  142,689;36,53445
 343,05;   83,715;   27,269;  115,689;63,83829
 343,64;   76,811;   47,366;  122,480;39,19985
 344,24;   54,954;   28,765;   92,107;41,34576
 344,83;   77,227;   71,365;  121,747;11,63489
 345,43;   58,638;   29,667;  114,240;34,25652
 346,02;   71,105;   41,469;  124,351;35,75714
 346,62;   92,362;   40,971;  140,424;51,67371
 347,21;   70,736;   42,165;  131,985;31,80939
 347,81;   76,609;   26,172;  140,560;44,09324
 348,40;   54,134;   29,064;  100,731;34,98209
 349,00;   63,479;   49,163;  137,712;16,16747
 349,59;  114,580;   65,870;  177,846;43,50006
 350,19;   83,862;   32,571;  139,424;48,00154
 350,78;   61,793;   55,467;  140,759; 7,41744
 351,38;   49,505;   15,869;  140,951;26,89136
 351,97;   57,438;   26,767;  136,040;28,06894
 352,57;   72,825;   42,570;  155,827;26,71346
 353,16;   51,772;   30,564;  134,328;20,43803
 353,76;   80,980;   38,770;  169,846;32,20239
 354,35;   76,142;   27,669;  160,148;36,58913
 354,95;   94,097;   43,970;  182,067;36,29862
 355,54;   82,623;   38,368;  163,973;35,23318
 356,14;   76,442;   40,069;  164,749;29,17325
 356,73;   60,832;   29,162;  145,176;27,29848
 357,32;   70,950;   13,769;  164,432;37,95323
 357,92;   80,137;   17,772;  181,419;38,10921
 358,51;   94,064;   43,372;  214,179;29,67801
 359,11;   80,909;   36,772;  212,360;25,13691
 359,70;   81,435;   28,470;  189,965;32,79628
 360,30;   94,522;   54,562;  188,039;29,93841
 360,89;   71,768;   31,168;  188,054;25,87856
 361,48;  108,197;   55,570;  216,467;32,70871
 362,08;   67,631;   19,867;  187,156;28,55130
 362,67;   78,124;   39,763;  192,693;25,08432
 363,27;  120,948;   60,767;  247,678;32,19781
 363,86;  103,264;   35,765;  215,745;37,50347
 364,46;  121,534;   44,664;  257,231;36,16300
 365,05;  124,746;   64,659;  254,989;31,56988
 365,64;  128,738;   50,960;  269,706;35,55648
 366,24;  140,381;   38,558;  309,432;37,59056
 366,83;  170,805;   43,255;  335,383;43,66218
 367,43;  176,063;   51,545;  352,843;41,32725
 368,02;  214,592;   34,646;  399,757;49,28540
 368,61;  241,255;   62,239;  475,425;43,32573
 369,21;  232,374;   32,419;  445,299;48,42917
 369,80;  265,565;   43,007;  526,947;45,98879
 370,39;  323,945;   62,006;  604,971;48,24243
 370,99;  308,958;   42,089;  615,416;46,54755
 371,58;  346,683;   22,974;  630,953;53,24353
 372,18;  378,391;   37,166;  701,603;51,35553
 372,77;  377,914;   42,449;  679,385;52,66845
 373,36;  408,337;   42,747;  690,836;56,41050
 373,96;  370,458;   35,135;  639,498;55,48368
 374,55;  359,115;   29,844;  621,406;55,66138
 375,14;  348,586;   42,849;  573,826;57,58013
 375,74;  335,479;   69,157;  543,276;56,17187
 376,33;  269,861;   45,964;  464,589;53,48400
 376,92;  241,435;   33,278;  447,997;50,19217
 377,52;  343,879;   86,103;  548,460;55,75249
 378,11;  281,314;   46,703;  457,203;57,15253
 378,71;  308,199;   73,011;  514,270;53,29921
 379,30;  319,779;   59,517;  553,928;52,64087
 379,89;  314,983;   59,813;  556,103;51,41552
 380,49;  326,144;   31,018;  568,185;54,94123
 381,08;  374,700;   70,306;  570,990;60,79568
 381,67;  360,712;   55,008;  555,483;61,08286
 382,26;  348,800;   41,706;  539,390;61,70466
 382,86;  349,824;   54,003;  516,041;64,02520
 383,45;  377,346;   50,412;  562,105;63,89249
 384,04;  360,891;   38,712;  553,886;62,53781
 384,64;  352,248;   49,014;  566,760;58,56810
 385,23;  377,955;   64,406;  560,509;63,20241
 385,82;  408,077;   59,615;  592,774;65,35805
 386,42;  451,207;   61,024;  659,022;65,24826
 387,01;  424,793;   55,414;  580,541;70,34092
 387,60;  432,977;   69,009;  590,140;69,84200
 388,20;  427,946;   37,712;  590,805;70,55475
 388,79;  485,826;   72,418;  665,563;69,69763
 389,38;  443,500;   32,106;  564,890;77,21594
 389,97;  479,222;   45,415;  640,955;72,84272
 390,57;  507,130;   71,114;  654,038;74,79807
 391,16;  521,830;   62,514;  655,838;77,41402
 391,75;  516,111;   52,713;  638,562;79,09840
 392,34;  556,048;   60,821;  696,694;77,88148
 392,94;  569,381;   44,718;  689,683;81,34761
 393,53;  562,187;   41,016;  666,612;83,30799
 394,12;  612,415;   53,023;  719,105;83,98241
 394,72;  602,638;   54,213;  706,122;84,12601
 395,31;  609,577;   42,115;  694,874;86,93293
 395,90;  655,135;   42,924;  732,881;88,73168
 396,49;  698,076;   58,028;  779,187;88,75263
 397,09;  675,607;   47,417;  749,188;89,51497
 397,68;  742,944;   44,025;  800,719;92,36485
 398,27;  761,629;   54,626;  809,652;93,63953
 398,86;  756,954;   43,125;  807,657;93,36811
 399,45;  798,652;   56,630;  844,037;94,23624
 400,05;  764,428;   23,820;  799,518;95,47640
 400,64;  822,036;   56,419;  831,001;98,84258
 401,23;  831,338;   53,920;  859,956;96,44959
 401,82;  847,338;   67,220;  868,256;97,38868
 402,42;  893,676;   62,921;  873,953;102,43174
 403,01;  910,444;   81,525;  912,919;99,70234
 403,60;  939,072;   68,532;  940,513;99,83480
 404,19;  962,289;   76,024;  931,900;103,55067
 404,78;  929,295;   57,522;  909,929;102,27191
 405,38;  998,909;   68,332;  984,210;101,60495
 405,97;  987,174;   63,226;  953,933;103,73196
 406,56; 1029,158;   71,528; 1004,366;102,65774
 407,15; 1053,378;   68,829;  989,442;106,94495
 407,74; 1085,570;   80,730; 1026,758;106,21670
 408,34; 1067,464;   50,933; 1018,629;105,04655
 408,93; 1096,590;   59,531; 1016,234;108,39922
 409,52; 1102,386;   51,435; 1041,359;106,16478
 410,11; 1160,845;   84,931; 1090,453;107,00051
 410,70; 1129,711;   54,727; 1027,230;110,53782
 411,29; 1156,003;   58,628; 1030,847;112,87328
 411,89; 1215,668;   60,535; 1093,938;111,77959
 412,48; 1191,331;   48,228; 1051,606;113,92539
 413,07; 1244,156;   65,033; 1101,446;113,76971
 413,66; 1254,313;   78,135; 1102,119;114,86299
 414,25; 1282,325;   63,337; 1142,311;112,97660
 414,84; 1267,090;   69,431; 1102,434;115,93950
 415,44; 1298,015;   91,530; 1155,939;113,34787
 416,03; 1290,016;   76,637; 1161,173;111,87994
 416,62; 1317,745;   76,138; 1168,687;113,64312
 417,21; 1332,794;   75,334; 1158,843;116,05440
 417,80; 1349,353;   65,037; 1162,871;116,98637
 418,39; 1355,974;   78,440; 1179,201;116,05920
 418,98; 1334,284;   55,634; 1143,405;117,54771
 419,58; 1322,874;   64,033; 1142,067;116,77193
 420,17; 1343,331;   52,735; 1164,540;116,08112
 420,76; 1388,615;   72,537; 1192,873;117,47174
 421,35; 1327,396;   60,236; 1155,197;115,72644
 421,94; 1375,474;   88,340; 1223,501;113,38782
 422,53; 1374,529;   61,540; 1195,320;115,80636
 423,12; 1374,827;   64,039; 1190,766;116,33597
 423,71; 1347,168;   60,835; 1162,138;116,80106
 424,30; 1391,033;   85,236; 1210,695;116,02354
 424,90; 1348,063;   39,438; 1163,809;116,38730
 425,49; 1385,447;   70,140; 1216,242;114,76356
 426,08; 1409,647;   80,240; 1209,641;117,70898
 426,67; 1342,723;   57,436; 1168,257;115,70608
 427,26; 1381,324;   60,343; 1230,391;112,89970
 427,85; 1348,490;   63,238; 1209,968;112,07973
 428,44; 1387,086;   68,442; 1218,093;114,69949
 429,03; 1387,576;   85,341; 1233,155;113,45349
 429,62; 1397,549;   78,941; 1240,296;113,54048
 430,21; 1409,516;   81,443; 1277,807;111,00907
 430,80; 1369,773;   70,445; 1235,381;111,53644
 431,39; 1375,971;   53,344; 1246,926;110,81152
 431,99; 1352,768;   78,535; 1206,838;112,93364
 432,58; 1388,427;   82,639; 1251,166;111,74656
 433,17; 1376,913;   69,735; 1238,319;111,86005
 433,76; 1409,057;   71,347; 1288,314;109,92168
 434,35; 1419,518;   88,245; 1292,462;110,55094
 434,94; 1445,414;   70,849; 1318,887;110,13808
 435,53; 1428,306;   78,643; 1278,669;112,46944
 436,12; 1418,843;   70,044; 1294,267;110,17597
 436,71; 1417,584;   87,740; 1303,239;109,40728
 437,30; 1436,194;   76,941; 1299,177;111,21036
 437,89; 1478,890;   76,245; 1320,802;112,70237
 438,48; 1464,996;   65,942; 1305,731;112,84612
 439,07; 1491,672;   95,238; 1347,147;111,54444
 439,66; 1541,794;   83,648; 1375,711;112,85413
 440,25; 1541,143;   85,844; 1390,567;111,54087
 440,84; 1578,851;   79,850; 1387,984;114,59077
 441,43; 1582,167;   78,054; 1440,985;110,35869
 442,02; 1625,261;   79,650; 1411,022;116,09157
 442,61; 1624,871;   93,344; 1397,226;117,45897
 443,20; 1676,924;   94,249; 1446,625;117,02922
 443,79; 1680,192;   74,546; 1412,957;119,96666
 444,38; 1738,077;   84,248; 1461,789;120,05656
 444,97; 1763,955;   84,146; 1466,359;121,53039
 445,56; 1850,737;  101,846; 1477,038;127,17438
 446,15; 1864,053;   81,651; 1522,539;123,70167
 446,74; 1823,398;   58,644; 1462,286;125,72682
 447,33; 1929,192;   82,646; 1538,357;126,84846
 447,92; 1967,398;   78,151; 1570,720;126,57691
 448,51; 2022,383;   89,746; 1586,019;129,16339
 449,10; 2054,600;   92,045; 1608,840;129,38828
 449,69; 2113,716;   73,950; 1627,741;131,27671
 450,28; 2148,967;   66,948; 1608,251;135,08170
 450,87; 2187,012;   78,647; 1656,333;133,63659
 451,46; 2259,032;   96,048; 1702,208;134,66798
 452,05; 2267,251;   70,950; 1715,384;133,55966
 452,64; 2315,489;   70,850; 1725,182;135,68248
 453,23; 2405,591;  113,752; 1794,936;136,32287
 453,82; 2416,771;   83,451; 1800,660;135,87860
 454,40; 2460,589;   65,450; 1786,682;139,15259
 454,99; 2546,993;  101,253; 1871,891;138,12763
 455,58; 2549,502;   69,747; 1832,095;140,70749
 456,17; 2636,028;   63,852; 1873,634;142,12631
 456,76; 2664,798;   67,751; 1918,820;140,29987
 457,35; 2728,477;   78,348; 1930,490;143,08458
 457,94; 2781,103;   66,954; 1978,929;141,95525
 458,53; 2814,243;   67,350; 2010,101;141,39197
 459,12; 2891,189;   82,657; 2111,116;138,45644
 459,71; 2923,122;   58,148; 2060,071;143,11112
 460,30; 2951,094;   84,448; 2087,511;143,11314
 460,89; 2974,098;   57,551; 2129,920;140,73496
 461,48; 3056,702;   75,954; 2173,829;142,08419
 462,06; 3063,706;   68,050; 2187,303;141,35431
 462,65; 3073,487;   48,249; 2176,527;142,14482
 463,24; 3174,942;   87,456; 2288,680;140,26220
 463,83; 3145,706;   54,450; 2229,803;142,10363
 464,42; 3240,214;   88,349; 2333,687;140,37374
 465,01; 3255,489;   73,050; 2336,482;140,60235
 465,60; 3288,861;   64,050; 2384,322;138,98417
 466,19; 3307,603;   73,354; 2462,829;135,35396
 466,77; 3320,253;   81,551; 2462,939;136,00063
 467,36; 3332,661;   69,457; 2459,256;136,54721
 467,95; 3334,481;   79,551; 2466,098;136,38655
 468,54; 3376,712;   71,954; 2513,866;135,33485
 469,13; 3401,263;   69,452; 2535,977;135,08119
 469,72; 3400,277;   67,555; 2582,723;132,50493
 470,31; 3431,732;   87,855; 2629,242;131,57683
 470,90; 3429,879;   76,750; 2652,044;130,20373
 471,48; 3482,116;   32,057; 2671,875;130,69307
 472,07; 3503,030;  125,747; 2686,454;131,88867
 472,66; 3485,510;   67,853; 2748,412;127,49792
 473,25; 3488,753;   68,351; 2723,339;128,82930
 473,84; 3511,895;   55,955; 2766,545;127,49769
 474,43; 3568,573;   55,459; 2843,049;126,02694
 475,01; 3576,240;   69,254; 2885,926;124,50814
 475,60; 3612,950;   49,755; 2882,364;125,79197
 476,19; 3671,581;   74,158; 2956,932;124,79031
 476,78; 3673,562;   71,057; 2964,456;124,50769
 477,37; 3693,450;   59,355; 2945,364;125,92111
 477,95; 3751,587;   75,656; 3018,661;124,90398
 478,54; 3750,293;   63,253; 3023,691;124,54374
 479,13; 3830,193;   56,253; 3070,291;125,21210
 479,72; 3892,757;   81,154; 3090,147;126,67370
 480,31; 3923,028;   63,459; 3167,468;124,34144
 480,89; 3953,640;   60,254; 3171,026;125,15819
 481,48; 3974,220;   46,260; 3214,084;123,99553
 482,07; 4036,112;   61,654; 3233,866;125,28979
 482,66; 4061,220;   52,853; 3253,650;125,23028
 483,25; 4122,420;   78,960; 3319,884;124,76258
 483,83; 4151,067;   59,954; 3325,385;125,28554
 484,42; 4154,703;   54,354; 3355,129;124,22383
 485,01; 4251,126;   65,958; 3400,413;125,51279
 485,60; 4332,762;   73,764; 3490,590;124,64776
 486,18; 4349,187;   66,956; 3490,761;125,07226
 486,77; 4343,791;   67,252; 3519,736;123,86844
 487,36; 4414,589;   58,464; 3561,750;124,34398
 487,95; 4434,758;   59,161; 3640,781;122,16807
 488,53; 4464,930;   54,461; 3642,522;122,92068
 489,12; 4489,452;   50,563; 3722,252;120,89501
 489,71; 4484,777;   38,062; 3680,357;122,08552
 490,30; 4555,375;   61,460; 3742,503;122,08266
 490,88; 4576,285;   87,561; 3859,141;119,01442
 491,47; 4550,580;   60,663; 3867,512;117,94313
 492,06; 4571,442;   62,563; 3920,615;116,86933
 492,65; 4564,940;   59,161; 3947,060;115,89239
 493,23; 4541,893;   54,860; 3982,825;114,23303
 493,82; 4503,965;   65,853; 4018,031;112,29536
 494,41; 4524,095;   51,361; 4066,179;111,40566
 494,99; 4505,195;   73,655; 4126,945;109,33192
 495,58; 4473,275;   86,060; 4224,403;106,01381
 496,17; 4443,142;   56,356; 4198,681;105,90154
 496,76; 4421,187;   65,356; 4276,761;103,42940
 497,34; 4406,444;   54,557; 4305,235;102,38101
 497,93; 4348,017;   66,057; 4350,675;99,93795
 498,52; 4336,883;   60,059; 4454,387;97,32602
 499,10; 4284,705;   75,862; 4533,217;94,42467
 499,69; 4251,838;   55,360; 4537,006;93,63698
 500,28; 4201,828;   37,959; 4592,068;91,43104
 500,86; 4194,822;   62,862; 4698,539;89,13392
 501,45; 4182,022;   53,462; 4730,438;88,27413
 502,04; 4127,978;   53,362; 4813,958;85,59046
 502,62; 4128,942;   70,956; 4856,181;84,80241
 503,21; 4057,297;   57,856; 4939,699;81,92481
 503,80; 4075,732;   69,662; 5015,577;80,99756
 504,38; 4054,293;   58,460; 5081,425;79,55128
 504,97; 4061,232;   49,962; 5122,776;79,07386
 505,56; 4034,946;   70,859; 5194,989;77,36116
 506,14; 4034,617;   64,064; 5263,709;76,36199
 506,73; 3981,254;   23,565; 5292,507;75,11354
 507,32; 4078,764;   62,865; 5376,045;75,58371
 507,90; 4038,220;   70,860; 5443,284;73,84675
 508,49; 4046,581;   58,865; 5500,366;73,28339
 509,08; 4072,934;   67,264; 5571,931;72,76862
 509,66; 4097,848;   69,960; 5677,644;71,82801
 510,25; 4132,813;   63,561; 5737,400;71,71954
 510,83; 4173,754;   45,165; 5855,607;71,05465
 511,42; 4222,195;   61,968; 5895,913;71,31070
 512,01; 4211,572;   59,164; 5980,328;70,12823
 512,59; 4288,532;   46,562; 6041,676;70,75712
 513,18; 4353,095;   59,961; 6114,379;70,90911
 513,77; 4347,934;   42,257; 6171,797;70,24470
 514,35; 4414,915;   37,763; 6190,255;71,14437
 514,94; 4525,805;   58,662; 6323,517;71,30480
 515,52; 4561,501;   48,166; 6358,342;71,52471
 516,11; 4644,327;   80,665; 6474,047;71,38102
 516,69; 4619,355;   41,959; 6446,727;71,46857
 517,28; 4674,454;   83,358; 6541,973;71,08484
 517,87; 4664,999;   45,558; 6604,054;70,43445
 518,45; 4735,108;   74,858; 6626,192;71,13437
 519,04; 4719,391;   54,258; 6707,970;70,11324
 519,62; 4768,842;   55,863; 6774,114;70,15188
 520,21; 4760,929;   24,466; 6828,002;69,61766
 520,79; 4836,585;   52,068; 7000,875;68,85380
 521,38; 4829,203;   52,960; 6995,363;68,79812
 521,97; 4845,168;   43,068; 7141,554;67,64964
 522,55; 4829,519;   67,759; 7195,230;66,80855
 523,14; 4842,946;   26,759; 7180,289;67,32602
 523,72; 4904,730;   77,561; 7383,422;66,07256
 524,31; 4879,654;   71,665; 7406,107;65,55358
 524,89; 4857,058;   48,468; 7526,815;64,30017
 525,48; 4832,611;   21,666; 7603,580;63,45290
 526,06; 4848,572;   56,264; 7633,128;63,24922
 526,65; 4865,807;   72,370; 7803,105;62,00493
 527,23; 4787,187;   46,262; 7840,596;60,82527
 527,82; 4746,048;   37,967; 7905,978;59,83827
 528,41; 4684,983;   67,366; 8041,021;57,91093
 528,99; 4636,381;   66,365; 8108,167;56,82827
 529,58; 4539,360;   42,562; 8168,736;55,33721
 530,16; 4437,895;   49,461; 8315,379;53,09070
 530,75; 4419,144;   73,964; 8417,069;52,08109
 531,33; 4256,111;   45,566; 8440,980;50,15291
 531,92; 4103,048;   48,560; 8567,344;47,59468
 532,50; 4072,597;   87,770; 8706,468;46,23468
 533,09; 3867,091;   65,665; 8807,204;43,48692
 533,67; 3775,963;   63,458; 8952,011;41,76726
 534,26; 3709,166;   65,760; 9007,665;40,74530
 534,84; 3712,840;   68,461; 9127,061;40,23115
 535,42; 3818,644;   61,564; 9205,969;41,08611
 536,01; 4013,242;   79,263; 9330,215;42,52513
 536,59; 4280,929;   43,366; 9482,202;44,89497
 537,18; 4609,838;   77,360; 9568,605;47,75430
 537,76; 5068,882;   56,972; 9764,700;51,62804
 538,35; 5541,140;   59,368; 9892,694;55,74687
 538,93; 6074,872;   72,664; 9941,828;60,81779
 539,52; 6551,707;   57,370;10111,405;64,59433
 540,10; 7111,487;   63,269;10309,029;68,79156
 540,69; 7424,207;   68,763;10444,071;70,89374
 541,27; 7837,205;   58,262;10514,917;74,39227
 541,85; 8104,273;   47,366;10658,783;75,92678
 542,44; 8348,120;   56,460;10765,484;77,42685
 543,02; 8679,588;   80,369;10952,729;79,09247
 543,61; 8815,121;   77,067;11102,218;79,25564
 544,19; 9025,846;   55,066;11264,023;80,03224
 544,78; 9052,856;   62,766;11296,562;80,02719
 545,36; 9258,933;   77,469;11521,011;80,23271
 545,94; 9314,645;   54,564;11563,069;80,46293
 546,53; 9440,427;   52,771;11724,882;80,42809
 547,11; 9563,322;   90,668;11879,873;80,35024
 547,70; 9648,338;   75,860;11954,706;80,58424
 548,28; 9703,281;   47,965;12093,066;80,15969
 548,86; 9871,882;   81,365;12327,767;79,94607
 549,45; 9937,168;   33,768;12364,953;80,31183
 550,03;10040,775;   76,467;12507,537;80,15648
 550,62;10101,201;   63,566;12662,842;79,66835
 551,20;10319,221;   61,467;12808,418;80,47221
 551,78;10365,689;   61,164;12952,850;79,93156
 552,37;10435,944;   55,864;13112,469;79,50061
 552,95;10511,427;   56,765;13214,547;79,45611
 553,54;10668,454;   49,965;13393,207;79,57953
 554,12;10750,503;   67,167;13498,797;79,53864
 554,70;10881,223;   67,568;13736,973;79,10845
 555,29;10923,437;   61,965;13856,285;78,73872
 555,87;11061,752;   60,170;13987,786;78,99113
 556,45;11076,577;   57,162;14154,058;78,16909
 557,04;11230,166;   43,667;14376,600;78,04752
 557,62;11312,266;   68,867;14525,499;77,77329
 558,20;11446,555;   42,671;14799,940;77,27638
 558,79;11599,086;  100,368;14905,875;77,66514
 559,37;11656,320;   49,867;15000,418;77,63228
 559,95;11733,277;   46,669;15169,691;77,27694
 560,54;11879,695;   71,768;15324,613;77,41459
 561,12;11979,256;   50,866;15485,562;77,28296
 561,70;12143,905;   50,369;15679,551;77,37792
 562,29;12193,141;   61,768;15810,994;77,02837
 562,87;12337,668;   73,168;16023,953;76,88963
 563,45;12430,368;   71,068;16194,754;76,65307
 564,04;12481,188;   54,362;16227,195;76,83765
 564,62;12632,550;   37,769;16438,332;76,79481
 565,20;12763,223;   59,962;16715,838;76,26894
 565,78;12810,309;   70,765;16797,326;76,16355
 566,37;13024,974;   71,066;17011,283;76,46837
 566,95;13054,987;   52,969;17124,330;76,16275
 567,53;13198,178;   67,262;17308,857;76,15836
 568,12;13254,882;   62,265;17367,766;76,23366
 568,70;13448,999;   85,264;17565,889;76,44884
 569,28;13605,305;   61,069;17745,252;76,58955
 569,86;13637,793;   67,767;17910,758;76,05242
 570,45;13779,515;   78,569;18124,689;75,92183
 571,03;13851,750;   53,962;18259,898;75,78730
 571,61;14001,662;   46,571;18424,824;75,93263
 572,19;14057,970;   54,263;18395,773;76,34980
 572,78;14155,485;   70,668;18668,975;75,73172
 573,36;14349,344;   84,264;18797,668;76,22921
 573,94;14411,890;   44,064;18892,750;76,22720
 574,52;14504,628;   54,559;19030,768;76,14835
 575,11;14634,635;   37,264;19159,830;76,33584
 575,69;14679,911;   53,566;19268,680;76,11896
 576,27;14733,958;   47,161;19391,381;75,92344
 576,85;14883,044;   43,264;19549,668;76,07645
 577,44;14930,978;   30,262;19814,158;75,31740
 578,02;14932,483;   32,159;19753,887;75,55283
 578,60;15086,162;   50,464;20073,791;75,09091
 579,18;15272,652;   51,963;20160,752;75,69173
 579,76;15369,472;   40,264;20300,129;75,66293
 580,35;15475,870;   60,170;20436,707;75,65417
 580,93;15580,631;   59,667;20641,557;75,41078
 581,51;15629,997;   24,770;20697,168;75,48823
 582,09;15672,415;   58,663;20755,756;75,43935
 582,67;15769,121;   49,567;20971,318;75,13498
 583,26;15932,596;   28,568;21227,014;75,02450
 583,84;16031,717;   14,164;21413,709;74,84997
 584,42;16146,799;   48,064;21513,287;74,99915
 585,00;16358,511;   81,366;21772,180;75,04165
 585,58;16392,465;   25,167;21912,299;74,78046
 586,17;16488,131;   46,761;21948,521;75,06871
 586,75;16381,528;    6,666;22026,902;74,36279
 587,33;16563,348;   47,767;22191,678;74,58294
 587,91;16627,629;   74,866;22390,201;74,17663
 588,49;16645,678;   63,962;22349,758;74,40486
 589,07;16660,158;   45,468;22403,215;74,31290
 589,65;16551,238;   28,267;22444,439;73,71005
 590,24;16703,551;   42,562;22447,799;74,36203
 590,82;16696,240;   28,261;22484,160;74,22539
 591,40;16784,416;   41,464;22520,209;74,48348
 591,98;16657,455;   45,759;22558,227;73,78887
 592,56;16878,439;   61,161;22699,961;74,28520
 593,14;16775,955;   43,359;22728,928;73,75877
 593,72;16877,654;   29,765;22889,107;73,70242
 594,30;16866,684;   36,759;22797,486;73,94282
 594,89;16832,271;   41,364;22862,428;73,57636
 595,47;16975,330;   38,961;22922,623;74,01075
 596,05;16869,465;   30,267;23003,799;73,29825
 596,63;16985,965;   31,167;23056,199;73,63637
 597,21;16995,002;   36,766;23145,441;73,38472
 597,79;17071,238;   35,467;23166,039;73,65045
 598,37;17115,543;   36,669;23222,748;73,66003
 598,95;17146,529;   50,766;23305,301;73,51583
 599,53;17102,635;   46,757;23207,996;73,63975
 600,11;17243,127;   48,665;23341,947;73,81726
 600,70;17167,879;   57,363;23315,111;73,56910
 601,28;17183,816;   38,564;23424,809;73,31341
 601,86;17173,729;   61,766;23355,102;73,46291
 602,44;17221,740;   23,661;23449,660;73,41450
 603,02;17199,215;   38,656;23576,521;72,90618
 603,60;17229,980;   54,858;23663,232;72,75013
 604,18;17226,297;   69,263;23594,734;72,92961
 604,76;17065,914;   59,263;23642,154;72,11436
 605,34;16772,119;   27,565;23530,764;71,24372
 605,92;16592,367;   59,561;23453,719;70,67066
 606,50;16380,050;   17,662;23498,998;69,68253
 607,08;15990,511;   31,666;23394,881;68,30757
 607,66;15633,101;   39,266;23561,643;66,29362
 608,24;15173,693;   46,067;23522,059;64,43871
 608,82;14706,435;   26,164;23532,031;62,45364
 609,40;14113,884;   46,466;23471,021;60,05415
 609,98;13444,071;   18,864;23505,928;57,16001
 610,56;12759,503;   43,861;23497,662;54,21570
 611,14;12134,836;   30,765;23481,086;51,61580
 611,72;11624,682;   42,665;23572,467;49,22276
 612,30;11181,087;   24,962;23468,496;47,58721
 612,88;10956,118;   60,659;23517,730;46,44851
 613,46;10818,050;   21,862;23505,697;45,97285
 614,04;10939,022;   30,068;23461,873;46,55618
 614,62;11236,657;   41,561;23489,982;47,74350
 615,20;11622,458;   52,768;23402,416;49,54974
 615,78;12147,388;   25,569;23463,430;51,71896
 616,36;12614,089;   41,364;23400,150;53,82439
 616,94;12982,801;    7,666;23272,242;55,77207
 617,52;13330,830;   24,067;23373,656;56,98928
 618,10;13679,201;   63,559;23336,107;58,50516
 618,68;13973,174;   17,966;23253,184;60,06059
 619,26;14205,113;   39,268;23398,834;60,64259
 619,84;14380,597;   18,963;23277,133;61,74877
 620,42;14478,554;   31,165;23313,506;62,05299
 621,00;14585,954;   28,865;23209,607;62,79820
 621,58;14687,038;   38,760;23216,406;63,20002
 622,16;14764,234;   49,270;23335,164;63,19261
 622,74;14661,701;   47,066;23327,742;62,77582
 623,32;14703,046;   42,166;23291,223;63,06011
 623,90;14692,390;   66,971;23311,484;62,91988
 624,48;14536,250;   32,662;23196,598;62,61280
 625,05;14467,750;   34,562;23105,098;62,56113
 625,63;14413,150;   52,962;23188,799;62,06903
 626,21;14263,087;   38,262;23117,596;61,63447
 626,79;14198,521;   53,967;23219,719;61,05804
 627,37;13930,305;   28,162;23090,717;60,28015
 627,95;13788,558;   72,768;23200,215;59,30525
 628,53;13569,154;   49,365;23176,607;58,45829
 629,11;13319,974;   48,259;23043,449;57,71518
 629,69;13136,851;   53,369;23256,932;56,38566
 630,27;12687,197;   80,763;23105,434;54,75186
 630,84;12480,650;   43,862;23021,197;54,12633
 631,42;12264,931;   54,367;23319,656;52,48404
 632,00;11847,828;   45,459;23125,768;51,13610
 632,58;11489,307;   50,263;23105,172;49,61652
 633,16;11362,308;   49,870;23096,906;49,08413
 633,74;11053,999;   56,264;23018,488;47,89490
 634,32;10758,285;   45,661;23007,842;46,65334
 634,90;10728,979;   51,970;23195,746;46,13339
 635,47;10521,548;   38,860;23035,645;45,58328
 636,05;10488,585;   37,461;22989,342;45,53494
 636,63;10548,654;   45,965;23104,807;45,54734
 637,21;10629,472;   67,464;23150,529;45,75652
 637,79;10836,791;   71,465;23192,904;46,55993
 638,37;10942,604;   54,055;23070,883;47,30691
 638,94;11174,137;   33,265;23100,686;48,29700
 639,52;11450,137;   41,665;23195,285;49,27295
 640,10;11707,723;   64,264;23215,900;50,29216
 640,68;11952,709;   54,164;23175,334;51,46169
 641,26;12122,096;   35,864;23250,268;52,06350
 641,84;12298,981;   39,164;23235,002;52,85352
 642,41;12355,068;   28,264;23192,936;53,21381
 642,99;12468,854;   48,464;23145,568;53,77466
 643,57;12638,841;   22,064;23158,402;54,53230
 644,15;12682,928;   27,064;23178,035;54,66666
 644,73;12740,914;   37,564;23277,568;54,66156
 645,30;12711,301;   55,264;23230,303;54,61064
 645,88;12679,487;   44,964;23362,635;54,18433
 646,46;12642,074;   59,264;23447,568;53,79958
 647,04;12474,160;   51,864;23367,902;53,27790
 647,61;12502,247;   46,564;23396,336;53,34392
 648,19;12449,434;   61,664;23433,369;53,00328
 648,77;12383,020;   26,264;23442,002;52,77116
 649,35;12278,606;   51,064;23590,137;51,94573
 649,92;12187,993;   42,464;23596,070;51,56548
 650,50;12088,879;   30,064;23551,104;51,26820
 651,08;12026,565;   39,964;23450,537;51,20166
 651,66;11936,652;   21,864;23534,770;50,67340
 652,23;11966,438;   39,064;23561,004;50,70744
 652,81;11974,226;   36,464;23644,137;50,56729
 653,39;11913,912;   56,164;23647,170;50,26385
 653,97;11954,898;   37,065;23882,504;49,97951
 654,54;11850,785;   23,565;23823,137;49,69510
 655,12;11959,371;   30,965;23831,971;50,11724
 655,70;12040,857;   42,065;23962,805;50,16063
 656,28;12013,244;   32,765;23947,037;50,09761
 656,85;12030,931;   44,065;24051,070;49,93070
 657,43;11927,617;   -1,035;23831,305;50,05238
 658,01;12104,704;   21,465;24078,539;50,22739
 658,58;12132,290;   55,165;24234,371;49,94839
 659,16;12009,577;   51,965;24154,105;49,61224
 659,74;12078,764;   59,465;24338,039;49,50579
 660,32;12085,350;   71,665;24327,672;49,52870
 660,89;11991,836;   34,265;24347,305;49,18172
 661,47;12136,823;   51,665;24464,939;49,50241
 662,05;12070,209;   25,365;24587,373;49,03852
 662,62;12119,696;   59,665;24584,006;49,17576
 663,20;12179,683;   80,665;24740,139;49,06438
 663,78;12243,469;   47,965;24902,773;49,06698
 664,35;12357,655;   52,465;24921,006;49,48095
 664,93;12389,242;   64,465;25123,539;49,18289
 665,51;12541,229;   49,565;25170,973;49,72517
 666,08;12543,715;   30,165;25185,707;49,74470
 666,66;12782,201;   47,465;25667,539;49,70609
 667,23;12875,988;   51,765;25732,773;49,93660
 667,81;13172,175;   65,865;25889,307;50,75354
 668,39;13263,161;   43,265;26047,141;50,83818
 668,96;13494,147;   54,665;26309,074;51,18943
 669,54;13680,534;   38,765;26408,408;51,73285
 670,12;13918,421;   51,165;26808,740;51,82553
 670,69;14099,407;   64,165;26950,674;52,20180
 671,27;14240,193;   25,565;27096,008;52,50977
 671,84;14355,080;   40,665;27105,240;52,88986
 672,42;14450,267;   66,265;27253,875;52,90646
 673,00;14551,553;   57,165;27531,408;52,75628
 673,57;14574,239;   59,965;27276,441;53,32900
 674,15;14715,726;   64,065;27613,475;53,18321
 674,72;14644,213;   58,565;27536,209;53,08187
 675,30;14619,099;   69,466;27513,541;53,01557
 675,88;14611,386;   36,266;27573,176;52,92940
 676,45;14607,872;   59,466;27677,309;52,67756
 677,03;14473,658;   67,866;27525,043;52,46640
 677,60;14476,945;   41,466;27770,576;52,05894
 678,18;14499,432;   59,466;27877,510;51,90863
 678,76;14406,218;   40,766;27809,143;51,73314
 679,33;14395,204;   57,666;27813,176;51,65655
 679,91;14269,491;   44,266;27813,311;51,22692
 680,48;14279,077;   28,766;27740,242;51,42386
 681,06;14270,664;   50,866;27735,176;51,36411
 681,63;14214,150;   37,566;27736,209;51,18151
 682,21;14212,037;   67,966;27797,543;51,00717
 682,78;14106,823;   20,566;27459,576;51,33661
 683,36;14176,910;   46,966;27565,510;51,34699
 683,93;14212,797;   30,466;27450,645;51,72224
 684,51;14207,683;   26,166;27477,277;51,66099
 685,08;14404,369;   38,966;27733,711;51,87050
 685,66;14467,156;   53,066;27694,045;52,14754
 686,24;14563,643;   33,766;27796,578;52,33575
 686,81;14571,429;   57,666;27899,910;52,12857
 687,39;14645,916;   38,866;27807,844;52,60204
 687,96;14777,002;   54,166;27850,479;52,96687
 688,54;14994,488;   30,866;27984,811;53,52956
 689,11;14972,575;   26,966;28043,545;53,34559
 689,69;15098,361;   29,666;28019,279;53,83674
 690,26;15241,448;   59,466;28289,313;53,77990
 690,84;15243,335;   50,066;28239,846;53,89637
 691,41;15275,621;   35,966;28403,879;53,72145
 691,98;15302,607;   31,466;28427,912;53,77835
 692,56;15418,294;   32,866;28437,445;54,16531
 693,13;15516,980;   64,866;28655,080;54,04686
 693,71;15576,267;   24,466;28657,912;54,31341
 694,28;15642,754;   41,966;28715,945;54,40747
 694,86;15664,740;   47,266;28928,879;54,07411
 695,43;15657,227;   61,366;29100,912;53,70559
 696,01;15728,713;   36,266;29145,547;53,90874
 696,58;15778,000;   42,167;29083,879;54,18356
 697,16;15808,786;   38,067;29126,414;54,21662
 697,73;16027,873;   63,467;29338,246;54,53297
 698,30;16016,060;   51,867;29223,980;54,72416
 698,88;16089,745;   40,467;29558,613;54,37089
 699,45;16270,132;   35,367;29765,848;54,60647
 700,03;16341,519;   56,067;29750,980;54,84256
 700,60;16409,605;   56,267;29850,613;54,88739
 701,18;16565,191;   61,867;29963,947;55,19123
 701,75;16735,479;   74,367;30094,682;55,49946
 702,32;16768,664;   50,367;29901,914;56,00479
 702,90;16945,951;   52,467;30254,148;55,93558
 703,47;17148,838;   51,367;30428,881;56,28331
 704,05;17267,023;   67,767;30546,715;56,42995
 704,62;17459,010;   39,867;30587,848;57,02224
 705,19;17609,297;   43,667;30586,982;57,51055
 705,77;17687,184;   29,967;30618,314;57,72530
 706,34;17794,570;   61,667;30627,049;58,01630
 706,91;17869,656;   46,367;30673,883;58,19371
 707,49;18006,643;   57,267;30976,316;58,05281
 708,06;18133,129;   66,367;31089,049;58,23727
 708,64;18069,217;   25,767;31093,582;58,07763
 709,21;18148,203;   58,167;31179,316;58,12779
 709,78;18207,389;   41,367;31281,150;58,15028
 710,36;18413,477;   61,667;31419,684;58,52350
 710,93;18433,063;   50,567;31562,416;58,33518
 711,50;18432,648;   44,467;31506,049;58,44646
 712,08;18551,836;   76,567;31925,383;58,00928
 712,65;18511,121;   73,667;31775,916;58,15819
 713,22;18449,008;   69,067;31900,250;57,74193
 713,80;18495,295;   84,167;31966,883;57,74642
 714,37;18544,682;   55,767;31827,018;58,19385
 714,94;18529,867;   53,967;31727,551;58,33221
 715,52;18613,254;   47,867;31732,984;58,59340
 716,09;18685,941;   65,467;31891,918;58,50629
 716,66;18750,627;   73,467;31935,051;58,61968
 717,23;18826,014;   66,867;31908,484;58,91392
 717,81;18836,100;   50,168;31812,018;59,14621
 718,38;18776,486;   47,468;31671,252;59,22447
 718,95;18982,973;   59,068;31618,984;59,96183
 719,53;19171,061;   56,568;31661,418;60,47962
 720,10;19136,646;   59,968;31481,252;60,71260
 720,67;19219,633;   35,768;31355,984;61,25074
 721,24;19238,318;   59,468;31256,020;61,47747
 721,82;19284,807;   49,968;31236,053;61,67763
 722,39;19607,793;   64,068;31235,885;62,69678
 722,96;19727,879;   64,968;31261,420;63,02932
 723,53;19727,166;   88,268;31151,953;63,22140
 724,11;19882,451;   61,568;31207,486;63,63878
 724,68;20057,238;   71,568;31242,020;64,11736
 725,25;20245,225;   72,768;31399,953;64,39282
 725,82;20319,412;   96,068;31564,387;64,26573
 726,40;20468,398;   62,668;31714,820;64,46870
 726,97;20554,184;   62,168;31875,354;64,41359
 727,54;20624,570;   46,968;31801,486;64,80212
 728,11;20710,557;   49,568;32045,820;64,57315
 728,69;20709,543;   39,568;31938,953;64,79741
 729,26;20865,730;   53,568;32105,088;64,93346
 729,83;20941,217;   53,268;32264,621;64,84654
 730,40;20960,703;   66,768;32291,754;64,83769
 730,97;21303,490;   44,268;32590,588;65,31990
 731,55;21278,877;   41,468;32755,820;64,91771
 732,12;21245,363;   86,268;32841,656;64,59730
 732,69;21219,049;   66,968;32889,988;64,44282
 733,26;21227,436;   55,168;32930,520;64,40165
 733,83;21357,123;   41,168;32979,055;64,71561
 734,41;21515,508;   65,468;32991,590;65,14596
 734,98;21579,596;   51,368;33155,621;65,03161
 735,55;21771,281;   43,168;33183,656;65,56365
 736,12;21872,369;   65,968;33377,289;65,46243
 736,69;22006,355;   76,968;33377,922;65,85213
 737,26;22032,141;   57,468;33552,254;65,60625
 737,84;22163,328;   70,768;33487,188;66,11289
 738,41;22368,314;   63,168;33492,422;66,72343
 738,98;22351,400;   63,569;33375,055;66,90735
 739,55;22333,287;   49,669;33377,789;66,86131
 740,12;22629,174;   62,969;33678,023;67,13125
 740,69;22742,660;   70,569;33575,656;67,66761
 741,26;22964,547;   56,269;33557,391;68,38063
 741,83;23045,434;   53,869;33719,523;68,29383
 742,41;23161,619;   56,169;33833,055;68,40610
 742,98;23294,605;   91,469;33874,590;68,68263
 743,55;23250,693;   53,569;33836,824;68,66456
 744,12;23260,479;   50,469;33859,855;68,64960
 744,69;23380,965;   59,569;33848,492;69,02083
 745,26;23363,953;   42,169;33677,723;69,33670
 745,83;23521,039;   58,769;33854,355;69,42407
 746,40;23479,926;   57,969;33844,789;69,32276
 746,97;23557,912;   44,769;33828,125;69,59978
 747,55;23597,098;   62,269;33966,957;69,41467
 748,12;23671,584;   57,869;33910,191;69,75508
 748,69;23518,371;   68,769;33877,625;69,35935
 749,26;23749,357;   65,069;33958,559;69,87858
 749,83;23658,744;   42,569;33911,992;69,72713
 750,40;23749,730;   89,669;34158,824;69,44716
 750,97;23743,617;   96,269;34144,160;69,45319
 751,54;23772,203;   40,569;33980,793;69,92185
 752,11;23640,391;   52,969;33874,727;69,74038
 752,68;23704,377;   87,869;33912,859;69,81970
 753,25;23758,264;   60,269;33774,594;70,29058
 753,82;23700,150;   65,069;33810,527;70,03930
 754,39;23838,436;   75,169;33727,160;70,61474
 754,96;23787,822;   60,069;33616,395;70,71022
 755,53;24023,209;   29,469;33796,527;71,05665
 756,10;23938,295;   64,169;33720,961;70,93405
 756,67;24099,383;   73,369;33813,395;71,20923
 757,24;23990,969;   72,769;33740,426;71,04207
 757,81;24004,555;   16,469;33677,762;71,26311
 758,38;24053,342;   54,569;33822,695;71,06930
 758,95;24103,029;   79,469;33743,426;71,36285
 759,52;24188,115;   57,469;33615,859;71,90645
 760,09;24134,102;   68,570;33306,992;72,40275
 760,66;24057,588;   59,570;33309,727;72,17415
 761,23;24137,674;   91,070;33353,961;72,29259
 761,80;24046,961;   56,270;33295,793;72,17520
 762,37;24127,547;   68,970;33167,727;72,68725
 762,94;24134,234;   70,970;33187,461;72,66248
 763,51;24036,020;   36,070;32949,793;72,91776
 764,08;24022,707;   66,270;32998,527;72,74459
 764,65;24064,193;   69,570;32798,961;73,31216
 765,22;23948,580;   54,670;32804,496;72,95889
 765,79;23949,766;   77,370;32691,928;73,19552
 766,36;23930,754;   73,170;32743,063;73,02621
 766,93;24057,340;   68,970;32551,295;73,85053
 767,50;23962,727;   89,470;32828,328;72,92025
 768,07;23904,113;   63,870;32699,262;73,05027
 768,64;23875,799;   86,470;32572,596;73,22920
 769,21;23661,385;   57,970;32359,729;73,07161
 769,78;23464,672;   78,770;32244,963;72,70336
 770,34;23369,658;   45,570;32031,195;72,92053
 770,91;23409,244;   58,470;31921,430;73,28501
 771,48;23490,031;   62,370;31836,863;73,73103
 772,05;23293,219;   66,470;31610,697;73,63233
 772,62;23173,305;   42,670;31443,029;73,66360
 773,19;23199,990;   59,370;31579,764;73,41476
 773,76;23126,078;   71,070;31506,297;73,34131
 774,33;23175,863;   74,170;31447,330;73,63521
 774,90;23019,650;   52,870;31206,064;73,72207
 775,47;23048,137;   59,970;30957,498;74,40131
 776,03;23032,324;   73,470;30984,330;74,27439
 776,60;22985,711;   55,970;30757,863;74,68510
 777,17;22965,996;   65,470;30698,098;74,75861
 777,74;22918,283;   30,870;30522,031;75,06245
 778,31;22993,469;   68,970;30582,064;75,13004
 778,88;22884,057;   30,470;30366,898;75,33381
 779,45;22716,143;   75,770;30358,131;74,76423
 780,01;22723,229;   58,370;30299,664;74,94672
 780,58;22642,115;   60,570;30177,998;74,97833
 781,15;22517,102;   38,771;29979,432;75,07627
 781,72;22500,588;   66,771;29962,266;75,04080
 782,29;22444,975;   51,771;29667,100;75,61356
 782,86;22384,762;   55,571;29617,732;75,53301
 783,42;22303,049;   56,171;29598,166;75,30594
 783,99;22343,035;   66,671;29482,100;75,73020
 784,56;22249,320;   55,171;29320,232;75,83838
 785,13;21969,508;   40,271;29247,266;75,08214
 785,70;21954,693;   49,071;29060,299;75,50740
 786,26;21999,680;   51,671;28910,732;76,05240
 786,83;21881,867;   84,371;28889,166;75,67315
 787,40;21748,254;   57,171;28783,500;75,50941
 787,97;21591,340;   43,971;28581,133;75,50635
 788,54;21614,027;   70,371;28515,268;75,73821
 789,10;21328,514;   57,971;28344,400;75,19699
 789,67;21326,799;   70,371;28245,334;75,44439
 790,24;21254,186;   51,071;28193,768;75,34145
 790,81;21043,072;   88,271;27914,400;75,30620
 791,37;21108,658;   73,671;27872,135;75,66960
 791,94;21001,746;   70,771;27886,367;75,24906
 792,51;20862,133;   46,271;27539,201;75,71351
 793,08;20768,119;   69,771;27555,234;75,30653
 793,64;20722,105;   71,271;27455,168;75,41233
 794,21;20720,791;   69,671;27250,602;75,97650
 794,78;20589,777;   53,071;27147,035;75,79809
 795,35;20439,264;   73,471;27007,969;75,61230
 795,91;20330,551;   48,071;26789,301;75,84722
 796,48;20109,838;   55,771;26710,734;75,23577
 797,05;20206,225;   57,671;26624,369;75,84139
 797,62;20140,010;   41,971;26600,701;75,67394
 798,18;20022,098;   57,471;26410,736;75,75770
 798,75;19942,684;   56,571;26279,770;75,83405
 799,32;19990,971;   60,771;26209,102;76,21978
 799,88;19796,256;   55,971;26051,535;75,93713
 800,45;19640,242;   33,971;25945,270;75,66688
 801,02;19631,230;   65,271;25880,104;75,79348
 801,58;19569,816;   90,872;25660,436;76,18020
 802,15;19298,104;   72,872;25615,270;75,26792
 802,72;19206,889;   66,172;25404,703;75,53996
 803,28;19251,775;   49,172;25288,938;76,08075
 803,85;19055,963;   41,972;25144,871;75,74420
 804,42;18991,350;   77,772;24948,004;76,04906
 804,98;18878,135;  100,672;24935,537;75,60928
 805,55;18793,621;   56,972;24702,371;76,02494
 806,12;18615,408;   83,572;24611,004;75,55555
 806,68;18389,395;   66,472;24493,738;75,01012
 807,25;18421,881;   74,972;24436,271;75,31170
 807,82;18414,068;   86,872;24407,805;75,35565
 808,38;18320,955;   73,672;24367,037;75,11221
 808,95;18282,541;   62,972;24166,971;75,58733
 809,52;18282,527;   50,272;24162,004;75,61570
 810,08;18166,314;   55,172;23994,938;75,65297
 810,65;18253,199;   77,172;24169,672;75,44268
 811,21;18238,688;   69,972;24123,404;75,53481
 811,78;18272,674;   92,472;24337,539;74,98516
 812,35;18301,561;   64,972;24173,871;75,64256
 812,91;18266,246;   90,072;24239,705;75,26480
 813,48;18287,832;   68,172;24202,738;75,49197
 814,04;18167,020;   64,172;24088,373;75,35255
 814,61;18136,605;   77,572;24176,006;74,93862
 815,18;18032,691;   67,772;23892,539;75,40439
 815,74;17976,678;   69,772;23709,172;75,75026
 816,31;17927,266;   83,372;23614,406;75,83132
 816,87;17781,551;   43,272;23489,641;75,65470
 817,44;17759,338;   76,972;23452,273;75,64551
 818,00;17574,725;   43,272;23159,506;75,84044
 818,57;17520,012;   71,872;23076,340;75,84674
 819,14;17425,297;   82,872;22924,273;75,92540
 819,70;17249,184;   72,672;22792,707;75,60073
 820,27;17297,471;   62,972;22691,941;76,16122
 820,83;17125,057;   70,072;22541,373;75,89674
 821,40;17001,844;   98,072;22431,908;75,68683
 821,96;16885,330;   75,272;22315,541;75,58388
 822,53;16925,117;   70,973;22257,574;75,96542
 823,09;16824,902;   81,073;22073,309;76,13519
 823,66;16668,289;   68,173;21862,541;76,16700
 824,22;16661,176;   77,173;21851,674;76,16249
 824,79;16520,264;   75,473;21561,408;76,53747
 825,35;16477,148;   65,173;21648,041;76,04168
 825,92;16288,036;   75,173;21398,875;76,03212
 826,48;16269,822;   87,673;21501,309;75,56937
 827,05;16088,608;   89,573;21448,242;74,90652
 827,61;16000,795;   75,273;21249,076;75,21333
 828,18;15903,082;   60,873;21191,209;74,97377
 828,74;15831,769;   91,673;21053,543;75,08918
 829,31;15849,654;   83,373;21002,176;75,36895
 829,87;15734,142;   73,073;20733,709;75,80148
 830,44;15660,228;   85,173;20631,443;75,80478
 831,00;15589,914;   91,273;20673,977;75,29935
 831,57;15617,101;  101,573;20631,609;75,57477
 832,13;15376,688;   72,073;20323,344;75,57360
 832,69;15417,174;   58,173;20309,477;75,84204
 833,26;15344,561;   85,473;20322,711;75,40104
 833,82;15272,146;   93,073;20197,744;75,50023
 834,39;15088,434;   78,773;20137,477;74,82867
 834,95;15124,720;   57,173;19959,410;75,70780
 835,52;15101,206;   87,873;19851,744;75,96352
 836,08;15048,993;   95,573;19951,877;75,30817
 836,64;14969,979;   76,273;19800,711;75,50890
 837,21;14844,565;   88,673;19552,443;75,81210
 837,77;14861,353;   91,873;19491,777;76,13171
 838,34;14717,438;   67,473;19470,012;75,50540
 838,90;14595,625;   64,473;19306,045;75,51957
 839,46;14593,812;   83,873;19312,479;75,46017
 840,03;14610,798;   76,173;19300,811;75,60415
 840,59;14432,185;   85,873;19175,645;75,15182
 841,16;14453,771;  105,173;19156,578;75,31517
 841,72;14241,558;   59,373;18965,512;75,01365
 842,28;14230,845;   77,873;18857,246;75,36445
 842,85;14240,131;   95,573;18812,578;75,57062
 843,41;14163,018;  105,374;18740,813;75,43500
 843,97;14078,604;   89,174;18686,846;75,22140
 844,54;13961,790;  104,774;18624,979;74,82108
 845,10;13887,877;   89,174;18523,713;74,85244
 845,67;13843,163;   68,774;18413,445;75,08660
 846,23;13713,649;   78,674;18361,080;74,57977
 846,79;13696,336;   90,474;18265,613;74,85974
 847,36;13511,123;   55,774;18179,047;74,24348
 847,92;13552,909;   84,874;18034,680;75,03165
 848,48;13522,296;   41,874;18039,213;74,90231
 849,04;13405,683;   62,374;17949,447;74,59750
 849,61;13362,469;   56,274;17918,580;74,49315
 850,17;13348,955;   68,174;17819,514;74,81566
 850,73;13341,542;   71,474;17764,848;75,00021
 851,30;13134,828;   46,074;17669,881;74,26746
 851,86;13086,515;   75,874;17597,914;74,25300
 852,42;13050,102;   51,174;17568,348;74,20676
 852,99;13072,788;   79,274;17583,082;74,23250
 853,55;13003,675;   83,174;17542,514;74,00338
 854,11;12899,961;   70,074;17432,049;73,89647
 854,67;12918,947;   85,474;17420,881;74,03041
 855,24;12832,734;   51,874;17213,414;74,47385
 855,80;12771,120;   76,874;17244,848;73,94144
 856,36;12755,507;   80,574;17175,881;74,14276
 856,92;12661,293;   54,474;17027,215;74,27686
 857,49;12641,979;   81,274;17048,248;74,03032
 858,05;12546,566;   67,274;16968,482;73,83669
 858,61;12616,953;   65,774;17003,316;74,10272
 859,17;12447,439;   77,374;16904,250;73,51374
 859,74;12374,826;   82,074;16836,883;73,36850
 860,30;12299,612;   93,074;16663,016;73,66675
 860,86;12153,199;   72,074;16692,350;72,68908
 861,42;12108,085;   74,674;16545,883;73,05724
 861,99;12090,172;   54,674;16506,717;73,15504
 862,55;12003,958;   66,374;16393,051;73,11705
 863,11;12053,645;   75,174;16437,283;73,20860
 863,67;11895,231;   61,274;16290,117;72,91929
 864,23;11827,918;   80,175;16199,351;72,88055
 864,80;11780,805;   69,175;16081,384;73,14188
 865,36;11724,491;   71,875;16120,817;72,60676
 865,92;11629,577;   96,175;16088,751;72,11723
 866,48;11489,764;   67,375;15987,384;71,74863
 867,04;11540,351;   60,675;15891,418;72,51508
 867,60;11507,937;   99,375;15884,451;72,27435
 868,17;11349,724;   93,675;15884,685;71,28137
 868,73;11331,410;   82,775;15672,618;72,15361
 869,29;11247,297;   59,475;15470,151;72,59786
 869,85;11238,883;  100,475;15369,685;72,94685
 870,41;11101,569;   80,575;15293,418;72,44533
 870,97;11082,656;   92,975;15232,252;72,59053
 871,54;10960,143;   84,175;15178,686;72,05247
 872,10;10878,429;   84,275;15055,419;72,09973
 872,66;10726,315;   66,775;14910,652;71,81102
 873,22;10720,502;   81,975;14890,586;71,84014
 873,78;10486,488;   65,275;14742,419;71,00301
 874,34;10547,875;   95,075;14662,652;71,75387
 874,90;10557,075;  109,775;14536,053;72,41854
 875,46;10408,675;   96,375;14412,952;72,03048
 876,03;10266,575;   86,475;14363,353;71,30481
 876,59;10198,275;   64,475;14153,253;71,92817
 877,15;10126,875;  101,475;14166,853;71,27715
 877,71;10027,175;   78,275;14064,652;71,13279
 878,27;10018,175;   95,675;13910,553;71,82474
 878,83; 9915,275;  114,275;13971,753;70,72716
 879,39; 9891,775;   91,075;14082,753;70,04664
 879,95; 9842,675;   86,275;13964,253;70,30131
 880,51; 9777,675;   75,175;13927,253;70,04364
 881,07; 9858,575;   82,375;13978,753;70,35071
 881,63; 9857,675;   92,575;13971,253;70,36045
 882,19; 9798,475;   82,675;13921,553;70,20656
 882,75; 9877,075;   86,275;14019,553;70,26918
 883,31; 9922,875;   95,575;14187,853;69,73536
 883,88; 9886,975;   96,375;14174,353;69,54550
 884,44; 9874,775;   76,175;14175,753;69,49570
 885,00; 9879,975;  106,075;14266,952;69,02044
 885,56; 9884,475;  101,675;14299,452;68,90374
 886,12; 9993,375;  109,875;14421,152;69,06092
 886,68; 9964,875;   90,775;14436,753;68,82835
 887,24;10135,975;  102,475;14574,952;69,32814
 887,80;10080,675;   86,975;14671,753;68,52144
 888,36;10119,475;  106,275;14715,652;68,53954
 888,92;10215,575;   98,975;14773,353;68,94057
 889,48;10362,375;   99,575;14973,853;68,99696
 890,04;10332,175;   95,275;14803,053;69,60195
 890,60;10483,875;  117,475;15014,652;69,58634
 891,16;10474,175;   99,875;15075,853;69,27294
 891,72;10377,375;  113,275;15058,452;68,67834
 892,28;10371,275;  112,475;15126,053;68,33015
 892,84;10347,175;   93,775;15039,853;68,60261
 893,39;10349,175;  117,575;15112,952;68,23169
 893,95;10285,375;  112,975;15044,753;68,12585
 894,51;10091,175;   66,375;14891,253;67,62147
 895,07;10126,675;  127,375;14906,353;67,65894
 895,63; 9905,975;   74,275;14689,952;67,26818
 896,19; 9850,275;   90,375;14601,952;67,25596
 896,75; 9764,075;  105,175;14460,152;67,28607
 897,31; 9614,075;   82,775;14295,853;67,06007
 897,87; 9614,675;   98,175;14146,853;67,73947
 898,43; 9480,175;   87,775;14075,753;67,14623
 898,99; 9337,675;  109,175;14002,753;66,42277
 899,55; 9290,875;  109,475;13940,652;66,38191
 900,11; 9118,675;  104,975;13747,553;66,07036
 900,67; 8987,575;   91,375;13658,652;65,57101
 901,22; 8942,575;  108,375;13601,952;65,46967
 901,78; 8842,075;   91,275;13560,053;64,97100
 902,34; 8789,275;  103,075;13451,152;65,07454
 902,90; 8699,875;   73,575;13350,652;64,97138
 903,46; 8668,175;   95,775;13236,353;65,23610
 904,02; 8545,775;   88,075;13091,553;65,04183
 904,58; 8427,175;   67,075;12918,152;65,05369
 905,14; 8366,175;   63,975;12874,553;64,80738
 905,70; 8263,375;   66,775;12696,053;64,90157
 906,25; 8205,875;   84,375;12708,452;64,33342
 906,81; 8208,375;   87,675;12732,152;64,22330
 907,37; 8123,075;   79,275;12616,152;64,16111
 907,93; 8113,975;   74,775;12588,152;64,24485
 908,49; 8026,475;  101,875;12497,652;63,92984
 909,05; 7992,775;   89,675;12425,553;64,06597
 909,60; 7943,475;   86,575;12340,452;64,11767
 910,16; 7788,375;   67,675;12291,853;63,15926
 910,72; 7714,075;  100,475;12207,753;62,88449
 911,28; 7584,775;   90,875;12156,053;62,11181
 911,84; 7605,175;   79,575;12106,753;62,57162
 912,39; 7452,875;   73,475;12049,353;61,61887
 912,95; 7416,075;  104,475;12001,452;61,45763
 913,51; 7322,875;   85,375;11945,253;61,02508
 914,07; 7265,775;   83,775;11813,452;61,22931
 914,63; 7173,075;   64,775;11748,053;60,84166
 915,18; 7076,875;   77,475;11617,853;60,65140
 915,74; 7028,075;   63,975;11632,652;60,19789
 916,30; 6853,875;   61,475;11588,553;58,92560
 916,86; 6872,875;   83,575;11514,652;59,39335
 917,42; 6806,175;   82,275;11425,152;59,27861
 917,97; 6667,175;   75,375;11265,452;58,90755
 918,53; 6562,675;   67,775;11196,253;58,36288
 919,09; 6533,175;   88,975;11223,753;57,87452
 919,65; 6413,275;   83,375;11083,452;57,54414
 920,20; 6345,475;   61,875;10983,053;57,53592
 920,76; 6267,075;   65,475;10849,452;57,50754
 921,32; 6192,075;   82,675;10770,952;57,15982
 921,87; 6162,675;   97,475;10670,253;57,36619
 922,43; 5995,075;   64,675;10561,353;56,49788
 922,99; 5963,475;   61,875;10406,753;57,04852
 923,55; 5912,675;   63,775;10357,353;56,82087
 924,10; 5817,375;   73,575;10282,853;56,26059
 924,66; 5689,775;   78,675;10170,152;55,60236
 925,22; 5583,675;   43,275;10093,952;55,12464
 925,77; 5492,875;   66,075; 9927,053;55,03308
 926,33; 5402,275;   90,375; 9903,253;54,13193
 926,89; 5303,575;   71,975; 9692,753;54,37814
 927,44; 5219,375;   52,175; 9580,553;54,22959
 928,00; 5125,075;   66,875; 9533,753;53,43050
 928,56; 5003,775;   80,375; 9372,253;52,98606
 929,12; 4948,575;   72,775; 9275,152;52,98414
 929,67; 4751,475;   67,575; 9091,053;51,90793
 930,23; 4706,075;   50,975; 8915,253;52,51528
 930,78; 4639,775;  100,675; 8842,553;51,92363
 931,34; 4518,775;   61,975; 8632,152;52,00359
 931,90; 4362,275;   61,675; 8494,353;50,99922
 932,45; 4229,175;   78,775; 8290,753;50,54081
 933,01; 4077,875;   52,975; 8024,453;50,49127
 933,57; 3897,175;   72,175; 7753,252;49,79770
 934,12; 3719,775;   70,475; 7399,553;49,79208
 934,68; 3526,775;   59,075; 7020,252;49,81485
 935,24; 3330,175;   67,875; 6614,752;49,82986
 935,79; 3113,575;   72,975; 6254,853;49,18570
 936,35; 2905,475;   91,375; 5812,252;49,19001
 936,90; 2697,675;   80,275; 5348,752;49,68039
 937,46; 2475,175;   72,775; 4956,953;49,18740
 938,02; 2250,675;   63,375; 4549,152;48,76078
 938,57; 2107,275;   73,175; 4265,053;48,52479
 939,13; 1929,875;   70,575; 3986,752;47,47742
 939,68; 1816,875;   57,375; 3713,452;48,12535
 940,24; 1696,975;   68,775; 3504,052;47,39646
 940,79; 1663,775;   91,875; 3391,052;47,64521
 941,35; 1568,575;   79,675; 3217,552;47,44927
 941,91; 1479,175;   71,375; 3122,252;46,14410
 942,46; 1461,275;   75,075; 3063,552;46,38482
 943,02; 1459,975;   65,375; 3050,752;46,71436
 943,57; 1405,475;   61,275; 2982,452;46,01569
 944,13; 1401,775;   67,375; 2974,452;45,90177
 944,68; 1385,975;   65,975; 3041,752;44,35816
 945,24; 1424,075;   82,275; 3060,052;45,06045
 945,79; 1398,875;   68,775; 3104,052;43,82136
 946,35; 1430,175;   51,775; 3194,752;43,85650
 946,90; 1483,275;   98,575; 3283,552;43,47598
 947,46; 1452,375;   52,175; 3311,052;42,96571
 948,01; 1457,775;   51,575; 3390,052;42,12100
 948,57; 1529,475;   86,775; 3552,952;41,62222
 949,12; 1515,875;   65,875; 3613,353;40,87411
 949,68; 1564,775;   76,275; 3732,653;40,70969
 950,23; 1578,775;   70,075; 3833,252;40,09112
 950,79; 1611,575;   75,775; 3933,452;39,81152
 951,34; 1653,675;   83,275; 4070,952;39,38132
 951,90; 1646,175;   57,475; 4140,853;38,90652
 952,45; 1701,275;   81,075; 4292,152;38,47472
 953,01; 1719,675;   65,975; 4364,252;38,47355
 953,56; 1726,875;   87,975; 4500,853;37,13903
 954,12; 1733,375;   42,075; 4567,553;37,37285
 954,67; 1765,875;   70,875; 4720,453;36,45492
 955,23; 1773,975;   61,975; 4804,553;36,09851
 955,78; 1799,475;   67,175; 4882,953;35,97134
 956,33; 1796,075;   58,575; 4947,252;35,54131
 956,89; 1827,575;   53,475; 5038,553;35,58821
 957,44; 1848,575;   53,675; 5170,752;35,07666
 958,00; 1852,675;   49,475; 5238,353;34,75125
 958,55; 1836,775;   70,475; 5313,953;33,68566
 959,10; 1867,175;   52,375; 5370,252;34,12640
 959,66; 1863,675;   74,275; 5488,752;33,04843
 960,21; 1844,775;   78,475; 5567,453;32,17903
 960,77; 1830,575;   54,275; 5606,152;31,99458
 961,32; 1848,075;   48,375; 5663,453;32,05120
 961,87; 1871,575;   79,775; 5738,752;31,66296
 962,43; 1849,075;   68,975; 5780,652;31,16598
 962,98; 1853,675;   76,175; 5828,652;30,89973
 963,54; 1784,075;   27,075; 5820,652;30,32668
 964,09; 1822,575;   56,275; 5873,953;30,36091
 964,64; 1810,275;   64,975; 5901,053;29,90536
 965,20; 1782,375;   44,375; 5966,652;29,34682
 965,75; 1806,875;   66,575; 5976,353;29,44781
 966,30; 1779,475;   75,275; 6068,553;28,43519
 966,86; 1777,575;   62,975; 6121,953;28,29850
 967,41; 1762,075;   81,075; 6084,453;28,00090
 967,96; 1741,275;   75,175; 6108,953;27,61288
 968,52; 1754,375;   81,775; 6126,353;27,67108
 969,07; 1712,175;   72,975; 6120,152;27,10686
 969,62; 1690,475;   77,175; 6134,953;26,63188
 970,18; 1663,375;   57,575; 6147,652;26,36748
 970,73; 1670,575;   66,475; 6203,553;26,13785
 971,28; 1682,375;   95,775; 6197,053;26,00439
 971,84; 1621,175;   55,075; 6118,752;25,82756
 972,39; 1617,375;   95,875; 6148,652;25,13722
 972,94; 1577,975;   54,975; 6140,652;25,02597
 973,49; 1546,975;   64,575; 6141,252;24,39491
 974,05; 1535,975;   64,375; 6178,053;24,07062
 974,60; 1540,275;   88,575; 6213,252;23,70247
 975,15; 1539,575;   77,675; 6231,553;23,75575
 975,71; 1489,075;   62,375; 6121,453;23,54649
 976,26; 1489,475;   77,575; 6110,252;23,40420
 976,81; 1454,575;   90,675; 6134,152;22,56813
 977,36; 1469,275;   84,775; 6156,953;22,80072
 977,92; 1459,075;   90,175; 6209,353;22,37065
 978,47; 1419,775;   77,175; 6060,252;22,43996
 979,02; 1405,975;   95,475; 6085,652;21,87748
 979,57; 1377,575;   86,775; 6058,453;21,61537
 980,13; 1348,775;   76,175; 6038,752;21,34312
 980,68; 1317,975;   77,075; 6010,553;20,91354
 981,23; 1329,075;   89,175; 6054,652;20,78459
 981,78; 1297,575;   82,075; 5974,152;20,62940
 982,33; 1290,175;   79,275; 5893,252;20,82740
 982,89; 1271,575;   94,375; 5938,152;20,14450
 983,44; 1247,475;   65,675; 5935,853;20,13227
 983,99; 1254,775;  104,775; 5949,453;19,67602
 984,54; 1222,775;   81,475; 5900,053;19,61476
 985,09; 1212,775;   87,275; 5873,752;19,45052
 985,65; 1176,175;   69,375; 5811,853;19,27391
 986,20; 1172,775;  106,575; 5791,152;18,75601
 986,75; 1174,075;   95,875; 5823,953;18,82307
 987,30; 1169,575;   97,175; 5726,053;19,05175
 987,85; 1128,075;   92,475; 5721,353;18,39798
 988,40; 1108,375;   96,675; 5693,953;18,07486
 988,96; 1102,575;  114,875; 5666,553;17,79102
 989,51; 1095,375;  108,875; 5644,053;17,82237
 990,06; 1116,575;  128,275; 5680,853;17,79894
 990,61; 1047,975;   93,575; 5569,053;17,43044
 991,16; 1050,475;  104,375; 5558,053;17,34793
 991,71; 1020,475;   79,875; 5505,853;17,33512
 992,26;  996,375;   93,475; 5457,252;16,83329
 992,81;  980,775;   75,075; 5427,053;16,92272
 993,37;  999,275;  113,475; 5390,553;16,78581
 993,92;  977,975;  108,375; 5368,953;16,53050
 994,47;  971,975;  117,475; 5329,652;16,39430
 995,02;  955,875;  118,475; 5313,252;16,12004
 995,57;  906,875;   90,875; 5274,652;15,74142
 996,12;  941,375;  133,575; 5247,553;15,79592
 996,67;  923,175;  132,375; 5191,652;15,63069
 997,22;  887,875;   99,875; 5128,652;15,66981
 997,77;  883,775;  115,275; 5110,553;15,38453
 998,32;  856,975;  103,775; 5015,652;15,33426
 998,87;  867,875;  114,275; 5018,752;15,36555
 999,42;  850,175;  101,675; 4972,553;15,36684
 999,97;  836,475;  109,975; 4956,353;14,99058
1000,53;  855,475;  123,475; 4993,752;15,02994
1001,08;  814,375;   98,375; 4879,053;14,97696
1001,63;  829,275;  144,475; 4878,053;14,46686
1002,18;  763,575;   85,075; 4777,453;14,45962
1002,73;  797,975;  131,375; 4813,853;14,23605
1003,28;  766,875;  103,575; 4811,953;14,08766
1003,83;  762,275;  119,075; 4691,752;14,06616
1004,38;  778,175;  137,775; 4703,152;14,02732
1004,93;  742,875;  114,375; 4680,953;13,76304
1005,48;  730,575;  104,075; 4573,053;14,01887
1006,03;  699,575;  112,775; 4525,652;13,29745
1006,58;  707,575;  111,475; 4486,553;13,62490
1007,13;  679,775;   94,475; 4466,252;13,38815
1007,68;  679,675;  104,975; 4462,453;13,18882
1008,23;  695,575;  114,575; 4425,853;13,47628
1008,78;  690,275;  107,375; 4384,152;13,62942
1009,33;  688,175;  121,875; 4307,752;13,52882
1009,88;  639,975;   84,775; 4329,553;13,07960
1010,43;  655,775;  118,875; 4320,752;12,77762
1010,98;  635,375;  100,675; 4310,053;12,70259
1011,52;  625,775;   97,075; 4264,953;12,68511
1012,07;  672,075;  144,475; 4319,252;12,63780
1012,62;  629,775;  103,875; 4259,152;12,65620
1013,17;  617,375;   97,175; 4172,053;12,76603
1013,72;  606,975;   94,575; 4143,453;12,65536
1014,27;  596,875;  100,275; 4105,853;12,39771
1014,82;  569,175;   86,875; 4042,952;12,19137
1015,37;  555,375;   84,375; 3964,853;12,13768
1015,92;  572,675;  109,475; 3894,252;12,23850
1016,47;  534,775;   90,275; 3819,452;11,91952
1017,02;  525,975;   81,075; 3732,153;12,18544
1017,57;  531,475;   96,475; 3718,853;12,00869
1018,11;  516,175;   77,275; 3656,252;12,26328
1018,66;  536,075;  120,175; 3636,552;11,82751
1019,21;  516,775;  109,675; 3579,552;11,73240
1019,76;  474,875;   77,675; 3497,353;11,61513
1020,31;  476,775;   71,975; 3446,452;11,99593
1020,86;  477,275;   96,175; 3448,052;11,36975
1021,41;  468,675;   80,175; 3387,052;11,74824
1021,96;  463,775;   83,675; 3385,853;11,51059
1022,50;  484,875;  105,975; 3332,952;11,74164
1023,05;  462,775;   94,675; 3288,052;11,52698
1023,60;  458,775;   97,975; 3251,353;11,44170
1024,15;  428,075;   81,075; 3184,853;11,17993
1024,70;  450,575;   95,075; 3176,252;11,53780
1025,25;  429,375;   81,175; 3127,452;11,43034
1025,79;  436,675;  101,175; 3110,752;11,14774
1026,34;  416,275;   83,475; 3044,653;11,23877
1026,89;  420,975;  102,175; 3039,052;10,85507
1027,44;  419,575;   95,875; 2952,952;11,32976
1027,99;  408,175;   93,475; 2944,552;11,03793
1028,53;  401,575;   89,675; 2900,052;11,09815
1029,08;  425,175;  114,775; 2876,653;11,23873
1029,63;  398,375;  114,875; 2854,952;10,34642
1030,18;  384,575;   92,075; 2788,552;10,84749
1030,73;  373,075;   91,175; 2739,552;10,64425
1031,27;  360,875;   85,875; 2715,252;10,45875
1031,82;  359,075;   81,875; 2686,452;10,64280
1032,37;  376,675;   98,875; 2688,853;10,72596
1032,92;  380,275;  100,575; 2675,452;10,86265
1033,46;  365,975;   99,775; 2599,252;10,65023
1034,01;  349,775;   78,375; 2582,952;10,83616
1034,56;  371,775;   98,875; 2559,252;11,09179
1035,11;  367,075;   92,375; 2523,552;11,29905
1035,65;  345,775;   87,575; 2478,052;10,80119
1036,20;  335,575;   99,375; 2454,452;10,02939
1036,75;  366,375;  118,675; 2446,353;10,64151
1037,29;  336,575;   90,275; 2398,252;10,67168
1037,84;  313,775;   78,375; 2347,252;10,37517
1038,39;  326,075;   91,075; 2329,952;10,49633
1038,94;  300,575;   73,075; 2277,153;10,32178
1039,48;  314,675;   83,575; 2278,552;10,52858
1040,03;  332,675;  102,875; 2245,252;10,72640
1040,58;  306,975;  101,175; 2194,552; 9,83100
1041,12;  310,175;   91,375; 2191,653;10,41767
1041,67;  299,575;  101,075; 2166,752; 9,60944
1042,22;  313,775;  118,475; 2145,252; 9,63599
1042,76;  305,475;   99,275; 2118,452;10,21208
1043,31;  298,075;   90,675; 2060,653;10,52804
1043,86;  294,075;   98,875; 2044,252;10,03404
1044,40;  298,175;   92,975; 2018,052;10,65931
1044,95;  294,975;   94,175; 1988,552;10,59979
1045,50;  266,875;   75,375; 1934,353;10,30136
1046,04;  302,075;  114,375; 1930,453;10,33546
1046,59;  268,875;   96,175; 1878,353; 9,69039
1047,13;  297,275;  121,075; 1879,453;10,02060
1047,68;  284,775;  115,675; 1860,052; 9,69400
1048,23;  273,575;  118,775; 1866,752; 8,85595
1048,77;  253,275;   90,175; 1784,953; 9,62368
1049,32;  272,375;  104,175; 1785,953;10,00132
1049,86;  259,175;   92,675; 1760,552; 9,98275
1050,41;  250,875;   82,475; 1735,552;10,18706
1050,96;  264,775;  100,875; 1698,652;10,25800
1051,50;  266,475;  101,675; 1663,252;10,55343
1052,05;  265,575;   94,675; 1664,052;10,88967
1052,59;  243,575;   82,975; 1624,152;10,42060
1053,14;  236,475;   84,475; 1582,652;10,14566
1053,69;  251,475;   98,475; 1571,453;10,38712
1054,23;  247,575;  104,575; 1569,052; 9,76457
1054,78;  244,475;  100,775; 1550,152; 9,91460
1055,32;  260,475;  123,075; 1550,453; 9,62605
1055,87;  221,675;   68,875; 1491,752;10,73880
1056,41;  218,875;   78,775; 1469,552;10,07350
1056,96;  238,075;   96,775; 1451,052;10,43361
1057,50;  255,175;  113,375; 1470,853;10,44585
1058,05;  209,075;   82,075; 1401,953; 9,62210
1058,59;  232,875;   95,875; 1396,552;10,53297
1059,14;  229,775;  103,575; 1370,453; 9,96150
1059,68;  211,475;   75,975; 1329,353;10,81079
1060,23;  251,075;  126,875; 1383,752; 9,88163
1060,77;  226,175;   97,375; 1317,052;10,56017
1061,32;  226,175;  108,575; 1320,652; 9,70235
1061,86;  220,775;  111,175; 1289,752; 9,29935
1062,41;  212,975;   93,975; 1242,953;10,35704
1062,95;  205,175;  109,575; 1230,853; 8,52599
1063,50;  232,075;  111,075; 1230,052;10,81344
1064,04;  197,875;   90,475; 1197,453; 9,70209
1064,59;  223,375;  114,775; 1210,052; 9,91530
1065,13;  218,975;  103,475; 1170,552;10,82396
1065,68;  204,275;  107,275; 1161,353; 9,20236
1066,22;  216,175;  115,875; 1166,453; 9,54713
1066,76;  226,375;  130,175; 1145,252; 9,47711
1067,31;  209,375;   99,875; 1110,552;10,83432
1067,85;  194,875;  100,975; 1090,252; 9,49178
1068,40;  208,975;  110,275; 1095,353;10,01952
1068,94;  206,775;   99,175; 1079,353;10,97760
1069,49;  192,475;   98,175; 1041,652; 9,99494
1070,03;  199,975;  111,175; 1034,353; 9,61895
1070,57;  194,575;   88,775; 1012,852;11,44926
1071,12;  167,175;   75,875;  987,153;10,01890
1071,66;  227,375;  131,775; 1039,953;10,52658
1072,21;  202,575;  112,475; 1011,352;10,02361
1072,75;  205,175;  104,475;  978,552;11,52072
1073,29;  174,475;   77,075;  942,453;11,25520
1073,84;  177,675;   95,975;  941,153; 9,66661
1074,38;  186,775;   93,875;  928,253;11,13405
1074,92;  188,775;  107,275;  940,153; 9,78535
1075,47;  193,075;  112,775;  938,852; 9,72064
1076,01;  208,075;  121,775;  926,253;10,72746
1076,56;  192,775;   97,275;  891,953;12,01745
1077,10;  165,275;   86,075;  865,253;10,16456
1077,64;  183,775;   97,875;  884,453;10,92073
1078,19;  211,175;  123,175;  887,753;11,50962
1078,73;  182,175;   98,775;  853,852;11,04522
1079,27;  191,475;  121,075;  875,552; 9,33096
1079,81;  195,275;  121,375;  860,953; 9,99219
1080,36;  188,175;  105,975;  836,052;11,25908
1080,90;  172,975;   96,375;  819,753;10,58922
1081,44;  162,975;   82,475;  789,552;11,38489
1081,99;  155,375;   70,375;  771,753;12,11901
1082,53;  179,175;  113,075;  798,653; 9,64151
1083,07;  174,675;  104,175;  791,453;10,25787
1083,62;  178,575;  101,275;  772,552;11,51536
1084,16;  171,975;   98,975;  782,453;10,68067
1084,70;  187,575;  107,475;  767,153;12,14230
1085,24;  185,475;  108,775;  750,653;11,94932
1085,79;  165,075;  109,175;  747,552; 8,75657
1086,33;  163,175;   99,075;  711,453;10,46740
1086,87;  184,275;  102,075;  714,852;13,41433
1087,41;  155,375;   84,475;  686,852;11,77003
1087,96;  189,275;  124,575;  732,552;10,64184
1088,50;  158,975;  112,075;  696,953; 8,01877
1089,04;  171,975;  121,775;  715,153; 8,46004
1089,58;  145,075;   82,375;  655,953;10,93139
1090,13;  161,375;  102,975;  653,153;10,61476
1090,67;  155,875;  101,775;  678,753; 9,37645
1091,21;  148,075;   92,075;  651,852;10,00398
1091,75;  170,875;  106,875;  647,153;11,84576
1092,29;  171,575;  105,875;  642,552;12,24199
1092,84;  158,675;  105,975;  628,352;10,08849
1093,38;  180,875;  128,175;  662,753; 9,85825
1093,92;  184,775;  113,475;  640,052;13,54027
1094,46;  167,575;  128,175;  638,852; 7,71524
1095,00;  158,075;   93,975;  602,052;12,61619
1095,54;  143,775;   89,975;  591,352;10,73044
1096,09;  165,375;  114,975;  597,352;10,44825
1096,63;  165,675;  117,175;  598,453;10,07735
1097,17;  148,675;  102,575;  573,052; 9,79856
1097,71;  173,875;  122,875;  582,453;11,09715
1098,25;  146,175;  103,275;  553,653; 9,52534
1098,79;  177,375;  104,775;  568,753;15,64731
1099,33;  165,075;  111,975;  572,052;11,54153
1099,88;  162,275;  110,775;  562,253;11,40699
1100,42;  123,675;   83,275;  521,253; 9,22422

