0076 ELITRO
Integration time [ms]:   8,000
Averaging Nr. [scans]: 10
Smoothing Nr. [pixels]: 0
Data measured with spectrometer [name]: 7314920SP
Wave   ;Sample   ;Dark     ;Reference;Reflectance
[nm]   ;[counts] ;[counts] ;[counts] ;[%]

 199,42;  114,347;   63,873;  150,055;58,56712
 200,02;  117,777;   92,669;  145,732;47,31713
 200,62;   83,880;   67,563;   88,793;76,85773
 201,22;  121,759;   86,969;  138,011;68,16094
 201,82;  112,895;   66,174;  141,790;61,78727
 202,42;  135,916;  101,668;  154,973;64,24894
 203,03;   70,011;   60,168;   91,775;31,14321
 203,63;   94,768;   69,967;  109,037;63,47715
 204,23;  101,673;   70,671;  129,903;52,33979
 204,83;  105,946;   74,567;  123,718;63,84165
 205,43;  103,447;   56,673;  123,555;69,93563
 206,03;   86,285;   50,167;   90,459;89,64138
 206,63;   79,211;   68,865;  100,007;33,22175
 207,24;  129,882;   74,675;  162,566;62,81334
 207,84;   70,024;   39,967;   83,699;68,73016
 208,44;   85,059;   50,669;   95,011;77,55794
 209,04;   57,172;   47,365;   85,066;26,01152
 209,64;  110,082;   69,972;  127,998;69,12394
 210,24;   76,846;   45,367;   97,218;60,71015
 210,84;   88,620;   51,469;  101,970;73,56533
 211,44;  107,064;   86,470;  122,908;56,51800
 212,05;   78,872;   60,865;   99,266;46,89069
 212,65;   91,011;   66,368;  112,975;52,87478
 213,25;  114,516;   93,768;  142,073;42,95152
 213,85;  102,215;   84,465;  114,904;58,31275
 214,45;   72,746;   53,367;  100,418;41,18694
 215,05;   68,720;   39,369;  100,070;48,35375
 215,65;   81,081;   55,169;  105,630;51,35115
 216,25;   79,046;   40,267;   82,518;91,78182
 216,85;   63,198;   34,069;   89,651;52,40822
 217,45;   73,211;   49,068;   97,375;49,97900
 218,05;   92,147;   58,270;  112,886;62,02625
 218,66;   56,438;   28,769;   75,692;58,96675
 219,26;   50,068;   26,567;   79,337;44,53385
 219,86;   68,651;   36,771;   81,584;71,14050
 220,46;   87,786;   54,270;  104,127;67,22369
 221,06;   89,873;   51,871;  115,903;59,34832
 221,66;   87,956;   43,471;  103,481;74,12792
 222,26;   75,182;   39,772;  102,398;56,54169
 222,86;   85,894;   67,268;  118,954;36,03691
 223,46;   81,746;   51,767;   88,918;80,69439
 224,06;  110,712;   64,971;  120,343;82,60606
 224,66;   96,168;   57,570;  105,805;80,02059
 225,26;   76,203;   48,169;  113,748;42,74764
 225,86;   82,665;   42,173;  112,376;57,67771
 226,46;   87,255;   49,968;  102,913;70,42542
 227,06;   62,468;   27,670;   87,705;57,96280
 227,66;   57,154;   37,665;   74,845;52,41862
 228,27;   71,286;   29,270;   96,227;62,75030
 228,87;  120,007;   89,170;  143,046;57,23776
 229,47;   74,843;   29,172;   92,357;72,28041
 230,07;   42,003;   11,169;   59,648;63,60170
 230,67;   61,098;   38,169;   84,651;49,32994
 231,27;   71,686;   27,670;   76,327;90,46115
 231,87;   77,398;   43,169;  100,751;59,44482
 232,47;  108,261;   43,775;  132,047;73,05324
 233,07;   58,950;   42,965;   75,547;49,06025
 233,67;   78,811;   53,768;   94,275;61,82464
 234,27;   47,085;    0,567;   53,259;88,28342
 234,87;   57,551;   34,771;  106,084;31,94408
 235,47;   49,303;   16,169;   74,148;57,14736
 236,07;   46,659;   30,266;   72,042;39,23952
 236,67;   63,202;   49,966;   85,180;37,58728
 237,27;   61,569;   28,873;  109,074;40,76744
 237,87;   69,068;   25,370;   99,805;58,70621
 238,47;   37,677;   14,269;   68,032;43,53906
 239,07;   75,521;   33,272;   95,738;67,63464
 239,67;  104,952;   43,477;  131,421;69,90328
 240,27;   89,965;   46,773;  119,176;59,65425
 240,87;   94,530;   50,773;  119,533;63,63667
 241,47;   52,423;   39,164;   76,131;35,86915
 242,07;   64,933;   39,968;   92,894;47,16969
 242,67;   42,908;  -11,027;   77,914;60,64117
 243,27;   36,546;    7,767;   46,418;74,45805
 243,87;   88,712;   48,671;  108,343;67,10135
 244,47;   77,073;   22,371;   99,703;70,73646
 245,07;   36,720;    2,669;   55,770;64,12539
 245,67;   48,911;   31,068;   85,575;32,73603
 246,27;   47,911;   34,965;   69,007;38,02923
 246,87;   37,294;   26,668;   63,154;29,12351
 247,46;   14,880;   19,663;   23,793;-115,81862
 248,06;   56,047;   20,470;   69,786;72,13928
 248,66;   68,582;   31,072;  105,898;50,12932
 249,26;   52,359;   32,366;   70,742;52,09675
 249,86;   73,865;   42,873;  102,176;52,25960
 250,46;   60,322;   16,775;   93,507;56,75167
 251,06;   45,411;   22,168;   65,375;53,79532
 251,66;   51,990;   20,771;   64,724;71,02807
 252,26;   50,381;   38,866;   70,261;36,67573
 252,86;   57,520;   35,969;   89,070;40,58532
 253,46;   18,446;   -8,033;   22,118;87,82047
 254,06;   54,498;   31,766;   79,483;47,63937
 254,66;   80,347;   34,973;  100,155;69,61178
 255,26;   89,025;   39,073;  118,836;62,62629
 255,86;   49,623;   37,464;   55,631;66,93261
 256,46;   50,264;   19,870;   70,208;60,37986
 257,05;   57,129;   23,570;   59,565;93,23316
 257,65;   70,751;   38,071;   97,684;54,82064
 258,25;   75,943;   37,372;  101,457;60,18626
 258,85;   58,420;   15,669;   51,770;118,42121
 259,45;   30,998;    6,869;   42,951;66,87407
 260,05;   59,046;   46,667;   85,818;31,61831
 260,65;   60,781;   45,066;   83,561;40,82177
 261,25;   63,512;   29,371;   85,943;60,34923
 261,85;   35,195;   -0,129;   47,622;73,97471
 262,45;   68,020;   46,169;  109,270;34,62894
 263,04;   82,586;   53,073;  116,295;46,68186
 263,64;   61,429;   33,767;   77,097;63,83959
 264,24;   73,334;   37,671;   89,062;69,39433
 264,84;  101,573;   58,974;  138,671;53,45166
 265,44;   50,550;   26,368;   67,716;58,48595
 266,04;   57,876;   48,865;   71,464;39,87271
 266,64;   60,902;   39,866;   86,780;44,83949
 267,24;   54,702;   40,166;   68,980;50,44771
 267,84;   56,316;   24,668;   76,573;60,97269
 268,43;   78,172;   48,368;   95,935;62,65788
 269,03;   77,138;   46,969;   87,892;73,72133
 269,63;   75,920;   58,566;   92,402;51,28783
 270,23;   27,454;   10,765;   39,045;59,01438
 270,83;   75,781;   55,266;   83,161;73,54117
 271,43;   39,489;   23,967;   58,856;44,49014
 272,03;   82,250;   64,168;   99,116;51,74194
 272,62;   57,581;   23,269;   68,730;75,47672
 273,22;   44,507;   11,970;   61,046;66,30008
 273,82;   25,162;   17,460;   26,403;86,12027
 274,42;   30,784;   25,164;   46,890;25,86972
 275,02;   31,889;   34,864;   60,388;-11,65807
 275,62;   81,443;   31,972;  100,457;72,23535
 276,21;   54,825;   22,770;   69,267;68,93886
 276,81;   51,324;   46,767;   71,099;18,72982
 277,41;   61,916;   22,971;   96,341;53,08065
 278,01;   32,389;   21,364;   42,788;51,45970
 278,61;   77,759;   38,869;   83,811;86,53548
 279,20;   85,365;   65,473;  119,076;37,10912
 279,80;  -11,990;    6,762;   11,539;-392,54036
 280,40;   57,459;   36,866;   79,742;48,02842
 281,00;   16,459;   -4,331;   33,311;55,23259
 281,60;   54,213;   20,774;   74,812;61,88019
 282,20;   60,064;   36,670;   70,108;69,96226
 282,79;   48,372;   29,568;   70,135;46,35402
 283,39;   24,920;   17,466;   44,702;27,36705
 283,99;   21,150;   23,165;   34,347;-18,01682
 284,59;   35,842;   16,869;   45,289;66,75911
 285,19;   26,885;   27,067;   57,759;-0,59232
 285,78;   42,064;   23,270;   63,808;46,36161
 286,38;   42,011;   39,665;   59,207;12,00471
 286,98;   52,072;   35,168;   73,535;44,05982
 287,58;   32,373;    4,771;   61,403;48,73907
 288,17;   46,925;    8,973;   80,336;53,18247
 288,77;   63,126;   19,976;   92,504;59,49435
 289,37;   30,120;   11,269;   57,670;40,62673
 289,97;   61,550;   48,965;   66,647;71,17198
 290,57;   70,138;   46,672;   93,260;50,37011
 291,16;   86,750;   63,868;  102,616;59,05536
 291,76;   35,507;    5,570;   47,346;71,66181
 292,36;   56,468;   34,367;   58,137;92,97657
 292,96;   37,504;   -3,127;   60,117;64,24468
 293,55;   53,224;   24,267;   65,399;70,40033
 294,15;   43,725;   26,870;   62,567;47,21591
 294,75;   48,411;   42,065;   66,207;26,28587
 295,35;   32,050;   21,068;   52,016;35,48784
 295,94;   59,663;   42,967;   66,740;70,23324
 296,54;   36,555;   30,768;   70,613;14,52286
 297,14;   55,656;   29,971;   76,881;54,75201
 297,73;   17,793;   12,165;   40,085;20,15839
 298,33;   49,498;   28,066;   57,583;72,60923
 298,93;   51,394;   41,968;   82,554;23,22469
 299,53;   62,860;   24,872;   69,079;85,93247
 300,12;   21,356;  -12,229;   59,481;46,83332
 300,72;   70,129;   41,567;   91,197;57,54917
 301,32;   72,351;   25,771;   99,584;63,10570
 301,92;   18,045;    3,664;   33,050;48,93955
 302,51;   36,907;   11,567;   49,978;65,97066
 303,11;   27,785;   14,667;   48,759;38,47896
 303,71;   51,877;   21,369;   82,132;50,20798
 304,30;   23,737;    5,466;   38,423;55,43876
 304,90;   33,698;   19,666;   44,283;57,00156
 305,50;   32,254;   18,565;   64,345;29,90204
 306,09;   47,659;   15,466;   49,042;95,87943
 306,69;   66,834;   34,171;   90,262;58,23122
 307,29;   19,301;   18,760;   33,144; 3,75969
 307,88;   75,442;   43,269;   72,489;110,10634
 308,48;   28,386;    0,070;   49,727;57,02261
 309,08;    1,758;   -4,437;   11,774;38,21612
 309,68;   42,493;   22,365;   39,585;116,88721
 310,27;   33,981;   20,169;   49,830;46,56713
 310,87;   41,855;   23,468;   54,813;58,65917
 311,47;   68,546;   54,967;   92,918;35,78002
 312,06;   50,132;   47,865;   68,426;11,02823
 312,66;   65,050;   51,168;  100,016;28,42036
 313,26;   77,190;   48,571;   96,224;60,05722
 313,85;   58,885;   38,267;   65,959;74,45575
 314,45;   62,459;   42,969;   86,611;44,66021
 315,04;   69,432;   52,165;   81,826;58,21641
 315,64;   45,929;   21,267;   47,897;92,60944
 316,24;   58,786;   40,770;   85,627;40,16259
 316,83;   56,859;   40,366;   76,742;45,33944
 317,43;   45,989;   35,167;   68,156;32,80526
 318,03;   46,602;   39,063;   70,012;24,35760
 318,62;   83,588;   73,061;   94,820;48,38106
 319,22;   48,116;    7,668;   66,973;68,20324
 319,82;   64,250;   40,768;   93,516;44,51880
 320,41;   87,877;   59,069;   98,732;72,63129
 321,01;  104,254;   80,465;  115,945;67,04988
 321,60;   84,484;   81,164;  102,790;15,35434
 322,20;  106,147;   67,673;  132,855;59,02598
 322,80;   78,029;   54,567;   91,797;63,01824
 323,39;   71,528;   65,764;   94,828;19,83094
 323,99;   87,881;   61,766;  102,661;63,85699
 324,59;   76,002;   73,063;   97,512;12,01840
 325,18;   74,607;   40,967;   92,178;65,68900
 325,78;   95,893;   76,365;  108,885;60,04957
 326,37;   93,611;   74,868;  108,075;56,44392
 326,97;   90,929;   63,267;  111,497;57,35362
 327,57;   50,680;   42,263;   76,493;24,58906
 328,16;   68,123;   60,864;   93,631;22,15581
 328,76;   81,263;   50,467;  110,140;51,60891
 329,35;  114,251;   56,871;  137,484;71,17982
 329,95;   72,264;   27,470;   91,308;70,16820
 330,54;   80,046;   52,167;   94,018;66,61441
 331,14;   70,924;   26,967;   82,599;79,01392
 331,74;   80,454;   54,165;   96,145;62,62333
 332,33;   79,886;   35,370;  108,127;61,18410
 332,93;   64,345;   43,764;   79,250;57,99858
 333,52;   81,420;   42,466;   93,102;76,92909
 334,12;  107,238;   72,069;  140,392;51,47455
 334,71;   69,559;   50,666;   87,942;50,68317
 335,31;   95,185;   63,267;  119,859;56,40067
 335,90;   50,914;   32,362;   53,836;86,39488
 336,50;   44,811;   30,665;   77,207;30,39389
 337,10;   94,781;   38,769;  121,530;67,67972
 337,69;   77,811;   51,765;   93,707;62,09972
 338,29;   61,768;   30,467;  101,037;44,35385
 338,88;   60,094;   22,468;   99,854;48,62134
 339,48;   86,054;   57,862;  111,677;52,38646
 340,07;   83,941;   48,566;  107,321;60,20845
 340,67;   84,251;   31,171;  124,784;56,70177
 341,26;   73,359;   48,466;   98,942;49,31583
 341,86;  111,903;   61,469;  138,348;65,60109
 342,45;   96,642;   45,669;  142,689;52,53854
 343,05;   86,742;   27,269;  115,689;67,26187
 343,64;   80,802;   47,366;  122,480;44,51366
 344,24;   64,711;   28,765;   92,107;56,74888
 344,83;   83,550;   71,365;  121,747;24,18525
 345,43;   60,563;   29,667;  114,240;36,53248
 346,02;   83,598;   41,469;  124,351;50,83075
 346,62;   97,890;   40,971;  140,424;57,23215
 347,21;   81,893;   42,165;  131,985;44,23086
 347,81;   87,338;   26,172;  140,560;53,47276
 348,40;   62,323;   29,064;  100,731;46,40869
 349,00;   82,802;   49,163;  137,712;37,98855
 349,59;  120,907;   65,870;  177,846;49,15107
 350,19;   75,390;   32,571;  139,424;40,07304
 350,78;   83,585;   55,467;  140,759;32,96703
 351,38;   70,298;   15,869;  140,951;43,51510
 351,97;   66,863;   26,767;  136,040;36,69398
 352,57;   84,186;   42,570;  155,827;36,74452
 353,16;   65,628;   30,564;  134,328;33,79173
 353,76;   99,307;   38,770;  169,846;46,18495
 354,35;   83,203;   27,669;  160,148;41,91870
 354,95;   94,025;   43,970;  182,067;36,24608
 355,54;   94,916;   38,368;  163,973;45,02030
 356,14;   90,803;   40,069;  164,749;40,69127
 356,73;   80,554;   29,162;  145,176;44,29749
 357,32;   84,377;   13,769;  164,432;46,86479
 357,92;   96,299;   17,772;  181,419;47,98562
 358,51;  125,460;   43,372;  214,179;48,05897
 359,11;  112,038;   36,772;  212,360;42,86536
 359,70;   92,629;   28,470;  189,965;39,72818
 360,30;  111,010;   54,562;  188,039;42,29075
 360,89;   94,594;   31,168;  188,054;40,42812
 361,48;  136,925;   55,570;  216,467;50,56318
 362,08;   97,389;   19,867;  187,156;46,34027
 362,67;  113,180;   39,763;  192,693;48,00684
 363,27;  128,607;   60,767;  247,678;36,29528
 363,86;  127,254;   35,765;  215,745;50,83300
 364,46;  145,523;   44,664;  257,231;47,44843
 365,05;  160,431;   64,659;  254,989;50,31898
 365,64;  162,557;   50,960;  269,706;51,01704
 366,24;  170,366;   38,558;  309,432;48,66012
 366,83;  207,287;   43,255;  335,383;56,15067
 367,43;  210,337;   51,545;  352,843;52,70268
 368,02;  235,368;   34,646;  399,757;54,97553
 368,61;  283,857;   62,239;  475,425;53,63646
 369,21;  269,027;   32,419;  445,299;57,30672
 369,80;  314,642;   43,007;  526,947;56,12985
 370,39;  354,755;   62,006;  604,971;53,91666
 370,99;  381,821;   42,089;  615,416;59,25619
 371,58;  377,800;   22,974;  630,953;58,36158
 372,18;  443,468;   37,166;  701,603;61,14985
 372,77;  415,378;   42,449;  679,385;58,55034
 373,36;  459,599;   42,747;  690,836;64,32015
 373,96;  433,644;   35,135;  639,498;65,93866
 374,55;  433,342;   29,844;  621,406;68,20889
 375,14;  410,417;   42,849;  573,826;69,22479
 375,74;  402,149;   69,157;  543,276;70,23374
 376,33;  343,837;   45,964;  464,589;71,15516
 376,92;  326,988;   33,278;  447,997;70,82138
 377,52;  403,619;   86,103;  548,460;68,67339
 378,11;  342,754;   46,703;  457,203;72,11962
 378,71;  393,112;   73,011;  514,270;72,54272
 379,30;  409,931;   59,517;  553,928;70,87502
 379,89;  408,265;   59,813;  556,103;70,21136
 380,49;  431,696;   31,018;  568,185;74,59102
 381,08;  449,176;   70,306;  570,990;75,67052
 381,67;  477,390;   55,008;  555,483;84,39625
 382,26;  434,276;   41,706;  539,390;78,87941
 382,86;  452,298;   54,003;  516,041;86,20384
 383,45;  484,460;   50,412;  562,105;84,82587
 384,04;  467,939;   38,712;  553,886;83,31676
 384,64;  475,330;   49,014;  566,760;82,34086
 385,23;  497,998;   64,406;  560,509;87,39957
 385,82;  522,461;   59,615;  592,774;86,81205
 386,42;  579,198;   61,024;  659,022;86,65146
 387,01;  549,008;   55,414;  580,541;93,99530
 387,60;  564,555;   69,009;  590,140;95,09061
 388,20;  566,260;   37,712;  590,805;95,56223
 388,79;  629,779;   72,418;  665,563;93,96700
 389,38;  580,576;   32,106;  564,890;102,94417
 389,97;  616,139;   45,415;  640,955;95,83312
 390,57;  637,913;   71,114;  654,038;97,23372
 391,16;  669,213;   62,514;  655,838;102,25421
 391,75;  659,126;   52,713;  638,562;103,51003
 392,34;  693,736;   60,821;  696,694;99,53485
 392,94;  712,101;   44,718;  689,683;103,47589
 393,53;  709,105;   41,016;  666,612;106,79241
 394,12;  764,171;   53,023;  719,105;106,76586
 394,72;  771,587;   54,213;  706,122;110,04203
 395,31;  769,861;   42,115;  694,874;111,48778
 395,90;  812,559;   42,924;  732,881;111,54817
 396,49;  856,203;   58,028;  779,187;110,67939
 397,09;  839,392;   47,417;  749,188;112,85382
 397,68;  886,102;   44,025;  800,719;111,28369
 398,27;  902,255;   54,626;  809,652;112,26485
 398,86;  917,846;   43,125;  807,657;114,41257
 399,45;  968,782;   56,630;  844,037;115,84252
 400,05;  927,749;   23,820;  799,518;116,53104
 400,64;  986,323;   56,419;  831,001;120,05224
 401,23; 1001,893;   53,920;  859,956;117,60923
 401,82; 1033,693;   67,220;  868,256;120,65283
 402,42; 1042,597;   62,921;  873,953;120,79370
 403,01; 1095,602;   81,525;  912,919;121,97310
 403,60; 1110,269;   68,532;  940,513;119,46788
 404,19; 1121,280;   76,024;  931,900;122,12707
 404,78; 1095,484;   57,522;  909,929;121,76835
 405,38; 1167,173;   68,332;  984,210;119,97682
 405,97; 1156,933;   63,226;  953,933;122,79088
 406,56; 1215,485;   71,528; 1004,366;122,63199
 407,15; 1198,673;   68,829;  989,442;122,72736
 407,74; 1232,099;   80,730; 1026,758;121,70556
 408,34; 1246,995;   50,933; 1018,629;123,59894
 408,93; 1254,486;   59,531; 1016,234;124,90345
 409,52; 1280,452;   51,435; 1041,359;124,15263
 410,11; 1301,908;   84,931; 1090,453;121,02937
 410,70; 1292,537;   54,727; 1027,230;127,28083
 411,29; 1306,264;   58,628; 1030,847;128,32867
 411,89; 1359,135;   60,535; 1093,938;125,66253
 412,48; 1345,525;   48,228; 1051,606;129,29286
 413,07; 1377,221;   65,033; 1101,446;126,60871
 413,66; 1410,413;   78,135; 1102,119;130,10733
 414,25; 1443,727;   63,337; 1142,311;127,93537
 414,84; 1413,486;   69,431; 1102,434;130,11143
 415,44; 1446,677;   91,530; 1155,939;127,31448
 416,03; 1478,183;   76,637; 1161,173;129,22998
 416,62; 1484,614;   76,138; 1168,687;128,91647
 417,21; 1472,626;   75,334; 1158,843;128,95989
 417,80; 1502,887;   65,037; 1162,871;130,97161
 418,39; 1488,344;   78,440; 1179,201;128,08451
 418,98; 1453,082;   55,634; 1143,405;128,46897
 419,58; 1472,639;   64,033; 1142,067;130,66432
 420,17; 1474,130;   52,735; 1164,540;127,84570
 420,76; 1524,283;   72,537; 1192,873;129,58127
 421,35; 1477,896;   60,236; 1155,197;129,47121
 421,94; 1524,245;   88,340; 1223,501;126,49345
 422,53; 1499,166;   61,540; 1195,320;126,79941
 423,12; 1496,996;   64,039; 1190,766;127,17880
 423,71; 1481,735;   60,835; 1162,138;129,01992
 424,30; 1503,800;   85,236; 1210,695;126,04320
 424,90; 1476,231;   39,438; 1163,809;127,78643
 425,49; 1529,984;   70,140; 1216,242;127,37471
 426,08; 1514,484;   80,240; 1209,641;126,99147
 426,67; 1487,657;   57,436; 1168,257;128,75348
 427,26; 1519,963;   60,343; 1230,391;124,74869
 427,85; 1495,792;   63,238; 1209,968;124,92512
 428,44; 1496,758;   68,442; 1218,093;124,23905
 429,03; 1523,714;   85,341; 1233,155;125,31411
 429,62; 1526,053;   78,941; 1240,296;124,60554
 430,21; 1546,189;   81,443; 1277,807;122,43310
 430,80; 1495,780;   70,445; 1235,381;122,35315
 431,39; 1502,711;   53,344; 1246,926;121,42996
 431,99; 1475,635;   78,535; 1206,838;123,82315
 432,58; 1503,296;   82,639; 1251,166;121,57680
 433,17; 1484,513;   69,735; 1238,319;121,06774
 433,76; 1542,233;   71,347; 1288,314;120,86495
 434,35; 1554,759;   88,245; 1292,462;121,78154
 434,94; 1552,825;   70,849; 1318,887;118,74444
 435,53; 1528,445;   78,643; 1278,669;120,81419
 436,12; 1545,950;   70,044; 1294,267;120,55858
 436,71; 1565,888;   87,740; 1303,239;121,60835
 437,30; 1560,032;   76,941; 1299,177;121,34242
 437,89; 1589,398;   76,245; 1320,802;121,58162
 438,48; 1601,602;   65,942; 1305,731;123,86457
 439,07; 1633,975;   95,238; 1347,147;122,91126
 439,66; 1690,737;   83,648; 1375,711;124,38166
 440,25; 1678,350;   85,844; 1390,567;122,05700
 440,84; 1737,629;   79,850; 1387,984;126,72850
 441,43; 1760,682;   78,054; 1440,985;123,45657
 442,02; 1769,273;   79,650; 1411,022;126,90835
 442,61; 1797,311;   93,344; 1397,226;130,68407
 443,20; 1860,368;   94,249; 1446,625;130,59383
 443,79; 1844,168;   74,546; 1412,957;132,21815
 444,38; 1906,220;   84,248; 1461,789;132,26261
 444,97; 1947,663;   84,146; 1466,359;134,82125
 445,56; 2004,646;  101,846; 1477,038;138,36616
 446,15; 2015,499;   81,651; 1522,539;134,21225
 446,74; 1994,471;   58,644; 1462,286;137,91463
 447,33; 2101,268;   82,646; 1538,357;138,66917
 447,92; 2134,177;   78,151; 1570,720;137,75085
 448,51; 2170,124;   89,746; 1586,019;139,03735
 449,10; 2209,641;   92,045; 1608,840;139,60991
 449,69; 2265,995;   73,950; 1627,741;141,07716
 450,28; 2325,577;   66,948; 1608,251;146,54016
 450,87; 2340,855;   78,647; 1656,333;143,38776
 451,46; 2401,442;   96,048; 1702,208;143,53448
 452,05; 2435,829;   70,950; 1715,384;143,81108
 452,64; 2488,634;   70,850; 1725,182;146,14864
 453,23; 2567,503;  113,752; 1794,936;145,95375
 453,82; 2567,616;   83,451; 1800,660;144,66293
 454,40; 2588,534;   65,450; 1786,682;146,58593
 454,99; 2710,973;  101,253; 1871,891;147,38874
 455,58; 2679,211;   69,747; 1832,095;148,06750
 456,17; 2778,008;   63,852; 1873,634;149,97147
 456,76; 2817,277;   67,751; 1918,820;148,53722
 457,35; 2841,820;   78,348; 1930,490;149,20416
 457,94; 2900,817;   66,954; 1978,929;148,21655
 458,53; 2933,156;   67,350; 2010,101;147,51278
 459,12; 3009,339;   82,657; 2111,116;144,28107
 459,71; 2989,398;   58,148; 2060,071;146,42177
 460,30; 3035,438;   84,448; 2087,511;147,32384
 460,89; 3078,677;   57,551; 2129,920;145,78131
 461,48; 3120,417;   75,954; 2173,829;145,12130
 462,06; 3153,051;   68,050; 2187,303;145,57017
 462,65; 3140,564;   48,249; 2176,527;145,29653
 463,24; 3202,791;   87,456; 2288,680;141,52738
 463,83; 3233,751;   54,450; 2229,803;146,15100
 464,42; 3277,125;   88,349; 2333,687;142,01762
 465,01; 3278,834;   73,050; 2336,482;141,63376
 465,60; 3316,873;   64,050; 2384,322;140,19143
 466,19; 3357,217;   73,354; 2462,829;137,43033
 466,77; 3332,099;   81,551; 2462,939;136,49806
 467,36; 3385,979;   69,457; 2459,256;138,77824
 467,95; 3383,660;   79,551; 2466,098;138,44724
 468,54; 3407,361;   71,954; 2513,866;136,58994
 469,13; 3420,543;   69,452; 2535,977;135,86284
 469,72; 3459,026;   67,555; 2582,723;134,84071
 470,31; 3493,748;   87,855; 2629,242;134,01707
 470,90; 3480,990;   76,750; 2652,044;132,18840
 471,48; 3519,000;   32,057; 2671,875;132,09028
 472,07; 3588,472;  125,747; 2686,454;135,22535
 472,66; 3643,391;   67,853; 2748,412;133,38775
 473,25; 3631,299;   68,351; 2723,339;134,19828
 473,84; 3667,043;   55,955; 2766,545;133,22148
 474,43; 3746,192;   55,459; 2843,049;132,39871
 475,01; 3798,622;   69,254; 2885,926;132,40333
 475,60; 3809,565;   49,755; 2882,364;132,73311
 476,19; 3889,766;   74,158; 2956,932;132,35887
 476,78; 3970,579;   71,057; 2964,456;134,77302
 477,37; 4020,665;   59,355; 2945,364;137,25910
 477,95; 4105,270;   75,656; 3018,661;136,92171
 478,54; 4101,573;   63,253; 3023,691;136,40957
 479,13; 4170,474;   56,253; 3070,291;136,50197
 479,72; 4220,239;   81,154; 3090,147;137,55712
 480,31; 4315,314;   63,459; 3167,468;136,97948
 480,89; 4294,722;   60,254; 3171,026;136,12273
 481,48; 4399,340;   46,260; 3214,084;137,41546
 482,07; 4420,261;   61,654; 3233,866;137,39959
 482,66; 4450,034;   52,853; 3253,650;137,37769
 483,25; 4550,040;   78,960; 3319,884;137,95695
 483,83; 4579,282;   59,954; 3325,385;138,39912
 484,42; 4603,417;   54,354; 3355,129;137,81804
 485,01; 4648,744;   65,958; 3400,413;137,43732
 485,60; 4760,584;   73,764; 3490,590;137,16882
 486,18; 4705,370;   66,956; 3490,761;135,47538
 486,77; 4733,403;   67,252; 3519,736;135,15344
 487,36; 4812,645;   58,464; 3561,750;135,70633
 487,95; 4848,445;   59,161; 3640,781;133,71835
 488,53; 4818,583;   54,461; 3642,522;132,77707
 489,12; 4843,341;   50,563; 3722,252;130,53331
 489,71; 4808,532;   38,062; 3680,357;130,97427
 490,30; 4848,162;   61,460; 3742,503;130,03657
 490,88; 4906,905;   87,561; 3859,141;127,78051
 491,47; 4892,501;   60,663; 3867,512;126,92488
 492,06; 4834,697;   62,563; 3920,615;123,69286
 492,65; 4881,327;   59,161; 3947,060;124,03013
 493,23; 4845,679;   54,860; 3982,825;121,96696
 493,82; 4851,413;   65,853; 4018,031;121,08664
 494,41; 4820,449;   51,361; 4066,179;118,78716
 494,99; 4827,043;   73,655; 4126,945;117,27235
 495,58; 4862,462;   86,060; 4224,403;115,41821
 496,17; 4805,892;   56,356; 4198,681;114,65870
 496,76; 4788,970;   65,356; 4276,761;112,16241
 497,34; 4761,261;   54,557; 4305,235;110,72832
 497,93; 4739,200;   66,057; 4350,675;109,06790
 498,52; 4757,536;   60,059; 4454,387;106,89864
 499,10; 4735,493;   75,862; 4533,217;104,53803
 499,69; 4681,958;   55,360; 4537,006;103,23434
 500,28; 4625,714;   37,959; 4592,068;100,73881
 500,86; 4701,310;   62,862; 4698,539;100,05979
 501,45; 4594,910;   53,462; 4730,438;97,10222
 502,04; 4642,532;   53,362; 4813,958;96,39907
 502,62; 4667,991;   70,956; 4856,181;96,06728
 503,21; 4602,413;   57,856; 4939,699;93,09101
 503,80; 4662,054;   69,662; 5015,577;92,85222
 504,38; 4656,779;   58,460; 5081,425;91,54592
 504,97; 4643,554;   49,962; 5122,776;90,55312
 505,56; 4674,031;   70,859; 5194,989;89,83324
 506,14; 4720,406;   64,064; 5263,709;89,55115
 506,73; 4659,911;   23,565; 5292,507;87,99387
 507,32; 4732,454;   62,865; 5376,045;87,88690
 507,90; 4753,540;   70,860; 5443,284;87,16140
 508,49; 4785,972;   58,865; 5500,366;86,87137
 509,08; 4842,124;   67,264; 5571,931;86,74202
 509,66; 4894,901;   69,960; 5677,644;86,04160
 510,25; 4943,767;   63,561; 5737,400;86,01240
 510,83; 4977,911;   45,165; 5855,607;84,89450
 511,42; 5056,455;   61,968; 5895,913;85,61080
 512,01; 5149,328;   59,164; 5980,328;85,96560
 512,59; 5204,454;   46,562; 6041,676;86,03492
 513,18; 5258,449;   59,961; 6114,379;85,86272
 513,77; 5316,818;   42,257; 6171,797;86,05150
 514,35; 5352,736;   37,763; 6190,255;86,38733
 514,94; 5485,393;   58,662; 6323,517;86,62181
 515,52; 5548,659;   48,166; 6358,342;87,16861
 516,11; 5629,550;   80,665; 6474,047;86,79107
 516,69; 5620,375;   41,959; 6446,727;87,09785
 517,28; 5734,605;   83,358; 6541,973;87,49937
 517,87; 5771,983;   45,558; 6604,054;87,31309
 518,45; 5808,126;   74,858; 6626,192;87,51299
 519,04; 5803,810;   54,258; 6707,970;86,41118
 519,62; 5931,697;   55,863; 6774,114;87,46077
 520,21; 5975,120;   24,466; 6828,002;87,46413
 520,79; 6073,111;   52,068; 7000,875;86,64859
 521,38; 6101,723;   52,960; 6995,363;87,12780
 521,97; 6242,994;   43,068; 7141,554;87,34153
 522,55; 6270,570;   67,759; 7195,230;87,02682
 523,14; 6350,231;   26,759; 7180,289;88,39652
 523,72; 6456,284;   77,561; 7383,422;87,30967
 524,31; 6510,111;   71,665; 7406,107;87,78372
 524,89; 6672,650;   48,468; 7526,815;88,57816
 525,48; 6737,702;   21,666; 7603,580;88,57969
 526,06; 6827,928;   56,264; 7633,128;89,37290
 526,65; 6916,468;   72,370; 7803,105;88,53101
 527,23; 6969,275;   46,262; 7840,596;88,82111
 527,82; 7119,607;   37,967; 7905,978;90,00547
 528,41; 7202,241;   67,366; 8041,021;89,48062
 528,99; 7299,771;   66,365; 8108,167;89,94759
 529,58; 7378,915;   42,562; 8168,736;90,28053
 530,16; 7489,549;   49,461; 8315,379;90,00922
 530,75; 7677,767;   73,964; 8417,069;91,13876
 531,33; 7694,702;   45,566; 8440,980;91,11088
 531,92; 7838,501;   48,560; 8567,344;91,44429
 532,50; 8000,925;   87,770; 8706,468;91,81381
 533,09; 8045,115;   65,665; 8807,204;91,28198
 533,67; 8190,448;   63,458; 8952,011;91,43210
 534,26; 8277,818;   65,760; 9007,665;91,83791
 534,84; 8405,327;   68,461; 9127,061;92,03262
 535,42; 8476,967;   61,564; 9205,969;92,02789
 536,01; 8667,997;   79,263; 9330,215;92,84163
 536,59; 8749,920;   43,366; 9482,202;92,24182
 537,18; 8805,157;   77,360; 9568,605;91,95629
 537,76; 8946,377;   56,972; 9764,700;91,57039
 538,35; 9040,133;   59,368; 9892,694;91,32988
 538,93; 9134,428;   72,664; 9941,828;91,81896
 539,52; 9253,769;   57,370;10111,405;91,46973
 540,10; 9410,281;   63,269;10309,029;91,22810
 540,69; 9468,463;   68,763;10444,071;90,59682
 541,27; 9690,192;   58,262;10514,917;92,11292
 541,85; 9733,498;   47,366;10658,783;91,28029
 542,44; 9806,240;   56,460;10765,484;91,04266
 543,02; 9944,182;   80,369;10952,729;90,72375
 543,61;10090,346;   77,067;11102,218;90,82215
 544,19;10148,537;   55,066;11264,023;90,04826
 544,78;10249,780;   62,766;11296,562;90,68186
 545,36;10446,359;   77,469;11521,011;90,60910
 545,94;10447,067;   54,564;11563,069;90,30281
 546,53;10521,455;   52,771;11724,882;89,68972
 547,11;10711,716;   90,668;11879,873;90,09130
 547,70;10683,058;   75,860;11954,706;89,29485
 548,28;10800,771;   47,965;12093,066;89,27120
 548,86;11003,371;   81,365;12327,767;89,18543
 549,45;11144,394;   33,768;12364,953;90,10185
 550,03;11144,768;   76,467;12507,537;89,03739
 550,62;11290,858;   63,566;12662,842;89,11062
 551,20;11458,146;   61,467;12808,418;89,40709
 551,78;11437,846;   61,164;12952,850;88,24821
 552,37;11632,367;   55,864;13112,469;88,66396
 552,95;11730,950;   56,765;13214,547;88,72457
 553,54;11822,211;   49,965;13393,207;88,22628
 554,12;11899,028;   67,167;13498,797;88,08954
 554,70;12086,516;   67,568;13736,973;87,92590
 555,29;12188,693;   61,965;13856,285;87,91103
 555,87;12185,746;   60,170;13987,786;87,06139
 556,45;12318,432;   57,162;14154,058;86,97851
 557,04;12477,524;   43,667;14376,600;86,75027
 557,62;12542,124;   68,867;14525,499;86,28052
 558,20;12705,616;   42,671;14799,940;85,80819
 558,79;12794,611;  100,368;14905,875;85,74001
 559,37;12885,346;   49,867;15000,418;85,85288
 559,95;12978,838;   46,669;15169,691;85,51312
 560,54;13089,055;   71,768;15324,613;85,34333
 561,12;13225,980;   50,866;15485,562;85,36038
 561,70;13353,799;   50,369;15679,551;85,11917
 562,29;13417,433;   61,768;15810,994;84,80204
 562,87;13618,094;   73,168;16023,953;84,91698
 563,45;13706,794;   71,068;16194,754;84,56953
 564,04;13784,676;   54,362;16227,195;84,89739
 564,62;13862,977;   37,769;16438,332;84,29715
 565,20;14056,110;   59,962;16715,838;84,03130
 565,78;14223,832;   70,765;16797,326;84,61433
 566,37;14273,298;   71,066;17011,283;83,83737
 566,95;14469,682;   52,969;17124,330;84,44970
 567,53;14604,932;   67,262;17308,857;84,31743
 568,12;14598,371;   62,265;17367,766;83,99703
 568,70;14880,589;   85,264;17565,889;84,63842
 569,28;15089,799;   61,069;17745,252;84,98402
 569,86;14971,885;   67,767;17910,758;83,52926
 570,45;15235,042;   78,569;18124,689;83,98743
 571,03;15252,871;   53,962;18259,898;83,48326
 571,61;15449,290;   46,571;18424,824;83,80948
 572,19;15509,658;   54,263;18395,773;84,26457
 572,78;15669,312;   70,668;18668,975;83,87131
 573,36;15782,367;   84,264;18797,668;83,88695
 573,94;15912,846;   44,064;18892,750;84,19039
 574,52;15965,813;   54,559;19030,768;83,84844
 575,11;16056,823;   37,264;19159,830;83,77306
 575,69;16178,603;   53,566;19268,680;83,91851
 576,27;16222,145;   47,161;19391,381;83,61662
 576,85;16437,768;   43,264;19549,668;84,04678
 577,44;16487,631;   30,262;19814,158;83,18568
 578,02;16554,135;   32,159;19753,887;83,77550
 578,60;16597,184;   50,464;20073,791;82,63721
 579,18;16778,541;   51,963;20160,752;83,18043
 579,76;16807,928;   40,264;20300,129;82,76296
 580,35;16909,363;   60,170;20436,707;82,68919
 580,93;17072,189;   59,667;20641,557;82,65773
 581,51;17056,424;   24,770;20697,168;82,38838
 582,09;17085,336;   58,663;20755,756;82,26601
 582,67;17226,045;   49,567;20971,318;82,09866
 583,26;17349,055;   28,568;21227,014;81,70640
 583,84;17486,406;   14,164;21413,709;81,64773
 584,42;17494,789;   48,064;21513,287;81,27903
 585,00;17639,203;   81,366;21772,180;80,94596
 585,58;17767,625;   25,167;21912,299;81,06342
 586,17;17737,783;   46,761;21948,521;80,77443
 586,75;17768,520;    6,666;22026,902;80,66150
 587,33;17910,307;   47,767;22191,678;80,66570
 587,91;17885,719;   74,866;22390,201;79,81441
 588,49;17944,531;   63,962;22349,758;80,23303
 589,07;17958,150;   45,468;22403,215;80,11846
 589,65;17884,363;   28,267;22444,439;79,65720
 590,24;17936,971;   42,562;22447,799;79,86708
 590,82;17864,428;   28,261;22484,160;79,42753
 591,40;17797,105;   41,464;22520,209;78,98858
 591,98;17740,875;   45,759;22558,227;78,60141
 592,56;17871,027;   61,161;22699,961;78,66966
 593,14;17777,475;   43,359;22728,928;78,17355
 593,72;17786,311;   29,765;22889,107;77,67741
 594,30;17699,236;   36,759;22797,486;77,60067
 594,89;17730,229;   41,364;22862,428;77,51113
 595,47;17739,084;   38,961;22922,623;77,34830
 596,05;17749,424;   30,267;23003,799;77,12857
 596,63;17798,725;   31,167;23056,199;77,16627
 597,21;17873,658;   36,766;23145,441;77,18700
 597,79;17761,863;   35,467;23166,039;76,63622
 598,37;17774,803;   36,669;23222,748;76,50338
 598,95;17813,520;   50,766;23305,301;76,38404
 599,53;17752,318;   46,757;23207,996;76,44479
 600,11;17865,850;   48,665;23341,947;76,49066
 600,70;17690,502;   57,363;23315,111;75,81619
 601,28;17652,406;   38,564;23424,809;75,31710
 601,86;17564,219;   61,766;23355,102;75,13931
 602,44;17464,428;   23,661;23449,660;74,45047
 603,02;17376,230;   38,656;23576,521;73,65823
 603,60;17365,766;   54,858;23663,232;73,32528
 604,18;17091,920;   69,263;23594,734;72,35841
 604,76;16872,836;   59,263;23642,154;71,29564
 605,34;16569,775;   27,565;23530,764;70,38280
 605,92;16402,789;   59,561;23453,719;69,86030
 606,50;16146,671;   17,662;23498,998;68,68863
 607,08;15848,002;   31,666;23394,881;67,69760
 607,66;15792,659;   39,266;23561,643;66,97195
 608,24;15583,585;   46,067;23522,059;66,18471
 608,82;15578,623;   26,164;23532,031;66,16416
 609,40;15494,941;   46,466;23471,021;65,94992
 609,98;15518,228;   18,864;23505,928;65,99106
 610,56;15491,223;   43,861;23497,662;65,86294
 611,14;15513,193;   30,765;23481,086;66,02224
 611,72;15605,871;   42,665;23572,467;66,14253
 612,30;15696,476;   24,962;23468,496;66,84791
 612,88;15829,370;   60,659;23517,730;67,22370
 613,46;15827,671;   21,862;23505,697;67,30506
 614,04;15888,916;   30,068;23461,873;67,68086
 614,62;15930,145;   41,561;23489,982;67,75972
 615,20;15851,051;   52,768;23402,416;67,65962
 615,78;15837,081;   25,569;23463,430;67,46141
 616,36;15825,846;   41,364;23400,150;67,57407
 616,94;15724,259;    7,666;23272,242;67,55590
 617,52;15671,789;   24,067;23373,656;67,01498
 618,10;15614,653;   63,559;23336,107;66,82162
 618,68;15492,298;   17,966;23253,184;66,59861
 619,26;15320,672;   39,268;23398,834;65,41818
 619,84;15124,019;   18,963;23277,133;64,94516
 620,42;15052,211;   31,165;23313,506;64,51691
 621,00;14907,610;   28,865;23209,607;64,18580
 621,58;14746,657;   38,760;23216,406;63,45725
 622,16;14725,930;   49,270;23335,164;63,02811
 622,74;14633,559;   47,066;23327,742;62,65494
 623,32;14507,837;   42,166;23291,223;62,22046
 623,90;14308,751;   66,971;23311,484;61,26943
 624,48;14289,271;   32,662;23196,598;61,54657
 625,05;14257,271;   34,562;23105,098;61,64880
 625,63;14136,971;   52,962;23188,799;60,87529
 626,21;14062,775;   38,262;23117,596;60,76654
 626,79;14074,946;   53,967;23219,719;60,52460
 627,37;13933,192;   28,162;23090,717;60,29267
 627,95;13874,851;   72,768;23200,215;59,67837
 628,53;13828,811;   49,365;23176,607;59,58101
 629,11;13709,292;   48,259;23043,449;59,40822
 629,69;13612,177;   53,369;23256,932;58,43416
 630,27;13488,119;   80,763;23105,434;58,23039
 630,84;13330,471;   43,862;23021,197;57,82485
 631,42;13272,590;   54,367;23319,656;56,81521
 632,00;13033,014;   45,459;23125,768;56,27115
 632,58;12923,662;   50,263;23105,172;55,83800
 633,16;12878,769;   49,870;23096,906;55,66398
 633,74;12694,889;   56,264;23018,488;55,04094
 634,32;12425,006;   45,661;23007,842;53,91189
 634,90;12595,607;   51,970;23195,746;54,19875
 635,47;12407,201;   38,860;23035,645;53,78291
 636,05;12324,605;   37,461;22989,342;53,53437
 636,63;12417,711;   45,965;23104,807;53,65294
 637,21;12421,428;   67,464;23150,529;53,51960
 637,79;12472,315;   71,465;23192,904;53,63356
 638,37;12323,987;   54,055;23070,883;53,30853
 638,94;12500,993;   33,265;23100,686;54,04908
 639,52;12506,693;   41,665;23195,285;53,83620
 640,10;12586,381;   64,264;23215,900;54,08739
 640,68;12572,475;   54,164;23175,334;54,14220
 641,26;12642,367;   35,864;23250,268;54,30466
 641,84;12620,061;   39,164;23235,002;54,23773
 642,41;12565,554;   28,264;23192,936;54,12246
 642,99;12558,447;   48,464;23145,568;54,16256
 643,57;12532,940;   22,064;23158,402;54,07457
 644,15;12450,834;   27,064;23178,035;53,66414
 644,73;12366,627;   37,564;23277,568;53,05104
 645,30;12278,521;   55,264;23230,303;52,74320
 645,88;12161,113;   44,964;23362,635;51,96123
 646,46;12064,007;   59,264;23447,568;51,32797
 647,04;11924,101;   51,864;23367,902;50,91876
 647,61;11787,993;   46,564;23396,336;50,28498
 648,19;11584,986;   61,664;23433,369;49,30458
 648,77;11554,479;   26,264;23442,002;49,23277
 649,35;11440,373;   51,064;23590,137;48,38470
 649,92;11401,666;   42,464;23596,070;48,22702
 650,50;11284,260;   30,064;23551,104;47,84736
 651,08;11224,854;   39,964;23450,537;47,77708
 651,66;11338,546;   21,864;23534,770;48,12966
 652,23;11324,739;   39,064;23561,004;47,97935
 652,81;11360,933;   36,464;23644,137;47,96944
 653,39;11501,326;   56,164;23647,170;48,51494
 653,97;11539,520;   37,065;23882,504;48,23755
 654,54;11629,612;   23,565;23823,137;48,76578
 655,12;11738,506;   30,965;23831,971;49,18927
 655,70;11806,399;   42,065;23962,805;49,18048
 656,28;11918,692;   32,765;23947,037;49,70223
 656,85;11899,786;   44,065;24051,070;49,38442
 657,43;11966,379;   -1,035;23831,305;50,21502
 658,01;12063,672;   21,465;24078,539;50,05682
 658,58;12109,266;   55,165;24234,371;49,85317
 659,16;12059,259;   51,965;24154,105;49,81837
 659,74;11991,353;   59,465;24338,039;49,14575
 660,32;11984,545;   71,665;24327,672;49,11311
 660,89;11899,139;   34,265;24347,305;48,80045
 661,47;11758,632;   51,665;24464,939;47,95328
 662,05;11771,525;   25,365;24587,373;47,82248
 662,62;11781,118;   59,665;24584,006;47,79518
 663,20;11809,111;   80,665;24740,139;47,56162
 663,78;11740,705;   47,965;24902,773;47,04418
 664,35;11783,198;   52,465;24921,006;47,17098
 664,93;11741,892;   64,465;25123,539;46,59959
 665,51;11745,585;   49,565;25170,973;46,55798
 666,08;11778,178;   30,165;25185,707;46,70149
 666,66;11891,071;   47,465;25667,539;46,22784
 667,23;11981,265;   51,765;25732,773;46,45261
 667,81;12173,458;   65,865;25889,307;46,88605
 668,39;12249,451;   43,265;26047,141;46,93987
 668,96;12430,345;   54,665;26309,074;47,13753
 669,54;12626,237;   38,765;26408,408;47,73471
 670,12;12754,230;   51,165;26808,740;47,47465
 670,69;13011,124;   64,165;26950,674;48,15411
 671,27;13162,117;   25,565;27096,008;48,52729
 671,84;13258,811;   40,665;27105,240;48,83929
 672,42;13388,904;   66,265;27253,875;49,00261
 673,00;13394,397;   57,165;27531,408;48,54449
 673,57;13430,891;   59,965;27276,441;49,12805
 674,15;13534,384;   64,065;27613,475;48,89513
 674,72;13470,177;   58,565;27536,209;48,80918
 675,30;13408,471;   69,466;27513,541;48,60432
 675,88;13312,063;   36,266;27573,176;48,21092
 676,45;13255,457;   59,466;27677,309;47,78067
 677,03;13140,851;   67,866;27525,043;47,61227
 677,60;13126,044;   41,466;27770,576;47,18715
 678,18;13124,037;   59,466;27877,510;46,96438
 678,76;13021,030;   40,766;27809,143;46,74477
 679,33;12925,323;   57,666;27813,176;46,36073
 679,91;12834,917;   44,266;27813,311;46,06083
 680,48;12791,609;   28,766;27740,242;46,05617
 681,06;12864,203;   50,866;27735,176;46,28375
 681,63;12811,196;   37,566;27736,209;46,11645
 682,21;12873,790;   67,966;27797,543;46,18110
 682,78;12844,683;   20,566;27459,576;46,73681
 683,36;12961,376;   46,966;27565,510;46,92985
 683,93;13020,770;   30,466;27450,645;47,37498
 684,51;13084,763;   26,166;27477,277;47,57038
 685,08;13321,056;   38,966;27733,711;47,95888
 685,66;13447,649;   53,066;27694,045;48,45915
 686,24;13561,143;   33,766;27796,578;48,72481
 686,81;13821,036;   57,666;27899,910;49,43341
 687,39;13848,629;   38,866;27807,844;49,73090
 687,96;14050,723;   54,166;27850,479;50,35401
 688,54;14132,115;   30,866;27984,811;50,44458
 689,11;14207,009;   26,966;28043,545;50,61304
 689,69;14315,202;   29,666;28019,279;51,03870
 690,26;14462,896;   59,466;28289,313;51,02199
 690,84;14475,389;   50,066;28239,846;51,17217
 691,41;14490,082;   35,966;28403,879;50,95234
 691,98;14524,875;   31,466;28427,912;51,03952
 692,56;14610,969;   32,866;28437,445;51,32307
 693,13;14626,762;   64,866;28655,080;50,93315
 693,71;14550,955;   24,466;28657,912;50,73259
 694,28;14580,048;   41,966;28715,945;50,70130
 694,86;14560,642;   47,266;28928,879;50,25126
 695,43;14497,234;   61,366;29100,912;49,71107
 696,01;14603,229;   36,266;29145,547;50,04233
 696,58;14528,121;   42,167;29083,879;49,87982
 697,16;14593,314;   38,067;29126,414;50,03807
 697,73;14698,608;   63,467;29338,246;49,99232
 698,30;14737,102;   51,867;29223,980;50,33998
 698,88;14856,895;   40,467;29558,613;50,19430
 699,45;14970,588;   35,367;29765,848;50,23538
 700,03;15186,481;   56,067;29750,980;50,95288
 700,60;15275,374;   56,267;29850,613;51,08052
 701,18;15479,968;   61,867;29963,947;51,56197
 701,75;15758,761;   74,367;30094,682;52,24593
 702,32;15835,954;   50,367;29901,914;52,88030
 702,90;16096,348;   52,467;30254,148;53,12248
 703,47;16362,041;   51,367;30428,881;53,69325
 704,05;16575,635;   67,767;30546,715;54,16154
 704,62;16695,027;   39,867;30587,848;54,52131
 705,19;16835,520;   43,667;30586,982;54,97718
 705,77;17020,713;   29,967;30618,314;55,54647
 706,34;17282,607;   61,667;30627,049;56,34132
 706,91;17421,100;   46,367;30673,883;56,72916
 707,49;17630,594;   57,267;30976,316;56,83657
 708,06;17734,086;   66,367;31089,049;56,95097
 708,64;17707,680;   25,767;31093,582;56,91392
 709,21;17874,674;   58,167;31179,316;57,24887
 709,78;17970,967;   41,367;31281,150;57,39348
 710,36;18157,959;   61,667;31419,684;57,70866
 710,93;18149,053;   50,567;31562,416;57,43391
 711,50;18203,346;   44,467;31506,049;57,71763
 712,08;18384,641;   76,567;31925,383;57,48431
 712,65;18328,732;   73,667;31775,916;57,58287
 713,22;18492,127;   69,067;31900,250;57,87740
 713,80;18600,119;   84,167;31966,883;58,07520
 714,37;18411,514;   55,767;31827,018;57,77471
 714,94;18565,506;   53,967;31727,551;58,44472
 715,52;18685,799;   47,867;31732,984;58,82235
 716,09;18829,992;   65,467;31891,918;58,95890
 716,66;18941,086;   73,467;31935,051;59,21745
 717,23;19025,580;   66,867;31908,484;59,54067
 717,81;19163,271;   50,168;31812,018;60,17629
 718,38;19216,365;   47,468;31671,252;60,61545
 718,95;19374,959;   59,068;31618,984;61,20387
 719,53;19463,852;   56,568;31661,418;61,40603
 720,10;19622,846;   59,968;31481,252;62,25996
 720,67;19566,939;   35,768;31355,984;62,35963
 721,24;19694,531;   59,468;31256,020;62,93985
 721,82;19846,926;   49,968;31236,053;63,48010
 722,39;20092,619;   64,068;31235,885;64,25211
 722,96;20126,111;   64,968;31261,420;64,30585
 723,53;20262,705;   88,268;31151,953;64,94541
 724,11;20444,799;   61,568;31207,486;65,44431
 724,68;20513,791;   71,568;31242,020;65,58206
 725,25;20655,885;   72,768;31399,953;65,70369
 725,82;20871,678;   96,068;31564,387;66,02072
 726,40;21041,271;   62,668;31714,820;66,27860
 726,97;21200,064;   62,168;31875,354;66,44382
 727,54;21232,357;   46,968;31801,486;66,71614
 728,11;21338,951;   49,568;32045,820;66,53711
 728,69;21484,045;   39,568;31938,953;67,22536
 729,26;21540,438;   53,568;32105,088;67,03854
 729,83;21691,531;   53,268;32264,621;67,17589
 730,40;21732,725;   66,768;32291,754;67,23341
 730,97;21891,217;   44,268;32590,588;67,12571
 731,55;21938,811;   41,468;32755,820;66,93497
 732,12;22078,904;   86,268;32841,656;67,14204
 732,69;22165,498;   66,968;32889,988;67,32631
 733,26;22297,891;   55,168;32930,520;67,65775
 733,83;22475,684;   41,168;32979,055;68,11158
 734,41;22586,377;   65,468;32991,590;68,39830
 734,98;22709,070;   51,368;33155,621;68,44348
 735,55;22893,463;   43,168;33183,656;68,94978
 736,12;23170,156;   65,968;33377,289;69,35837
 736,69;23300,850;   76,968;33377,922;69,73939
 737,26;23277,844;   57,468;33552,254;69,32534
 737,84;23515,438;   70,768;33487,188;70,15913
 738,41;23663,029;   63,168;33492,422;70,59643
 738,98;23818,924;   63,569;33375,055;71,31281
 739,55;23924,717;   49,669;33377,789;71,63635
 740,12;24129,709;   62,969;33678,023;71,59512
 740,69;24245,604;   70,569;33575,656;72,15333
 741,26;24309,596;   56,269;33557,391;72,39557
 741,83;24466,590;   53,869;33719,523;72,51521
 742,41;24559,982;   56,169;33833,055;72,54610
 742,98;24657,576;   91,469;33874,590;72,71710
 743,55;24808,170;   53,569;33836,824;73,27477
 744,12;24920,764;   50,469;33859,855;73,56033
 744,69;24942,557;   59,569;33848,492;73,64244
 745,26;24822,750;   42,169;33677,723;73,67377
 745,83;25010,242;   58,769;33854,355;73,83057
 746,40;24959,836;   57,969;33844,789;73,70290
 746,97;24950,830;   44,769;33828,125;73,72287
 747,55;24997,623;   62,269;33966,957;73,54545
 748,12;25059,516;   57,869;33910,191;73,85504
 748,69;25143,609;   68,769;33877,625;74,16649
 749,26;25169,303;   65,069;33958,559;74,06801
 749,83;25085,396;   42,569;33911,992;73,93934
 750,40;25182,988;   89,669;34158,824;73,65407
 750,97;25234,781;   96,269;34144,160;73,83280
 751,54;25206,576;   40,569;33980,793;74,14803
 752,11;25227,270;   52,969;33874,727;74,43227
 752,68;25302,162;   87,869;33912,859;74,54339
 753,25;25318,455;   60,269;33774,594;74,91826
 753,82;25395,949;   65,069;33810,527;75,06456
 754,39;25334,041;   75,169;33727,160;75,05907
 754,96;25391,035;   60,069;33616,395;75,48790
 755,53;25399,129;   29,469;33796,527;75,13139
 756,10;25329,822;   64,169;33720,961;75,06851
 756,67;25491,115;   73,369;33813,395;75,33410
 757,24;25381,209;   72,769;33740,426;75,17137
 757,81;25318,301;   16,469;33677,762;75,16595
 758,38;25539,094;   54,569;33822,695;75,46917
 758,95;25606,389;   79,469;33743,426;75,82864
 759,52;25600,881;   57,469;33615,859;76,11632
 760,09;25576,475;   68,570;33306,992;76,74222
 760,66;25467,467;   59,570;33309,727;76,41437
 761,23;25500,660;   91,070;33353,961;76,39020
 761,80;25512,654;   56,270;33295,793;76,58469
 762,37;25548,947;   68,970;33167,727;76,98168
 762,94;25490,941;   70,970;33187,461;76,75925
 763,51;25638,934;   36,070;32949,793;77,78781
 764,08;25414,928;   66,270;32998,527;76,97212
 764,65;25294,721;   69,570;32798,961;77,07186
 765,22;25342,713;   54,670;32804,496;77,21581
 765,79;25238,107;   77,370;32691,928;77,14573
 766,36;25224,000;   73,170;32743,063;76,98473
 766,93;25282,895;   68,970;32551,295;77,62352
 767,50;25172,287;   89,470;32828,328;76,61482
 768,07;25208,779;   63,870;32699,262;77,04798
 768,64;25238,074;   86,470;32572,596;77,42260
 769,21;25111,066;   57,970;32359,729;77,55954
 769,78;24954,160;   78,770;32244,963;77,33396
 770,34;24738,854;   45,570;32031,195;77,20119
 770,91;24771,646;   58,470;31921,430;77,56083
 771,48;24757,539;   62,370;31836,863;77,72010
 772,05;24580,232;   66,470;31610,697;77,71236
 772,62;24362,727;   42,670;31443,029;77,45152
 773,19;24460,320;   59,370;31579,764;77,41322
 773,76;24402,713;   71,070;31506,297;77,40247
 774,33;24364,807;   74,170;31447,330;77,42490
 774,90;24101,199;   52,870;31206,064;77,19378
 775,47;24066,693;   59,970;30957,498;77,69788
 776,03;24099,586;   73,470;30984,330;77,72710
 776,60;23958,779;   55,970;30757,863;77,85451
 777,17;23904,672;   65,470;30698,098;77,82291
 777,74;23724,766;   30,870;30522,031;77,70742
 778,31;23784,059;   68,970;30582,064;77,72102
 778,88;23732,453;   30,470;30366,898;78,13043
 779,45;23685,445;   75,770;30358,131;77,96511
 780,01;23587,939;   58,370;30299,664;77,80609
 780,58;23516,432;   60,570;30177,998;77,88136
 781,15;23388,525;   38,771;29979,432;77,98677
 781,72;23484,818;   66,771;29962,266;78,33303
 782,29;23202,713;   51,771;29667,100;78,17216
 782,86;23050,404;   55,571;29617,732;77,78468
 783,42;23106,299;   56,171;29598,166;78,02495
 783,99;23069,191;   66,671;29482,100;78,19883
 784,56;22987,885;   55,171;29320,232;78,36209
 785,13;22829,277;   40,271;29247,266;78,02585
 785,70;22720,072;   49,071;29060,299;78,14561
 786,26;22675,664;   51,671;28910,732;78,39476
 786,83;22770,357;   84,371;28889,166;78,75767
 787,40;22598,451;   57,171;28783,500;78,46906
 787,97;22541,244;   43,971;28581,133;78,83501
 788,54;22529,338;   70,371;28515,268;78,95605
 789,10;22227,832;   57,971;28344,400;78,37632
 789,67;22103,125;   70,371;28245,334;78,19976
 790,24;22098,018;   51,071;28193,768;78,33985
 790,81;21878,410;   88,271;27914,400;78,30819
 791,37;21919,004;   73,671;27872,135;78,58468
 791,94;21936,398;   70,771;27886,367;78,60924
 792,51;21748,291;   46,271;27539,201;78,93673
 793,08;21662,885;   69,771;27555,234;78,56194
 793,64;21523,477;   71,271;27455,168;78,33876
 794,21;21388,570;   69,671;27250,602;78,43329
 794,78;21300,664;   53,071;27147,035;78,42187
 795,35;21118,957;   73,471;27007,969;78,13580
 795,91;21014,850;   48,071;26789,301;78,40619
 796,48;20937,543;   55,771;26710,734;78,34103
 797,05;20980,637;   57,671;26624,369;78,75636
 797,62;20947,430;   41,971;26600,701;78,71407
 798,18;20613,424;   57,471;26410,736;78,00154
 798,75;20616,018;   56,571;26279,770;78,40175
 799,32;20651,010;   60,771;26209,102;78,74399
 799,88;20518,604;   55,971;26051,535;78,71586
 800,45;20242,496;   33,971;25945,270;77,99117
 801,02;20311,990;   65,271;25880,104;78,43057
 801,58;20262,684;   90,872;25660,436;78,88993
 802,15;20126,877;   72,872;25615,270;78,51262
 802,72;20007,570;   66,172;25404,703;78,69990
 803,28;19878,563;   49,172;25288,938;78,56408
 803,85;19818,557;   41,972;25144,871;78,78207
 804,42;19737,549;   77,772;24948,004;79,04943
 804,98;19796,742;  100,672;24935,537;79,30814
 805,55;19561,236;   56,972;24702,371;79,13958
 806,12;19433,930;   83,572;24611,004;78,89272
 806,68;19299,422;   66,472;24493,738;78,73558
 807,25;19304,217;   74,972;24436,271;78,93358
 807,82;19375,209;   86,872;24407,805;79,30755
 808,38;19309,303;   73,672;24367,037;79,18059
 808,95;19129,596;   62,972;24166,971;79,10150
 809,52;19068,488;   50,272;24162,004;78,87536
 810,08;19007,281;   55,172;23994,938;79,16581
 810,65;19064,676;   77,172;24169,672;78,81085
 811,21;18971,668;   69,972;24123,404;78,58212
 811,78;19020,563;   92,472;24337,539;78,06986
 812,35;18933,256;   64,972;24173,871;78,26274
 812,91;19005,049;   90,072;24239,705;78,32408
 813,48;18943,842;   68,172;24202,738;78,21011
 814,04;18914,436;   64,172;24088,373;78,46364
 814,61;18790,029;   77,572;24176,006;77,65010
 815,18;18565,322;   67,772;23892,539;77,64000
 815,74;18576,314;   69,772;23709,172;78,28685
 816,31;18508,809;   83,372;23614,406;78,30271
 816,87;18365,801;   43,272;23489,641;78,14655
 817,44;18287,295;   76,972;23452,273;77,90412
 818,00;18081,287;   43,272;23159,506;78,03181
 818,57;18071,881;   71,872;23076,340;78,24571
 819,14;17963,674;   82,872;22924,273;78,28242
 819,70;17809,068;   72,672;22792,707;78,06500
 820,27;17773,061;   62,972;22691,941;78,26290
 820,83;17552,354;   70,072;22541,373;77,79826
 821,40;17452,947;   98,072;22431,908;77,70665
 821,96;17421,541;   75,272;22315,541;77,99487
 822,53;17349,135;   70,973;22257,574;77,87656
 823,09;17306,727;   81,073;22073,309;78,32607
 823,66;17145,521;   68,173;21862,541;78,35670
 824,22;17061,514;   77,173;21851,674;78,00106
 824,79;16960,508;   75,473;21561,408;78,58646
 825,35;16930,000;   65,173;21648,041;78,13988
 825,92;16802,793;   75,173;21398,875;78,44613
 826,48;16845,787;   87,673;21501,309;78,25908
 827,05;16652,480;   89,573;21448,242;77,54653
 827,61;16474,273;   75,273;21249,076;77,44948
 828,18;16450,566;   60,873;21191,209;77,56476
 828,74;16280,561;   91,673;21053,543;77,23017
 829,31;16267,753;   83,373;21002,176;77,36762
 829,87;16192,347;   73,073;20733,709;78,01925
 830,44;16088,340;   85,173;20631,443;77,88843
 831,00;16056,633;   91,273;20673,977;77,56687
 831,57;15880,227;  101,573;20631,609;76,85643
 832,13;15654,319;   72,073;20323,344;76,94454
 832,69;15642,613;   58,173;20309,477;76,95525
 833,26;15572,206;   85,473;20322,711;76,52592
 833,82;15590,300;   93,073;20197,744;77,08272
 834,39;15513,393;   78,773;20137,477;76,94724
 834,95;15393,386;   57,173;19959,410;77,05773
 835,52;15215,479;   87,873;19851,744;76,54172
 836,08;15272,173;   95,573;19951,877;76,43215
 836,64;15247,866;   76,273;19800,711;76,91775
 837,21;15097,560;   88,673;19552,443;77,11192
 837,77;15049,752;   91,873;19491,777;77,10285
 838,34;14907,846;   67,473;19470,012;76,48676
 838,90;14802,739;   64,473;19306,045;76,59596
 839,46;14767,032;   83,873;19312,479;76,36102
 840,03;14787,325;   76,173;19300,811;76,52239
 840,59;14763,519;   85,873;19175,645;76,88749
 841,16;14663,112;  105,173;19156,578;76,41399
 841,72;14613,605;   59,373;18965,512;76,98152
 842,28;14530,799;   77,873;18857,246;76,96171
 842,85;14501,092;   95,573;18812,578;76,96487
 843,41;14436,485;  105,374;18740,813;76,90246
 843,97;14272,979;   89,174;18686,846;76,26656
 844,54;14188,771;  104,774;18624,979;76,04666
 845,10;14174,865;   89,174;18523,713;76,40924
 845,67;14129,958;   68,774;18413,445;76,64996
 846,23;13977,451;   78,674;18361,080;76,02269
 846,79;13886,345;   90,474;18265,613;75,90517
 847,36;13762,438;   55,774;18179,047;75,63018
 847,92;13787,731;   84,874;18034,680;76,33987
 848,48;13684,824;   41,874;18039,213;75,80538
 849,04;13605,418;   62,374;17949,447;75,71414
 849,61;13567,711;   56,274;17918,580;75,64218
 850,17;13528,904;   68,174;17819,514;75,82938
 850,73;13334,397;   71,474;17764,848;74,95983
 851,30;13233,091;   46,074;17669,881;74,82502
 851,86;13253,884;   75,874;17597,914;75,20819
 852,42;13271,178;   51,174;17568,348;75,46882
 852,99;13215,171;   79,274;17583,082;75,04594
 853,55;13119,564;   83,174;17542,514;74,66714
 854,11;13033,857;   70,074;17432,049;74,66768
 854,67;13093,751;   85,474;17420,881;75,03878
 855,24;12982,544;   51,874;17213,414;75,34679
 855,80;12975,537;   76,874;17244,848;75,13212
 856,36;12912,730;   80,574;17175,881;75,06245
 856,92;12750,523;   54,474;17027,215;74,80259
 857,49;12764,117;   81,274;17048,248;74,75018
 858,05;12705,010;   67,274;16968,482;74,77415
 858,61;12704,403;   65,774;17003,316;74,61903
 859,17;12680,696;   77,374;16904,250;74,89995
 859,74;12602,190;   82,074;16836,883;74,72551
 860,30;12569,483;   93,074;16663,016;75,29543
 860,86;12627,776;   72,074;16692,350;75,54449
 861,42;12451,370;   74,674;16545,883;75,14139
 861,99;12418,063;   54,674;16506,717;75,14805
 862,55;12284,856;   66,374;16393,051;74,83753
 863,11;12372,449;   75,174;16437,283;75,15703
 863,67;12250,942;   61,274;16290,117;75,11113
 864,23;12240,836;   80,175;16199,351;75,44220
 864,80;12132,930;   69,175;16081,384;75,34098
 865,36;12097,723;   71,875;16120,817;74,93234
 865,92;12045,016;   96,175;16088,751;74,71492
 866,48;11954,909;   67,375;15987,384;74,67040
 867,04;11919,503;   60,675;15891,418;74,91012
 867,60;11925,396;   99,375;15884,451;74,91900
 868,17;11889,589;   93,675;15884,685;74,70019
 868,73;11708,982;   82,775;15672,618;74,57553
 869,29;11632,476;   59,475;15470,151;75,09729
 869,85;11708,969;  100,475;15369,685;76,02551
 870,41;11554,362;   80,575;15293,418;75,42172
 870,97;11514,056;   92,975;15232,252;75,44007
 871,54;11372,849;   84,175;15178,686;74,78662
 872,10;11293,142;   84,275;15055,419;74,86981
 872,66;11167,135;   66,775;14910,652;74,78073
 873,22;11136,429;   81,975;14890,586;74,64882
 873,78;11015,021;   65,275;14742,419;74,60407
 874,34;11091,115;   95,075;14662,652;75,48297
 874,90;11004,415;  109,775;14536,053;75,51941
 875,46;10939,815;   96,375;14412,952;75,74045
 876,03;10911,615;   86,475;14363,353;75,82288
 876,59;10699,315;   64,475;14153,253;75,48448
 877,15;10672,015;  101,475;14166,853;75,15290
 877,71;10680,315;   78,275;14064,652;75,80262
 878,27;10557,115;   95,675;13910,553;75,72590
 878,83;10577,515;  114,275;13971,753;75,50609
 879,39;10509,915;   91,075;14082,753;74,46455
 879,95;10496,115;   86,275;13964,253;75,00978
 880,51;10485,415;   75,175;13927,253;75,15291
 881,07;10482,015;   82,375;13978,753;74,83705
 881,63;10519,015;   92,575;13971,253;75,12560
 882,19;10549,115;   82,675;13921,553;75,63070
 882,75;10583,515;   86,275;14019,553;75,33934
 883,31;10605,915;   95,575;14187,853;74,58227
 883,88;10601,415;   96,375;14174,353;74,62038
 884,44;10653,715;   76,175;14175,753;75,02026
 885,00;10767,015;  106,075;14266,952;75,28446
 885,56;10708,715;  101,675;14299,452;74,70916
 886,12;10835,015;  109,875;14421,152;74,94188
 886,68;10849,715;   90,775;14436,753;74,99621
 887,24;10937,815;  102,475;14574,952;74,86860
 887,80;10890,515;   86,975;14671,753;74,07408
 888,36;11058,115;  106,275;14715,652;74,96446
 888,92;11067,515;   98,975;14773,353;74,74620
 889,48;11241,215;   99,575;14973,853;74,90542
 890,04;11154,515;   95,275;14803,053;75,19314
 890,60;11312,615;  117,475;15014,652;75,14941
 891,16;11366,915;   99,875;15075,853;75,23409
 891,72;11331,415;  113,275;15058,452;75,06194
 892,28;11324,215;  112,475;15126,053;74,67734
 892,84;11347,715;   93,775;15039,853;75,29695
 893,39;11342,315;  117,575;15112,952;74,85467
 893,95;11259,315;  112,975;15044,753;74,64845
 894,51;11196,115;   66,375;14891,253;75,07475
 895,07;11242,315;  127,375;14906,353;75,20778
 895,63;11025,715;   74,275;14689,952;74,92940
 896,19;10930,515;   90,375;14601,952;74,69994
 896,75;10861,615;  105,175;14460,152;74,93178
 897,31;10732,515;   82,775;14295,853;74,92916
 897,87;10566,115;   98,175;14146,853;74,51193
 898,43;10605,515;   87,775;14075,753;75,19128
 898,99;10424,115;  109,175;14002,753;74,24250
 899,55;10373,515;  109,475;13940,652;74,20944
 900,11;10297,115;  104,975;13747,553;74,70832
 900,67;10174,415;   91,375;13658,652;74,31882
 901,22;10182,715;  108,375;13601,952;74,66026
 901,78; 9990,315;   91,275;13560,053;73,49620
 902,34; 9996,015;  103,075;13451,152;74,11509
 902,90; 9829,915;   73,575;13350,652;73,48259
 903,46; 9713,915;   95,775;13236,353;73,19420
 904,02; 9739,115;   88,075;13091,553;74,21892
 904,58; 9626,015;   67,075;12918,152;74,38240
 905,14; 9493,815;   63,975;12874,553;73,60980
 905,70; 9452,115;   66,775;12696,053;74,31415
 906,25; 9406,915;   84,375;12708,452;73,84730
 906,81; 9317,415;   87,675;12732,152;72,99424
 907,37; 9272,415;   79,275;12616,152;73,32879
 907,93; 9180,015;   74,775;12588,152;72,76405
 908,49; 9162,815;  101,875;12497,652;73,09699
 909,05; 9160,715;   89,675;12425,553;73,53380
 909,60; 9112,415;   86,575;12340,452;73,65701
 910,16; 9072,415;   67,675;12291,853;73,66336
 910,72; 9048,715;  100,475;12207,753;73,90794
 911,28; 8904,215;   90,875;12156,053;73,04774
 911,84; 8840,015;   79,575;12106,753;72,83870
 912,39; 8821,215;   73,475;12049,353;73,04467
 912,95; 8845,315;  104,475;12001,452;73,47110
 913,51; 8760,815;   85,375;11945,253;73,14949
 914,07; 8610,215;   83,775;11813,452;72,69117
 914,63; 8668,215;   64,775;11748,053;73,63892
 915,18; 8516,015;   77,475;11617,853;73,12187
 915,74; 8431,015;   63,975;11632,652;72,32495
 916,30; 8384,315;   61,475;11588,553;72,20252
 916,86; 8382,715;   83,575;11514,652;72,60155
 917,42; 8329,515;   82,275;11425,152;72,70853
 917,97; 8122,015;   75,375;11265,452;71,90871
 918,53; 8104,915;   67,775;11196,253;72,22138
 919,09; 8062,415;   88,975;11223,753;71,60843
 919,65; 8023,315;   83,375;11083,452;72,18077
 920,20; 7936,915;   61,875;10983,053;72,10797
 920,76; 7873,215;   65,475;10849,452;72,40130
 921,32; 7818,315;   82,675;10770,952;72,37499
 921,87; 7702,415;   97,475;10670,253;71,92944
 922,43; 7596,215;   64,675;10561,353;71,75165
 922,99; 7477,415;   61,875;10406,753;71,68320
 923,55; 7452,615;   63,775;10357,353;71,78107
 924,10; 7317,015;   73,575;10282,853;70,94959
 924,66; 7257,315;   78,675;10170,152;71,13567
 925,22; 7182,915;   43,275;10093,952;71,03641
 925,77; 7077,815;   66,075; 9927,053;71,10593
 926,33; 7042,415;   90,375; 9903,253;70,84609
 926,89; 6943,515;   71,975; 9692,753;71,42396
 927,44; 6893,815;   52,175; 9580,553;71,80278
 928,00; 6829,015;   66,875; 9533,753;71,42946
 928,56; 6743,315;   80,375; 9372,253;71,70714
 929,12; 6700,715;   72,775; 9275,152;72,02421
 929,67; 6544,515;   67,575; 9091,053;71,77876
 930,23; 6369,915;   50,975; 8915,253;71,28545
 930,78; 6401,215;  100,675; 8842,553;72,07307
 931,34; 6141,315;   61,975; 8632,152;70,93599
 931,90; 6043,915;   61,675; 8494,353;70,94117
 932,45; 5882,815;   78,775; 8290,753;70,67773
 933,01; 5701,815;   52,975; 8024,453;70,86315
 933,57; 5514,615;   72,175; 7753,252;70,85517
 934,12; 5290,115;   70,475; 7399,553;71,21824
 934,68; 5030,415;   59,075; 7020,252;71,41522
 935,24; 4755,715;   67,875; 6614,752;71,60421
 935,79; 4492,615;   72,975; 6254,853;71,49349
 936,35; 4153,215;   91,375; 5812,252;71,00029
 936,90; 3840,515;   80,275; 5348,752;71,37242
 937,46; 3570,115;   72,775; 4956,953;71,60550
 938,02; 3292,015;   63,375; 4549,152;71,97504
 938,57; 3089,115;   73,175; 4265,053;71,94723
 939,13; 2861,415;   70,575; 3986,752;71,26439
 939,68; 2654,415;   57,375; 3713,452;71,03351
 940,24; 2509,615;   68,775; 3504,052;71,05219
 940,79; 2426,415;   91,875; 3391,052;70,76127
 941,35; 2298,115;   79,675; 3217,552;70,69874
 941,91; 2241,515;   71,375; 3122,252;71,13166
 942,46; 2202,215;   75,075; 3063,552;71,17805
 943,02; 2180,715;   65,375; 3050,752;70,85671
 943,57; 2102,215;   61,275; 2982,452;69,86704
 944,13; 2130,015;   67,375; 2974,452;70,95236
 944,68; 2130,815;   65,975; 3041,752;69,38825
 945,24; 2187,715;   82,275; 3060,052;70,70508
 945,79; 2167,915;   68,775; 3104,052;69,15809
 946,35; 2215,515;   51,775; 3194,752;68,84363
 946,90; 2317,815;   98,575; 3283,552;69,67836
 947,46; 2334,715;   52,175; 3311,052;70,04068
 948,01; 2349,515;   51,575; 3390,052;68,83197
 948,57; 2429,815;   86,775; 3552,952;67,59723
 949,12; 2467,415;   65,875; 3613,353;67,69712
 949,68; 2570,115;   76,275; 3732,653;68,20521
 950,23; 2613,615;   70,075; 3833,252;67,59022
 950,79; 2674,415;   75,775; 3933,452;67,36281
 951,34; 2769,715;   83,275; 4070,952;67,36854
 951,90; 2838,815;   57,475; 4140,853;68,11371
 952,45; 2912,115;   81,075; 4292,152;67,22840
 953,01; 2932,015;   65,975; 4364,252;66,67880
 953,56; 3019,515;   87,975; 4500,853;66,43148
 954,12; 3055,115;   42,075; 4567,553;66,57949
 954,67; 3089,415;   70,875; 4720,453;64,92074
 955,23; 3142,015;   61,975; 4804,553;64,94443
 955,78; 3163,715;   67,175; 4882,953;64,29990
 956,33; 3178,015;   58,575; 4947,252;63,80948
 956,89; 3224,715;   53,475; 5038,553;63,61466
 957,44; 3290,715;   53,675; 5170,752;63,25955
 958,00; 3324,715;   49,475; 5238,353;63,12040
 958,55; 3349,915;   70,475; 5313,953;62,54323
 959,10; 3382,715;   52,375; 5370,252;62,62536
 959,66; 3410,015;   74,275; 5488,752;61,60779
 960,21; 3462,015;   78,475; 5567,453;61,64244
 960,77; 3478,015;   54,275; 5606,152;61,66815
 961,32; 3504,715;   48,375; 5663,453;61,55463
 961,87; 3514,015;   79,775; 5738,752;60,68658
 962,43; 3496,015;   68,975; 5780,652;60,00059
 962,98; 3568,215;   76,175; 5828,652;60,70498
 963,54; 3533,815;   27,075; 5820,652;60,52806
 964,09; 3564,215;   56,275; 5873,953;60,29795
 964,64; 3569,315;   64,975; 5901,053;60,04615
 965,20; 3562,115;   44,375; 5966,652;59,39843
 965,75; 3581,115;   66,575; 5976,353;59,46992
 966,30; 3603,615;   75,275; 6068,553;58,87162
 966,86; 3618,815;   62,975; 6121,953;58,68713
 967,41; 3608,115;   81,075; 6084,453;58,75093
 967,96; 3604,215;   75,175; 6108,953;58,48807
 968,52; 3612,215;   81,775; 6126,353;58,40673
 969,07; 3589,515;   72,975; 6120,152;58,15176
 969,62; 3553,615;   77,175; 6134,953;57,38804
 970,18; 3566,115;   57,575; 6147,652;57,61076
 970,73; 3540,815;   66,475; 6203,553;56,61229
 971,28; 3552,615;   95,775; 6197,053;56,65764
 971,84; 3450,315;   55,075; 6118,752;55,99308
 972,39; 3434,315;   95,875; 6148,652;55,15551
 972,94; 3393,315;   54,975; 6140,652;54,85568
 973,49; 3379,915;   64,575; 6141,252;54,55843
 974,05; 3353,815;   64,375; 6178,053;53,80460
 974,60; 3319,415;   88,575; 6213,252;52,75119
 975,15; 3306,315;   77,675; 6231,553;52,46513
 975,71; 3251,415;   62,375; 6121,453;52,63243
 976,26; 3251,415;   77,575; 6110,252;52,61080
 976,81; 3214,315;   90,675; 6134,152;51,68614
 977,36; 3208,715;   84,775; 6156,953;51,44678
 977,92; 3181,515;   90,175; 6209,353;50,51888
 978,47; 3164,515;   77,175; 6060,252;51,60120
 979,02; 3157,115;   95,475; 6085,652;51,11101
 979,57; 3077,815;   86,775; 6058,453;50,08710
 980,13; 3061,815;   76,175; 6038,752;50,07298
 980,68; 3038,615;   77,075; 6010,553;49,91238
 981,23; 3065,215;   89,175; 6054,652;49,88771
 981,78; 3011,015;   82,075; 5974,152;49,70980
 982,33; 2999,715;   79,275; 5893,252;50,23136
 982,89; 2990,315;   94,375; 5938,152;49,55596
 983,44; 2938,215;   65,675; 5935,853;48,93447
 983,99; 2950,215;  104,775; 5949,453;48,68429
 984,54; 2911,115;   81,475; 5900,053;48,63113
 985,09; 2876,115;   87,275; 5873,752;48,19582
 985,65; 2800,815;   69,375; 5811,853;47,56553
 986,20; 2811,315;  106,575; 5791,152;47,58032
 986,75; 2785,515;   95,875; 5823,953;46,95537
 987,30; 2733,215;   97,175; 5726,053;46,83065
 987,85; 2738,015;   92,475; 5721,353;46,99942
 988,40; 2697,415;   96,675; 5693,953;46,46437
 988,96; 2636,415;  114,875; 5666,553;45,41942
 989,51; 2586,915;  108,875; 5644,053;44,76893
 990,06; 2563,915;  128,275; 5680,853;43,86503
 990,61; 2528,415;   93,575; 5569,053;44,46808
 991,16; 2489,415;  104,375; 5558,053;43,73269
 991,71; 2402,515;   79,875; 5505,853;42,80593
 992,26; 2372,915;   93,475; 5457,252;42,49692
 992,81; 2352,915;   75,075; 5427,053;42,56072
 993,37; 2339,615;  113,475; 5390,553;42,18509
 993,92; 2313,015;  108,375; 5368,953;41,90870
 994,47; 2309,915;  117,475; 5329,652;42,06380
 995,02; 2247,315;  118,475; 5313,252;40,98039
 995,57; 2207,615;   90,875; 5274,652;40,83393
 996,12; 2206,115;  133,575; 5247,553;40,52697
 996,67; 2155,815;  132,375; 5191,652;39,99464
 997,22; 2123,515;   99,875; 5128,652;40,24119
 997,77; 2126,615;  115,275; 5110,553;40,26483
 998,32; 2092,415;  103,775; 5015,652;40,48635
 998,87; 2071,815;  114,275; 5018,752;39,91332
 999,42; 2033,015;  101,675; 4972,553;39,65076
 999,97; 2034,715;  109,975; 4956,353;39,71502
1000,53; 2023,715;  123,475; 4993,752;39,01708
1001,08; 1972,815;   98,375; 4879,053;39,20867
1001,63; 1951,315;  144,475; 4878,053;38,17070
1002,18; 1911,315;   85,075; 4777,453;38,91929
1002,73; 1912,215;  131,375; 4813,853;38,03200
1003,28; 1892,915;  103,575; 4811,953;38,00332
1003,83; 1852,615;  119,075; 4691,752;37,91083
1004,38; 1877,715;  137,775; 4703,152;38,11164
1004,93; 1796,715;  114,375; 4680,953;36,84028
1005,48; 1783,115;  104,075; 4573,053;37,57101
1006,03; 1749,715;  112,775; 4525,652;37,09462
1006,58; 1741,415;  111,475; 4486,553;37,25511
1007,13; 1701,715;   94,475; 4466,252;36,76399
1007,68; 1659,015;  104,975; 4462,453;35,66375
1008,23; 1664,415;  114,575; 4425,853;35,94851
1008,78; 1634,715;  107,375; 4384,152;35,71240
1009,33; 1593,115;  121,875; 4307,752;35,14771
1009,88; 1555,915;   84,775; 4329,553;34,65765
1010,43; 1526,415;  118,875; 4320,752;33,49788
1010,98; 1506,715;  100,675; 4310,053;33,40256
1011,52; 1467,615;   97,075; 4264,953;32,88340
1012,07; 1507,315;  144,475; 4319,252;32,64461
1012,62; 1451,115;  103,875; 4259,152;32,42238
1013,17; 1451,015;   97,175; 4172,053;33,22406
1013,72; 1415,015;   94,575; 4143,453;32,61249
1014,27; 1366,215;  100,275; 4105,853;31,60443
1014,82; 1339,015;   86,875; 4042,952;31,65105
1015,37; 1331,015;   84,375; 3964,853;32,12594
1015,92; 1317,515;  109,475; 3894,252;31,91839
1016,47; 1271,715;   90,275; 3819,452;31,68098
1017,02; 1214,215;   81,075; 3732,153;31,03577
1017,57; 1225,515;   96,475; 3718,853;31,16848
1018,11; 1194,215;   77,275; 3656,252;31,20835
1018,66; 1177,315;  120,175; 3636,552;30,06332
1019,21; 1172,615;  109,675; 3579,552;30,63336
1019,76; 1134,915;   77,675; 3497,353;30,91637
1020,31; 1105,415;   71,975; 3446,452;30,62519
1020,86; 1105,015;   96,175; 3448,052;30,09776
1021,41; 1081,915;   80,175; 3387,052;30,29263
1021,96; 1067,115;   83,675; 3385,853;29,78156
1022,50; 1066,115;  105,975; 3332,952;29,75354
1023,05; 1023,415;   94,675; 3288,052;29,08331
1023,60; 1009,315;   97,975; 3251,353;28,90044
1024,15;  974,315;   81,075; 3184,853;28,77912
1024,70;  981,815;   95,075; 3176,252;28,77926
1025,25;  965,815;   81,175; 3127,452;29,04003
1025,79;  946,115;  101,175; 3110,752;28,07504
1026,34;  916,915;   83,475; 3044,653;28,14556
1026,89;  915,415;  102,175; 3039,052;27,69063
1027,44;  896,615;   95,875; 2952,952;28,02654
1027,99;  871,915;   93,475; 2944,552;27,30336
1028,53;  858,915;   89,675; 2900,052;27,37141
1029,08;  841,215;  114,775; 2876,653;26,30240
1029,63;  851,215;  114,875; 2854,952;26,87296
1030,18;  819,715;   92,075; 2788,552;26,98484
1030,73;  787,315;   91,175; 2739,552;26,28553
1031,27;  769,715;   85,875; 2715,252;26,00768
1031,82;  762,315;   81,875; 2686,452;26,12478
1032,37;  746,115;   98,875; 2688,853;24,99018
1032,92;  741,615;  100,575; 2675,452;24,89594
1033,46;  731,815;   99,775; 2599,252;25,28689
1034,01;  700,915;   78,375; 2582,952;24,85609
1034,56;  720,115;   98,875; 2559,252;25,24978
1035,11;  698,715;   92,375; 2523,552;24,94018
1035,65;  668,015;   87,575; 2478,052;24,28134
1036,20;  674,015;   99,375; 2454,452;24,40005
1036,75;  692,815;  118,675; 2446,353;24,66579
1037,29;  652,715;   90,275; 2398,252;24,36939
1037,84;  626,615;   78,375; 2347,252;24,16349
1038,39;  655,315;   91,075; 2329,952;25,20192
1038,94;  607,815;   73,075; 2277,153;24,26140
1039,48;  624,715;   83,575; 2278,552;24,65356
1040,03;  628,415;  102,875; 2245,252;24,53069
1040,58;  596,715;  101,175; 2194,552;23,67179
1041,12;  595,415;   91,375; 2191,653;23,99873
1041,67;  584,715;  101,075; 2166,752;23,41314
1042,22;  577,215;  118,475; 2145,252;22,63396
1042,76;  569,315;   99,275; 2118,452;23,27879
1043,31;  555,715;   90,675; 2060,653;23,60636
1043,86;  544,815;   98,875; 2044,252;22,92306
1044,40;  544,615;   92,975; 2018,052;23,46087
1044,95;  519,515;   94,175; 1988,552;22,45276
1045,50;  493,915;   75,375; 1934,353;22,51453
1046,04;  524,215;  114,375; 1930,453;22,56732
1046,59;  489,915;   96,175; 1878,353;22,09320
1047,13;  497,715;  121,075; 1879,453;21,41975
1047,68;  496,715;  115,675; 1860,052;21,84390
1048,23;  489,315;  118,775; 1866,752;21,19821
1048,77;  453,315;   90,175; 1784,953;21,42700
1049,32;  461,515;  104,175; 1785,953;21,24776
1049,86;  453,215;   92,675; 1760,552;21,61670
1050,41;  447,315;   82,475; 1735,552;22,07035
1050,96;  436,315;  100,875; 1698,652;20,99416
1051,50;  433,515;  101,675; 1663,252;21,25031
1052,05;  434,315;   94,675; 1664,052;21,64170
1052,59;  404,115;   82,975; 1624,152;20,83731
1053,14;  398,715;   84,475; 1582,652;20,97482
1053,69;  399,115;   98,475; 1571,453;20,41036
1054,23;  411,715;  104,575; 1569,052;20,97267
1054,78;  397,515;  100,775; 1550,152;20,47362
1055,32;  400,815;  123,075; 1550,453;19,45806
1055,87;  367,215;   68,875; 1491,752;20,96737
1056,41;  362,315;   78,775; 1469,552;20,38716
1056,96;  377,815;   96,775; 1451,052;20,75202
1057,50;  388,115;  113,375; 1470,853;20,23901
1058,05;  336,015;   82,075; 1401,953;19,23967
1058,59;  349,215;   95,875; 1396,552;19,47754
1059,14;  369,015;  103,575; 1370,453;20,95230
1059,68;  331,315;   75,975; 1329,353;20,37215
1060,23;  375,215;  126,875; 1383,752;19,75849
1060,77;  344,615;   97,375; 1317,052;20,27093
1061,32;  357,215;  108,575; 1320,652;20,51354
1061,86;  334,115;  111,175; 1289,752;18,91602
1062,41;  341,815;   93,975; 1242,953;21,57048
1062,95;  327,215;  109,575; 1230,853;19,41000
1063,50;  332,115;  111,075; 1230,052;19,75375
1064,04;  312,415;   90,475; 1197,453;20,04919
1064,59;  316,015;  114,775; 1210,052;18,37343
1065,13;  326,215;  103,475; 1170,552;20,87384
1065,68;  299,015;  107,275; 1161,353;18,19031
1066,22;  332,015;  115,875; 1166,453;20,57345
1066,76;  321,415;  130,175; 1145,252;18,83994
1067,31;  286,315;   99,875; 1110,552;18,44703
1067,85;  287,315;  100,975; 1090,252;18,83597
1068,40;  289,815;  110,275; 1095,353;18,22598
1068,94;  281,815;   99,175; 1079,353;18,63336
1069,49;  273,115;   98,175; 1041,652;18,54204
1070,03;  275,715;  111,175; 1034,353;17,82322
1070,57;  251,615;   88,775; 1012,852;17,62190
1071,12;  234,315;   75,875;  987,153;17,38658
1071,66;  313,715;  131,775; 1039,953;20,03353
1072,21;  261,615;  112,475; 1011,352;16,59180
1072,75;  255,215;  104,475;  978,552;17,24561
1073,29;  242,315;   77,075;  942,453;19,09456
1073,84;  261,515;   95,975;  941,153;19,58642
1074,38;  246,215;   93,875;  928,253;18,25792
1074,92;  250,815;  107,275;  940,153;17,23423
1075,47;  267,215;  112,775;  938,852;18,69558
1076,01;  264,215;  121,775;  926,253;17,70590
1076,56;  246,015;   97,275;  891,953;18,71703
1077,10;  224,315;   86,075;  865,253;17,74179
1077,64;  224,215;   97,875;  884,453;16,06199
1078,19;  269,815;  123,175;  887,753;19,17922
1078,73;  251,015;   98,775;  853,852;20,16217
1079,27;  260,915;  121,075;  875,552;18,53468
1079,81;  263,515;  121,375;  860,953;19,21908
1080,36;  246,815;  105,975;  836,052;19,29110
1080,90;  229,515;   96,375;  819,753;18,40533
1081,44;  210,615;   82,475;  789,552;18,12248
1081,99;  198,715;   70,375;  771,753;18,29828
1082,53;  245,415;  113,075;  798,653;19,30343
1083,07;  233,815;  104,175;  791,453;18,86283
1083,62;  233,415;  101,275;  772,552;19,68485
1084,16;  214,615;   98,975;  782,453;16,91936
1084,70;  234,715;  107,475;  767,153;19,28821
1085,24;  236,215;  108,775;  750,653;19,85425
1085,79;  223,715;  109,175;  747,552;17,94236
1086,33;  191,215;   99,075;  711,453;15,04627
1086,87;  217,115;  102,075;  714,852;18,77354
1087,41;  196,715;   84,475;  686,852;18,63283
1087,96;  230,015;  124,575;  732,552;17,34275
1088,50;  201,615;  112,075;  696,953;15,30919
1089,04;  220,715;  121,775;  715,153;16,67404
1089,58;  183,415;   82,375;  655,953;17,61575
1090,13;  196,615;  102,975;  653,153;17,01996
1090,67;  198,715;  101,775;  678,753;16,80135
1091,21;  196,515;   92,075;  651,852;18,65741
1091,75;  190,115;  106,875;  647,153;15,40690
1092,29;  213,615;  105,875;  642,552;20,07537
1092,84;  190,215;  105,975;  628,352;16,12627
1093,38;  220,715;  128,175;  662,753;17,31087
1093,92;  211,915;  113,475;  640,052;18,69430
1094,46;  212,915;  128,175;  638,852;16,59364
1095,00;  186,815;   93,975;  602,052;18,27280
1095,54;  183,315;   89,975;  591,352;18,61671
1096,09;  201,215;  114,975;  597,352;17,87811
1096,63;  202,515;  117,175;  598,453;17,73197
1097,17;  179,215;  102,575;  573,052;16,28983
1097,71;  201,715;  122,875;  582,453;17,15489
1098,25;  178,315;  103,275;  553,653;16,66158
1098,79;  195,315;  104,775;  568,753;19,51388
1099,33;  194,615;  111,975;  572,052;17,96219
1099,88;  187,815;  110,775;  562,253;17,06397
1100,42;  156,915;   83,275;  521,253;16,81365

