0093 ELITRO 
Integration time [ms]:   8,000
Averaging Nr. [scans]: 10
Smoothing Nr. [pixels]: 0
Data measured with spectrometer [name]: 7314920SP
Wave   ;Sample   ;Dark     ;Reference;Reflectance
[nm]   ;[counts] ;[counts] ;[counts] ;[%]

 199,42;  116,867;   63,873;  150,055;61,49053
 200,02;  122,223;   92,669;  145,732;55,69611
 200,62;   81,320;   67,563;   88,793;64,80017
 201,22;  110,177;   86,969;  138,011;45,46837
 201,82;  108,128;   66,174;  141,790;55,48297
 202,42;  127,272;  101,668;  154,973;48,03219
 203,03;   78,115;   60,168;   91,775;56,78228
 203,63;   95,410;   69,967;  109,037;65,12108
 204,23;  106,346;   70,671;  129,903;60,22946
 204,83;   93,607;   74,567;  123,718;38,73853
 205,43;   94,367;   56,673;  123,555;56,35858
 206,03;   78,056;   50,167;   90,459;69,21819
 206,63;   87,136;   68,865;  100,007;58,66914
 207,24;  124,839;   74,675;  162,566;57,07447
 207,84;   65,605;   39,967;   83,699;58,62493
 208,44;   84,877;   50,669;   95,011;77,14603
 209,04;   64,087;   47,365;   85,066;44,35365
 209,64;  117,059;   69,972;  127,998;81,14814
 210,24;   79,707;   45,367;   97,218;66,22883
 210,84;   80,728;   51,469;  101,970;57,93739
 211,44;  119,533;   86,470;  122,908;90,73825
 212,05;   75,887;   60,865;   99,266;39,11826
 212,65;  100,715;   66,368;  112,975;73,69517
 213,25;  121,772;   93,768;  142,073;57,97257
 213,85;  109,992;   84,465;  114,904;83,86167
 214,45;   73,507;   53,367;  100,418;42,80540
 215,05;   67,128;   39,369;  100,070;45,73064
 215,65;   78,779;   55,169;  105,630;46,78942
 216,25;   58,407;   40,267;   82,518;42,93476
 216,85;   56,325;   34,069;   89,651;40,04269
 217,45;   76,215;   49,068;   97,375;56,19719
 218,05;   89,387;   58,270;  112,886;56,97369
 218,66;   58,574;   28,769;   75,692;63,52012
 219,26;   67,810;   26,567;   79,337;78,15579
 219,86;   62,843;   36,771;   81,584;58,18098
 220,46;   83,736;   54,270;  104,127;59,10063
 221,06;   87,946;   51,871;  115,903;56,33920
 221,66;   80,400;   43,471;  103,481;61,53732
 222,26;   70,359;   39,772;  102,398;48,84052
 222,86;   92,769;   67,268;  118,954;49,33855
 223,46;   72,807;   51,767;   88,918;56,63463
 224,06;   96,895;   64,971;  120,343;57,65295
 224,66;   82,990;   57,570;  105,805;52,69874
 225,26;   77,582;   48,169;  113,748;44,85031
 225,86;   74,113;   42,173;  112,376;45,49638
 226,46;   86,820;   49,968;  102,913;69,60458
 227,06;   59,190;   27,670;   87,705;52,50143
 227,66;   68,041;   37,665;   74,845;81,69928
 228,27;   60,636;   29,270;   96,227;46,84471
 228,87;  113,738;   89,170;  143,046;45,60148
 229,47;   69,610;   29,172;   92,357;63,99915
 230,07;   37,682;   11,169;   59,648;54,68838
 230,67;   70,125;   38,169;   84,651;68,75019
 231,27;   53,936;   27,670;   76,327;53,98156
 231,87;   64,025;   43,169;  100,751;36,22059
 232,47;  105,536;   43,775;  132,047;69,96653
 233,07;   59,284;   42,965;   75,547;50,08683
 233,67;   87,415;   53,768;   94,275;83,06484
 234,27;   35,456;    0,567;   53,259;66,21383
 234,87;   78,343;   34,771;  106,084;61,10055
 235,47;   61,282;   16,169;   74,148;77,80813
 236,07;   69,097;   30,266;   72,042;92,95020
 236,67;   74,902;   49,966;   85,180;70,81271
 237,27;   64,969;   28,873;  109,074;45,00710
 237,87;   55,490;   25,370;   99,805;40,46383
 238,47;   55,223;   14,269;   68,032;76,17491
 239,07;   60,108;   33,272;   95,738;42,96002
 239,67;   94,203;   43,477;  131,421;57,67996
 240,27;   85,313;   46,773;  119,176;53,22953
 240,87;   98,321;   50,773;  119,533;69,14951
 241,47;   60,325;   39,164;   76,131;57,24412
 242,07;   60,218;   39,968;   92,894;38,26033
 242,67;   29,618;  -11,027;   77,914;45,69850
 243,27;   45,007;    7,767;   46,418;96,34999
 243,87;   83,995;   48,671;  108,343;59,19624
 244,47;   69,046;   22,371;   99,703;60,35680
 245,07;   37,028;    2,669;   55,770;64,70493
 245,67;   67,915;   31,068;   85,575;67,60075
 246,27;   65,336;   34,965;   69,007;89,21536
 246,87;   51,869;   26,668;   63,154;69,07097
 247,46;   27,420;   19,663;   23,793;187,82568
 248,06;   59,487;   20,470;   69,786;79,11560
 248,66;   68,659;   31,072;  105,898;50,23237
 249,26;   58,397;   32,366;   70,742;67,83139
 249,86;   71,813;   42,873;  102,176;48,79990
 250,46;   47,187;   16,775;   93,507;39,63440
 251,06;   45,415;   22,168;   65,375;53,80422
 251,66;   43,292;   20,771;   64,724;51,23923
 252,26;   45,300;   38,866;   70,261;20,49220
 252,86;   45,428;   35,969;   89,070;17,81312
 253,46;   17,507;   -8,033;   22,118;84,70785
 254,06;   74,846;   31,766;   79,483;90,28241
 254,66;   58,567;   34,973;  100,155;36,19661
 255,26;   84,764;   39,073;  118,836;57,28379
 255,86;   46,725;   37,464;   55,631;50,97957
 256,46;   43,833;   19,870;   70,208;47,60493
 257,05;   54,441;   23,570;   59,565;85,76436
 257,65;   70,143;   38,071;   97,684;53,80145
 258,25;   69,710;   37,372;  101,457;50,46087
 258,85;   39,728;   15,669;   51,770;66,64349
 259,45;   26,225;    6,869;   42,951;53,64585
 260,05;   51,607;   46,667;   85,818;12,61893
 260,65;   63,000;   45,066;   83,561;46,58657
 261,25;   65,195;   29,371;   85,943;63,32384
 261,85;   20,049;   -0,129;   47,622;42,25574
 262,45;   67,528;   46,169;  109,270;33,84883
 263,04;   89,215;   53,073;  116,295;57,16717
 263,64;   58,361;   33,767;   77,097;56,76050
 264,24;   73,697;   37,671;   89,062;70,10183
 264,84;   96,026;   58,974;  138,671;46,49054
 265,44;   50,664;   26,368;   67,716;58,76034
 266,04;   69,143;   48,865;   71,464;89,73132
 266,64;   61,402;   39,866;   86,780;45,90515
 267,24;   45,302;   40,166;   68,980;17,82429
 267,84;   56,972;   24,668;   76,573;62,23616
 268,43;   77,566;   48,368;   95,935;61,38438
 269,03;   64,974;   46,969;   87,892;43,99854
 269,63;   81,248;   58,566;   92,402;67,03677
 270,23;   26,741;   10,765;   39,045;56,49113
 270,83;   72,600;   55,266;   83,161;62,13831
 271,43;   43,413;   23,967;   58,856;55,73467
 272,03;   75,464;   64,168;   99,116;32,32297
 272,62;   52,079;   23,269;   68,730;63,37415
 273,22;   50,638;   11,970;   61,046;78,79271
 273,82;   22,294;   17,460;   26,403;54,05410
 274,42;   28,776;   25,164;   46,890;16,62829
 275,02;   48,833;   34,864;   60,388;54,72826
 275,62;   80,710;   31,972;  100,457;71,16576
 276,21;   52,884;   22,770;   69,267;64,76596
 276,81;   58,105;   46,767;   71,099;46,59674
 277,41;   63,151;   22,971;   96,341;54,76359
 278,01;   33,433;   21,364;   42,788;56,33330
 278,61;   72,777;   38,869;   83,811;75,44854
 279,20;   92,013;   65,473;  119,076;49,51179
 279,80;    3,856;    6,762;   11,539;-60,82673
 280,40;   56,297;   36,866;   79,742;45,31920
 281,00;   12,877;   -4,331;   33,311;45,71480
 281,60;   65,074;   20,774;   74,812;81,98053
 282,20;   60,233;   36,670;   70,108;70,46857
 282,79;   50,966;   29,568;   70,135;52,74900
 283,39;   34,648;   17,466;   44,702;63,08764
 283,99;   29,084;   23,165;   34,347;52,93566
 284,59;   37,131;   16,869;   45,289;71,29303
 285,19;   38,956;   27,067;   57,759;38,73767
 285,78;   46,333;   23,270;   63,808;56,89312
 286,38;   55,536;   39,665;   59,207;81,21332
 286,98;   55,566;   35,168;   73,535;53,16727
 287,58;   25,946;    4,771;   61,403;37,39071
 288,17;   53,464;    8,973;   80,336;62,34502
 288,77;   69,044;   19,976;   92,504;67,65343
 289,37;   39,828;   11,269;   57,670;61,54816
 289,97;   47,884;   48,965;   66,647;-6,10934
 290,57;   58,654;   46,672;   93,260;25,71905
 291,16;   86,064;   63,868;  102,616;57,28354
 291,76;   33,438;    5,570;   47,346;66,70886
 292,36;   47,310;   34,367;   58,137;54,45015
 292,96;   26,261;   -3,127;   60,117;46,46896
 293,55;   48,005;   24,267;   65,399;57,71141
 294,15;   48,384;   26,870;   62,567;60,26910
 294,75;   49,636;   42,065;   66,207;31,35946
 295,35;   33,364;   21,068;   52,016;39,73190
 295,94;   58,354;   42,967;   66,740;64,72423
 296,54;   41,720;   30,768;   70,613;27,48667
 297,14;   51,100;   29,971;   76,881;45,04060
 297,73;   17,089;   12,165;   40,085;17,63708
 298,33;   53,946;   28,066;   57,583;87,67847
 298,93;   63,369;   41,968;   82,554;52,73036
 299,53;   50,156;   24,872;   69,079;57,19555
 300,12;   30,700;  -12,229;   59,481;59,86409
 300,72;   63,861;   41,567;   91,197;44,92090
 301,32;   57,843;   25,771;   99,584;43,45126
 301,92;   28,628;    3,664;   33,050;84,95167
 302,51;   28,059;   11,567;   49,978;42,93508
 303,11;   35,556;   14,667;   48,759;61,27357
 303,71;   52,023;   21,369;   82,132;50,44855
 304,30;   30,695;    5,466;   38,423;76,54948
 304,90;   34,946;   19,666;   44,283;62,07119
 305,50;   45,141;   18,565;   64,345;58,05089
 306,09;   42,697;   15,466;   49,042;81,10234
 306,69;   62,097;   34,171;   90,262;49,78711
 307,29;   18,543;   18,760;   33,144;-1,51023
 307,88;   62,331;   43,269;   72,489;65,23428
 308,48;   42,136;    0,070;   49,727;84,71269
 309,08;   10,617;   -4,437;   11,774;92,86611
 309,68;   37,589;   22,365;   39,585;88,40936
 310,27;   41,579;   20,169;   49,830;72,18430
 310,87;   39,620;   23,468;   54,813;51,53010
 311,47;   65,007;   54,967;   92,918;26,45624
 312,06;   53,538;   47,865;   68,426;27,59200
 312,66;   72,864;   51,168;  100,016;44,41580
 313,26;   66,592;   48,571;   96,224;37,81776
 313,85;   71,956;   38,267;   65,959;121,65771
 314,45;   59,377;   42,969;   86,611;37,59665
 315,04;   65,438;   52,165;   81,826;44,74970
 315,64;   29,661;   21,267;   47,897;31,52140
 316,24;   72,536;   40,770;   85,627;70,81569
 316,83;   52,997;   40,366;   76,742;34,72372
 317,43;   53,413;   35,167;   68,156;55,30712
 318,03;   51,623;   39,063;   70,012;40,58119
 318,62;   86,853;   73,061;   94,820;63,38745
 319,22;   48,472;    7,668;   66,973;68,80319
 319,82;   71,764;   40,768;   93,516;58,76283
 320,41;   88,523;   59,069;   98,732;74,26046
 321,01;  110,441;   80,465;  115,945;84,48649
 321,60;   87,676;   81,164;  102,790;30,11456
 322,20;  108,667;   67,673;  132,855;62,89125
 322,80;   77,861;   54,567;   91,797;62,56881
 323,39;   59,082;   65,764;   94,828;-22,99264
 323,99;   81,200;   61,766;  102,661;47,52049
 324,59;   79,123;   73,063;   97,512;24,78387
 325,18;   70,259;   40,967;   92,178;57,19836
 325,78;   89,189;   76,365;  108,885;39,43486
 326,37;   88,115;   74,868;  108,075;39,89292
 326,97;   90,261;   63,267;  111,497;55,96997
 327,57;   48,920;   42,263;   76,493;19,44793
 328,16;   81,125;   60,864;   93,631;61,83483
 328,76;   78,354;   50,467;  110,140;46,73291
 329,35;   93,243;   56,871;  137,484;45,12011
 329,95;   76,833;   27,470;   91,308;77,32582
 330,54;   80,307;   52,167;   94,018;67,23926
 331,14;   67,105;   26,967;   82,599;72,14874
 331,74;   82,141;   54,165;   96,145;66,64061
 332,33;   66,036;   35,370;  108,127;42,14828
 332,93;   59,528;   43,764;   79,250;44,42291
 333,52;   74,548;   42,466;   93,102;63,35917
 334,12;   95,674;   72,069;  140,392;34,54987
 334,71;   65,997;   50,666;   87,942;41,12855
 335,31;   94,156;   63,267;  119,859;54,58260
 335,90;   39,812;   32,362;   53,836;34,69390
 336,50;   42,736;   30,665;   77,207;25,93530
 337,10;   75,279;   38,769;  121,530;44,11545
 337,69;   67,736;   51,765;   93,707;38,07828
 338,29;   70,010;   30,467;  101,037;56,03344
 338,88;   50,469;   22,468;   99,854;36,18362
 339,48;   74,861;   57,862;  111,677;31,58807
 340,07;   74,451;   48,566;  107,321;44,05573
 340,67;   60,343;   31,171;  124,784;31,16309
 341,26;   74,397;   48,466;   98,942;51,37300
 341,86;  106,782;   61,469;  138,348;58,93987
 342,45;   84,731;   45,669;  142,689;40,26116
 343,05;   79,131;   27,269;  115,689;58,65352
 343,64;   76,802;   47,366;  122,480;39,18834
 344,24;   52,536;   28,765;   92,107;37,52769
 344,83;   85,484;   71,365;  121,747;28,02483
 345,43;   61,854;   29,667;  114,240;38,05818
 346,02;   70,425;   41,469;  124,351;34,93707
 346,62;   98,292;   40,971;  140,424;57,63639
 347,21;   79,389;   42,165;  131,985;41,44313
 347,81;   73,754;   26,172;  140,560;41,59700
 348,40;   51,025;   29,064;  100,731;30,64385
 349,00;   68,023;   49,163;  137,712;21,29826
 349,59;  105,838;   65,870;  177,846;35,69357
 350,19;   75,592;   32,571;  139,424;40,26211
 350,78;   74,956;   55,467;  140,759;22,85014
 351,38;   52,625;   15,869;  140,951;29,38597
 351,97;   63,454;   26,767;  136,040;33,57367
 352,57;   77,636;   42,570;  155,827;30,96129
 353,16;   52,982;   30,564;  134,328;21,60419
 353,76;   87,738;   38,770;  169,846;37,35866
 354,35;   69,682;   27,669;  160,148;31,71249
 354,95;   86,184;   43,970;  182,067;30,56871
 355,54;   82,472;   38,368;  163,973;35,11282
 356,14;   70,782;   40,069;  164,749;24,63317
 356,73;   63,761;   29,162;  145,176;29,82296
 357,32;   68,823;   13,769;  164,432;36,54124
 357,92;   76,105;   17,772;  181,419;35,64563
 358,51;  105,356;   43,372;  214,179;36,28914
 359,11;   84,754;   36,772;  212,360;27,32646
 359,70;   71,641;   28,470;  189,965;26,73185
 360,30;   88,656;   54,562;  188,039;25,54322
 360,89;   69,269;   31,168;  188,054;24,28578
 361,48;  106,484;   55,570;  216,467;31,64414
 362,08;   78,313;   19,867;  187,156;34,93667
 362,67;   71,620;   39,763;  192,693;20,83112
 363,27;  104,759;   60,767;  247,678;23,53618
 363,86;   87,141;   35,765;  215,745;28,54516
 364,46;  121,225;   44,664;  257,231;36,01758
 365,05;  127,879;   64,659;  254,989;33,21595
 365,64;  129,338;   50,960;  269,706;35,83068
 366,24;  141,671;   38,558;  309,432;38,06679
 366,83;  160,194;   43,255;  335,383;40,03005
 367,43;  168,494;   51,545;  352,843;38,81503
 368,02;  195,009;   34,646;  399,757;43,92173
 368,61;  225,237;   62,239;  475,425;39,44907
 369,21;  209,500;   32,419;  445,299;42,88922
 369,80;  237,828;   43,007;  526,947;40,25724
 370,39;  302,818;   62,006;  604,971;44,35122
 370,99;  294,404;   42,089;  615,416;44,00895
 371,58;  303,860;   22,974;  630,953;46,19994
 372,18;  348,585;   37,166;  701,603;46,86965
 372,77;  320,677;   42,449;  679,385;43,68215
 373,36;  346,400;   42,747;  690,836;46,85357
 373,96;  332,943;   35,135;  639,498;49,27625
 374,55;  310,625;   29,844;  621,406;47,46439
 375,14;  297,525;   42,849;  573,826;47,96373
 375,74;  299,000;   69,157;  543,276;48,47790
 376,33;  239,970;   45,964;  464,589;46,34353
 376,92;  215,150;   33,278;  447,997;43,85419
 377,52;  301,846;   86,103;  548,460;46,66145
 378,11;  243,438;   46,703;  457,203;47,92573
 378,71;  284,372;   73,011;  514,270;47,89942
 379,30;  296,277;   59,517;  553,928;47,88728
 379,89;  320,090;   59,813;  556,103;52,44448
 380,49;  304,285;   31,018;  568,185;50,87185
 381,08;  330,620;   70,306;  570,990;51,99167
 381,67;  335,489;   55,008;  555,483;56,04308
 382,26;  308,120;   41,706;  539,390;53,53075
 382,86;  307,943;   54,003;  516,041;54,96085
 383,45;  342,833;   50,412;  562,105;57,14771
 384,04;  331,331;   38,712;  553,886;56,79991
 384,64;  345,197;   49,014;  566,760;57,20634
 385,23;  345,323;   64,406;  560,509;56,62462
 385,82;  362,213;   59,615;  592,774;56,75564
 386,42;  409,244;   61,024;  659,022;58,23100
 387,01;  378,795;   55,414;  580,541;61,58150
 387,60;  404,097;   69,009;  590,140;64,30025
 388,20;  380,033;   37,712;  590,805;61,89209
 388,79;  448,739;   72,418;  665,563;63,44489
 389,38;  381,020;   32,106;  564,890;65,48882
 389,97;  432,310;   45,415;  640,955;64,96547
 390,57;  466,951;   71,114;  654,038;67,90541
 391,16;  460,651;   62,514;  655,838;67,10279
 391,75;  445,841;   52,713;  638,562;67,10392
 392,34;  506,513;   60,821;  696,694;70,09140
 392,94;  488,841;   44,718;  689,683;68,86007
 393,53;  485,518;   41,016;  666,612;71,05260
 394,12;  543,785;   53,023;  719,105;73,67889
 394,72;  527,892;   54,213;  706,122;72,66033
 395,31;  534,913;   42,115;  694,874;75,49463
 395,90;  547,795;   42,924;  732,881;73,17430
 396,49;  614,780;   58,028;  779,187;77,20237
 397,09;  578,128;   47,417;  749,188;75,62461
 397,68;  626,300;   44,025;  800,719;76,94992
 398,27;  639,818;   54,626;  809,652;77,50626
 398,86;  649,606;   43,125;  807,657;79,32703
 399,45;  684,257;   56,630;  844,037;79,70811
 400,05;  640,703;   23,820;  799,518;79,52617
 400,64;  679,844;   56,419;  831,001;80,48527
 401,23;  706,508;   53,920;  859,956;80,96264
 401,82;  740,108;   67,220;  868,256;84,00221
 402,42;  739,364;   62,921;  873,953;83,40523
 403,01;  766,800;   81,525;  912,919;82,42487
 403,60;  782,367;   68,532;  940,513;81,86369
 404,19;  803,698;   76,024;  931,900;85,02093
 404,78;  798,475;   57,522;  909,929;86,92473
 405,38;  825,824;   68,332;  984,210;82,70662
 405,97;  816,616;   63,226;  953,933;84,58336
 406,56;  876,134;   71,528; 1004,366;86,25357
 407,15;  855,344;   68,829;  989,442;85,43388
 407,74;  897,503;   80,730; 1026,758;86,33708
 408,34;  893,026;   50,933; 1018,629;87,02045
 408,93;  930,114;   59,531; 1016,234;90,99819
 409,52;  924,801;   51,435; 1041,359;88,22551
 410,11;  952,416;   84,931; 1090,453;86,27211
 410,70;  932,972;   54,727; 1027,230;90,30769
 411,29;  951,931;   58,628; 1030,847;91,88294
 411,89;  990,555;   60,535; 1093,938;89,99586
 412,48;  973,783;   48,228; 1051,606;92,24383
 413,07; 1005,085;   65,033; 1101,446;90,70253
 413,66; 1034,952;   78,135; 1102,119;93,44064
 414,25; 1029,821;   63,337; 1142,311;89,57438
 414,84; 1054,714;   69,431; 1102,434;95,38039
 415,44; 1065,301;   91,530; 1155,939;91,48462
 416,03; 1069,216;   76,637; 1161,173;91,52109
 416,62; 1082,532;   76,138; 1168,687;92,11428
 417,21; 1084,242;   75,334; 1158,843;93,11486
 417,80; 1096,773;   65,037; 1162,871;93,97923
 418,39; 1110,247;   78,440; 1179,201;93,73581
 418,98; 1072,437;   55,634; 1143,405;93,47581
 419,58; 1084,532;   64,033; 1142,067;94,66293
 420,17; 1089,198;   52,735; 1164,540;93,22345
 420,76; 1129,616;   72,537; 1192,873;94,35376
 421,35; 1087,406;   60,236; 1155,197;93,80880
 421,94; 1134,447;   88,340; 1223,501;92,15496
 422,53; 1089,150;   61,540; 1195,320;90,63573
 423,12; 1117,386;   64,039; 1190,766;93,48733
 423,71; 1101,055;   60,835; 1162,138;94,45356
 424,30; 1132,162;   85,236; 1210,695;93,02219
 424,90; 1085,278;   39,438; 1163,809;93,01559
 425,49; 1137,396;   70,140; 1216,242;93,12054
 426,08; 1145,996;   80,240; 1209,641;94,36467
 426,67; 1107,957;   57,436; 1168,257;94,57162
 427,26; 1117,173;   60,343; 1230,391;90,32366
 427,85; 1110,029;   63,238; 1209,968;91,28488
 428,44; 1127,417;   68,442; 1218,093;92,11266
 429,03; 1151,811;   85,341; 1233,155;92,91314
 429,62; 1112,460;   78,941; 1240,296;88,99253
 430,21; 1131,532;   81,443; 1277,807;87,77335
 430,80; 1119,399;   70,445; 1235,381;90,04393
 431,39; 1104,835;   53,344; 1246,926;88,09536
 431,99; 1094,755;   78,535; 1206,838;90,06623
 432,58; 1091,186;   82,639; 1251,166;86,30926
 433,17; 1118,152;   69,735; 1238,319;89,71690
 433,76; 1139,017;   71,347; 1288,314;87,73206
 434,35; 1146,096;   88,245; 1292,462;87,84559
 434,94; 1143,384;   70,849; 1318,887;85,93766
 435,53; 1119,227;   78,643; 1278,669;86,71342
 436,12; 1115,683;   70,044; 1294,267;85,41251
 436,71; 1158,952;   87,740; 1303,239;88,12943
 437,30; 1131,958;   76,941; 1299,177;86,31856
 437,89; 1149,345;   76,245; 1320,802;86,22343
 438,48; 1153,722;   65,942; 1305,731;87,73907
 439,07; 1171,383;   95,238; 1347,147;85,96035
 439,66; 1206,573;   83,648; 1375,711;86,90949
 440,25; 1199,183;   85,844; 1390,567;85,33149
 440,84; 1224,440;   79,850; 1387,984;87,49789
 441,43; 1242,538;   78,054; 1440,985;85,43962
 442,02; 1250,245;   79,650; 1411,022;87,92395
 442,61; 1278,335;   93,344; 1397,226;90,88172
 443,20; 1301,189;   94,249; 1446,625;89,24587
 443,79; 1305,809;   74,546; 1412,957;91,99442
 444,38; 1323,227;   84,248; 1461,789;89,94133
 444,97; 1339,353;   84,146; 1466,359;90,81137
 445,56; 1396,106;  101,846; 1477,038;94,11492
 446,15; 1418,704;   81,651; 1522,539;92,79370
 446,74; 1381,586;   58,644; 1462,286;94,25068
 447,33; 1453,409;   82,646; 1538,357;94,16453
 447,92; 1496,602;   78,151; 1570,720;95,03419
 448,51; 1502,304;   89,746; 1586,019;94,40512
 449,10; 1547,650;   92,045; 1608,840;95,96582
 449,69; 1566,648;   73,950; 1627,741;96,06809
 450,28; 1595,922;   66,948; 1608,251;99,20006
 450,87; 1629,119;   78,647; 1656,333;98,27512
 451,46; 1664,730;   96,048; 1702,208;97,66655
 452,05; 1706,940;   70,950; 1715,384;99,48648
 452,64; 1719,296;   70,850; 1725,182;99,64424
 453,23; 1812,961;  113,752; 1794,936;101,07213
 453,82; 1810,150;   83,451; 1800,660;100,55264
 454,40; 1831,996;   65,450; 1786,682;102,63268
 454,99; 1921,325;  101,253; 1871,891;102,79188
 455,58; 1906,814;   69,747; 1832,095;104,23978
 456,17; 1958,617;   63,852; 1873,634;104,69578
 456,76; 1984,602;   67,751; 1918,820;103,55372
 457,35; 2039,227;   78,348; 1930,490;105,87091
 457,94; 2087,330;   66,954; 1978,929;105,66960
 458,53; 2120,499;   67,350; 2010,101;105,68257
 459,12; 2166,612;   82,657; 2111,116;102,73587
 459,71; 2173,425;   58,148; 2060,071;105,66226
 460,30; 2203,273;   84,448; 2087,511;105,77926
 460,89; 2223,202;   57,551; 2129,920;104,50122
 461,48; 2299,930;   75,954; 2173,829;106,01091
 462,06; 2258,042;   68,050; 2187,303;103,33792
 462,65; 2278,232;   48,249; 2176,527;104,77874
 463,24; 2380,851;   87,456; 2288,680;104,18722
 463,83; 2340,742;   54,450; 2229,803;105,09981
 464,42; 2413,083;   88,349; 2333,687;103,53606
 465,01; 2411,697;   73,050; 2336,482;103,32303
 465,60; 2431,445;   64,050; 2384,322;102,03092
 466,19; 2493,930;   73,354; 2462,829;101,30160
 466,77; 2464,704;   81,551; 2462,939;100,07413
 467,36; 2495,461;   69,457; 2459,256;101,51495
 467,95; 2487,355;   79,551; 2466,098;100,89070
 468,54; 2539,835;   71,954; 2513,866;101,06345
 469,13; 2511,709;   69,452; 2535,977;99,01612
 469,72; 2514,043;   67,555; 2582,723;97,26934
 470,31; 2560,845;   87,855; 2629,242;97,30868
 470,90; 2535,991;   76,750; 2652,044;95,49361
 471,48; 2531,263;   32,057; 2671,875;94,67343
 472,07; 2593,166;  125,747; 2686,454;96,35692
 472,66; 2598,071;   67,853; 2748,412;94,39142
 473,25; 2555,704;   68,351; 2723,339;93,68604
 473,84; 2558,089;   55,955; 2766,545;92,30957
 474,43; 2600,830;   55,459; 2843,049;91,31082
 475,01; 2641,786;   69,254; 2885,926;91,33234
 475,60; 2591,991;   49,755; 2882,364;89,74894
 476,19; 2678,071;   74,158; 2956,932;90,32663
 476,78; 2672,461;   71,057; 2964,456;89,90822
 477,37; 2709,392;   59,355; 2945,364;91,82357
 477,95; 2742,648;   75,656; 3018,661;90,62138
 478,54; 2731,125;   63,253; 3023,691;90,11748
 479,13; 2771,125;   56,253; 3070,291;90,07425
 479,72; 2826,333;   81,154; 3090,147;91,23245
 480,31; 2885,233;   63,459; 3167,468;90,90740
 480,89; 2867,786;   60,254; 3171,026;90,25194
 481,48; 2888,292;   46,260; 3214,084;89,71558
 482,07; 2952,835;   61,654; 3233,866;91,14084
 482,66; 2955,776;   52,853; 3253,650;90,69375
 483,25; 3068,592;   78,960; 3319,884;92,24628
 483,83; 3062,438;   59,954; 3325,385;91,94753
 484,42; 3089,930;   54,354; 3355,129;91,96556
 485,01; 3185,969;   65,958; 3400,413;93,56882
 485,60; 3237,477;   73,764; 3490,590;92,59214
 486,18; 3272,848;   66,956; 3490,761;93,63534
 486,77; 3294,961;   67,252; 3519,736;93,48945
 487,36; 3380,428;   58,464; 3561,750;94,82422
 487,95; 3398,048;   59,161; 3640,781;93,22281
 488,53; 3416,797;   54,461; 3642,522;93,70899
 489,12; 3474,571;   50,563; 3722,252;93,25430
 489,71; 3426,759;   38,062; 3680,357;93,03739
 490,30; 3520,094;   61,460; 3742,503;93,95799
 490,88; 3527,399;   87,561; 3859,141;91,20417
 491,47; 3525,123;   60,663; 3867,512;91,00596
 492,06; 3541,566;   62,563; 3920,615;90,17514
 492,65; 3540,102;   59,161; 3947,060;89,53270
 493,23; 3572,541;   54,860; 3982,825;89,55479
 493,82; 3545,073;   65,853; 4018,031;88,03299
 494,41; 3518,905;   51,361; 4066,179;86,36864
 494,99; 3547,789;   73,655; 4126,945;85,71146
 495,58; 3567,894;   86,060; 4224,403;84,13594
 496,17; 3508,250;   56,356; 4198,681;83,33230
 496,76; 3499,948;   65,356; 4276,761;81,55454
 497,34; 3471,515;   54,557; 4305,235;80,38618
 497,93; 3498,763;   66,057; 4350,675;80,11697
 498,52; 3496,035;   60,059; 4454,387;78,19117
 499,10; 3490,710;   75,862; 4533,217;76,61153
 499,69; 3438,338;   55,360; 4537,006;75,48517
 500,28; 3405,333;   37,959; 4592,068;73,94144
 500,86; 3402,556;   62,862; 4698,539;72,04329
 501,45; 3381,356;   53,462; 4730,438;71,15482
 502,04; 3360,458;   53,362; 4813,958;69,46813
 502,62; 3380,250;   70,956; 4856,181;69,15651
 503,21; 3339,253;   57,856; 4939,699;67,21636
 503,80; 3338,061;   69,662; 5015,577;66,08280
 504,38; 3332,740;   58,460; 5081,425;65,18621
 504,97; 3314,561;   49,962; 5122,776;64,35479
 505,56; 3305,279;   70,859; 5194,989;63,12134
 506,14; 3334,379;   64,064; 5263,709;62,89496
 506,73; 3264,736;   23,565; 5292,507;61,51464
 507,32; 3330,041;   62,865; 5376,045;61,49191
 507,90; 3340,892;   70,860; 5443,284;60,86697
 508,49; 3339,387;   58,865; 5500,366;60,28707
 509,08; 3378,225;   67,264; 5571,931;60,14826
 509,66; 3373,843;   69,960; 5677,644;58,91707
 510,25; 3378,351;   63,561; 5737,400;58,42234
 510,83; 3416,936;   45,165; 5855,607;58,02950
 511,42; 3452,920;   61,968; 5895,913;58,12451
 512,01; 3474,382;   59,164; 5980,328;57,67814
 512,59; 3515,361;   46,562; 6041,676;57,86043
 513,18; 3523,104;   59,961; 6114,379;57,20027
 513,77; 3551,909;   42,257; 6171,797;57,25801
 514,35; 3570,615;   37,763; 6190,255;57,42148
 514,94; 3659,010;   58,662; 6323,517;57,46897
 515,52; 3691,697;   48,166; 6358,342;57,74056
 516,11; 3798,684;   80,665; 6474,047;58,15419
 516,69; 3731,184;   41,959; 6446,727;57,60123
 517,28; 3819,620;   83,358; 6541,973;57,84928
 517,87; 3874,817;   45,558; 6604,054;58,38624
 518,45; 3915,922;   74,858; 6626,192;58,63026
 519,04; 3937,276;   54,258; 6707,970;58,35867
 519,62; 4003,366;   55,863; 6774,114;58,75790
 520,21; 4047,348;   24,466; 6828,002;59,12929
 520,79; 4164,715;   52,068; 7000,875;59,18494
 521,38; 4201,146;   52,960; 6995,363;59,75144
 521,97; 4280,269;   43,068; 7141,554;59,69162
 522,55; 4368,728;   67,759; 7195,230;60,34355
 523,14; 4423,879;   26,759; 7180,289;61,46783
 523,72; 4567,697;   77,561; 7383,422;61,45937
 524,31; 4650,136;   71,665; 7406,107;62,42426
 524,89; 4757,464;   48,468; 7526,815;62,96840
 525,48; 4797,202;   21,666; 7603,580;62,98589
 526,06; 4891,382;   56,264; 7633,128;63,81423
 526,65; 4994,490;   72,370; 7803,105;63,66949
 527,23; 5054,364;   46,262; 7840,596;64,25311
 527,82; 5136,559;   37,967; 7905,978;64,80153
 528,41; 5238,051;   67,366; 8041,021;64,84711
 528,99; 5325,687;   66,365; 8108,167;65,39980
 529,58; 5343,813;   42,562; 8168,736;65,23673
 530,16; 5457,504;   49,461; 8315,379;65,42580
 530,75; 5565,130;   73,964; 8417,069;65,81682
 531,33; 5633,802;   45,566; 8440,980;66,56296
 531,92; 5675,843;   48,560; 8567,344;66,05735
 532,50; 5833,285;   87,770; 8706,468;66,66337
 533,09; 5841,192;   65,665; 8807,204;66,06991
 533,67; 5909,025;   63,458; 8952,011;65,76511
 534,26; 6046,489;   65,760; 9007,665;66,88429
 534,84; 6085,702;   68,461; 9127,061;66,42573
 535,42; 6166,030;   61,564; 9205,969;66,75630
 536,01; 6266,166;   79,263; 9330,215;66,87856
 536,59; 6271,548;   43,366; 9482,202;65,98464
 537,18; 6357,738;   77,360; 9568,605;66,17022
 537,76; 6410,203;   56,972; 9764,700;65,44508
 538,35; 6510,318;   59,368; 9892,694;65,60293
 538,93; 6620,182;   72,664; 9941,828;66,34318
 539,52; 6652,089;   57,370;10111,405;65,59276
 540,10; 6758,579;   63,269;10309,029;65,34713
 540,69; 6804,974;   68,763;10444,071;64,92541
 541,27; 6900,610;   58,262;10514,917;65,43534
 541,85; 6976,946;   47,366;10658,783;65,30306
 542,44; 7067,092;   56,460;10765,484;65,46471
 543,02; 7141,979;   80,369;10952,729;64,95011
 543,61; 7235,907;   77,067;11102,218;64,93190
 544,19; 7291,095;   55,066;11264,023;64,55577
 544,78; 7300,100;   62,766;11296,562;64,42465
 545,36; 7457,977;   77,469;11521,011;64,49496
 545,94; 7490,730;   54,564;11563,069;64,61453
 546,53; 7501,400;   52,771;11724,882;63,81561
 547,11; 7615,771;   90,668;11879,873;63,83046
 547,70; 7616,738;   75,860;11954,706;63,48157
 548,28; 7691,987;   47,965;12093,066;63,46166
 548,86; 7750,787;   81,365;12327,767;62,62592
 549,45; 7812,669;   33,768;12364,953;63,08316
 550,03; 7881,310;   76,467;12507,537;62,78496
 550,62; 7976,197;   63,566;12662,842;62,80227
 551,20; 8135,208;   61,467;12808,418;63,33860
 551,78; 8134,128;   61,164;12952,850;62,62148
 552,37; 8218,730;   55,864;13112,469;62,51906
 552,95; 8289,884;   56,765;13214,547;62,57224
 553,54; 8385,836;   49,965;13393,207;62,47261
 554,12; 8468,262;   67,167;13498,797;62,54710
 554,70; 8573,472;   67,568;13736,973;62,22585
 555,29; 8642,090;   61,965;13856,285;62,20042
 555,87; 8760,188;   60,170;13987,786;62,46595
 556,45; 8793,559;   57,162;14154,058;61,97390
 557,04; 8858,205;   43,667;14376,600;61,49850
 557,62; 8971,005;   68,867;14525,499;61,57823
 558,20; 9093,852;   42,671;14799,940;61,33371
 558,79; 9192,515;  100,368;14905,875;61,41057
 559,37; 9241,707;   49,867;15000,418;61,48161
 559,95; 9334,074;   46,669;15169,691;61,41236
 560,54; 9457,620;   71,768;15324,613;61,53509
 561,12; 9540,600;   50,866;15485,562;61,48313
 561,70; 9569,325;   50,369;15679,551;60,90502
 562,29; 9770,918;   61,768;15810,994;61,64843
 562,87; 9768,669;   73,168;16023,953;60,78385
 563,45; 9919,069;   71,068;16194,754;61,07785
 564,04; 9945,464;   54,362;16227,195;61,15874
 564,62;10078,723;   37,769;16438,332;61,22323
 565,20;10124,355;   59,962;16715,838;60,42548
 565,78;10274,838;   70,765;16797,326;61,00520
 566,37;10337,346;   71,066;17011,283;60,60300
 566,95;10336,180;   52,969;17124,330;60,23662
 567,53;10457,358;   67,262;17308,857;60,26180
 568,12;10459,486;   62,265;17367,766;60,08044
 568,70;10659,533;   85,264;17565,889;60,49137
 569,28;10730,125;   61,069;17745,252;60,33107
 569,86;10746,056;   67,767;17910,758;59,84585
 570,45;10877,431;   78,569;18124,689;59,84035
 571,03;10911,007;   53,962;18259,898;59,63464
 571,61;11037,092;   46,571;18424,824;59,80177
 572,19;11022,418;   54,263;18395,773;59,79963
 572,78;11071,215;   70,668;18668,975;59,14811
 573,36;11244,030;   84,264;18797,668;59,63515
 573,94;11224,628;   44,064;18892,750;59,31747
 574,52;11359,433;   54,559;19030,768;59,57393
 575,11;11370,325;   37,264;19159,830;59,26538
 575,69;11509,702;   53,566;19268,680;59,62044
 576,27;11504,849;   47,161;19391,381;59,23055
 576,85;11610,630;   43,264;19549,668;59,30035
 577,44;11744,759;   30,262;19814,158;59,21228
 578,02;11724,136;   32,159;19753,887;59,28475
 578,60;11931,977;   50,464;20073,791;59,33835
 579,18;12009,472;   51,963;20160,752;59,46409
 579,76;12029,481;   40,264;20300,129;59,17718
 580,35;12143,133;   60,170;20436,707;59,29841
 580,93;12264,112;   59,667;20641,557;59,29701
 581,51;12308,484;   24,770;20697,168;59,42085
 582,09;12375,415;   58,663;20755,756;59,50958
 582,67;12482,607;   49,567;20971,318;59,42638
 583,26;12555,320;   28,568;21227,014;59,09279
 583,84;12633,279;   14,164;21413,709;58,96908
 584,42;12780,433;   48,064;21513,287;59,31626
 585,00;12869,902;   81,366;21772,180;58,95831
 585,58;12905,205;   25,167;21912,299;58,84754
 586,17;13013,797;   46,761;21948,521;59,20545
 586,75;12981,448;    6,666;22026,902;58,92208
 587,33;13127,759;   47,767;22191,678;59,06812
 587,91;13167,549;   74,866;22390,201;58,67124
 588,49;13158,958;   63,962;22349,758;58,75938
 589,07;13129,464;   45,468;22403,215;58,52108
 589,65;13072,354;   28,267;22444,439;58,19052
 590,24;13178,007;   42,562;22447,799;58,62667
 590,82;13096,202;   28,261;22484,160;58,19380
 591,40;13038,179;   41,464;22520,209;57,81780
 591,98;12979,484;   45,759;22558,227;57,45139
 592,56;13016,102;   61,161;22699,961;57,22450
 593,14;12939,184;   43,359;22728,928;56,84594
 593,72;12840,336;   29,765;22889,107;56,04086
 594,30;12838,235;   36,759;22797,486;56,24370
 594,89;12762,781;   41,364;22862,428;55,74419
 595,47;12780,497;   38,961;22922,623;55,67962
 596,05;12715,705;   30,267;23003,799;55,21762
 596,63;12651,005;   31,167;23056,199;54,80921
 597,21;12617,397;   36,766;23145,441;54,44116
 597,79;12536,953;   35,467;23166,039;54,04746
 598,37;12475,481;   36,669;23222,748;53,64776
 598,95;12395,648;   50,766;23305,301;53,08591
 599,53;12236,010;   46,757;23207,996;52,62781
 600,11;12277,884;   48,665;23341,947;52,50106
 600,70;12121,322;   57,363;23315,111;51,87071
 601,28;12093,779;   38,564;23424,809;51,54832
 601,86;11979,549;   61,766;23355,102;51,16392
 602,44;11832,402;   23,661;23449,660;50,40870
 603,02;11747,799;   38,656;23576,521;49,74598
 603,60;11803,171;   54,858;23663,232;49,76333
 604,18;11751,068;   69,263;23594,734;49,65599
 604,76;11651,915;   59,263;23642,154;49,15704
 605,34;11477,144;   27,565;23530,764;48,71498
 605,92;11396,653;   59,561;23453,719;48,46121
 606,50;11365,007;   17,662;23498,998;48,32495
 607,08;11357,002;   31,666;23394,881;48,47507
 607,66;11448,297;   39,266;23561,643;48,50288
 608,24;11466,056;   46,067;23522,059;48,64539
 608,82;11574,226;   26,164;23532,031;49,12842
 609,40;11562,051;   46,466;23471,021;49,16031
 609,98;11702,281;   18,864;23505,928;49,74405
 610,56;11749,245;   43,861;23497,662;49,90826
 611,14;11824,689;   30,765;23481,086;50,29323
 611,72;11896,587;   42,665;23572,467;50,37833
 612,30;11924,464;   24,962;23468,496;50,75814
 612,88;11926,527;   60,659;23517,730;50,58546
 613,46;11884,107;   21,862;23505,697;50,51239
 614,04;11856,371;   30,068;23461,873;50,47116
 614,62;11767,548;   41,561;23489,982;50,00758
 615,20;11686,563;   52,768;23402,416;49,82429
 615,78;11604,079;   25,569;23463,430;49,40088
 616,36;11514,928;   41,364;23400,150;49,11884
 616,94;11320,997;    7,666;23272,242;48,62900
 617,52;11148,112;   24,067;23373,656;47,64129
 618,10;11030,281;   63,559;23336,107;47,12300
 618,68;10886,346;   17,966;23253,184;46,77546
 619,26;10759,566;   39,268;23398,834;45,89254
 619,84;10528,769;   18,963;23277,133;45,18759
 620,42;10404,235;   31,165;23313,506;44,55338
 621,00;10262,436;   28,865;23209,607;44,14686
 621,58;10184,138;   38,760;23216,406;43,77225
 622,16;10140,940;   49,270;23335,164;43,33813
 622,74;10092,997;   47,066;23327,742;43,15137
 623,32;10116,494;   42,166;23291,223;43,33220
 623,90;10149,344;   66,971;23311,484;43,37528
 624,48;10076,507;   32,662;23196,598;43,35984
 625,05;10077,507;   34,562;23105,098;43,53148
 625,63;10107,907;   52,962;23188,799;43,46048
 626,21;10077,164;   38,262;23117,596;43,49736
 626,79;10207,407;   53,967;23219,719;43,82953
 627,37;10127,310;   28,162;23090,717;43,79024
 627,95;10107,864;   72,768;23200,215;43,39042
 628,53;10036,735;   49,365;23176,607;43,18444
 629,11; 9900,530;   48,259;23043,449;42,84492
 629,69; 9935,522;   53,369;23256,932;42,58895
 630,27; 9842,369;   80,763;23105,434;42,39629
 630,84; 9825,207;   43,862;23021,197;42,56954
 631,42; 9810,612;   54,367;23319,656;41,93477
 632,00; 9653,732;   45,459;23125,768;41,62974
 632,58; 9620,674;   50,263;23105,172;41,51138
 633,16; 9580,590;   49,870;23096,906;41,35334
 633,74; 9520,333;   56,264;23018,488;41,21582
 634,32; 9520,899;   45,661;23007,842;41,26454
 634,90; 9569,338;   51,970;23195,746;41,12280
 635,47; 9447,543;   38,860;23035,645;40,91304
 636,05; 9485,800;   37,461;22989,342;41,16586
 636,63; 9612,836;   45,965;23104,807;41,48895
 637,21; 9629,281;   67,464;23150,529;41,42352
 637,79; 9688,692;   71,465;23192,904;41,59441
 638,37; 9590,694;   54,055;23070,883;41,43333
 638,94; 9642,689;   33,265;23100,686;41,65799
 639,52; 9664,590;   41,665;23195,285;41,56121
 640,10; 9748,955;   64,264;23215,900;41,83156
 640,68; 9743,126;   54,164;23175,334;41,90515
 641,26; 9681,297;   35,864;23250,268;41,54935
 641,84; 9685,168;   39,164;23235,002;41,58506
 642,41; 9643,140;   28,264;23192,936;41,50663
 642,99; 9619,011;   48,464;23145,568;41,43613
 643,57; 9536,182;   22,064;23158,402;41,12197
 644,15; 9503,053;   27,064;23178,035;40,93128
 644,73; 9503,023;   37,564;23277,568;40,72916
 645,30; 9393,995;   55,264;23230,303;40,29651
 645,88; 9311,966;   44,964;23362,635;39,74240
 646,46; 9281,137;   59,264;23447,568;39,42942
 647,04; 9225,808;   51,864;23367,902;39,34606
 647,61; 9117,879;   46,564;23396,336;38,84969
 648,19; 9081,750;   61,664;23433,369;38,59404
 648,77; 9064,621;   26,264;23442,002;38,59950
 649,35; 9095,292;   51,064;23590,137;38,42219
 649,92; 9101,063;   42,464;23596,070;38,45950
 650,50; 9047,835;   30,064;23551,104;38,33917
 651,08; 9037,206;   39,964;23450,537;38,43239
 651,66; 9089,177;   21,864;23534,770;38,56313
 652,23; 9114,147;   39,064;23561,004;38,58136
 652,81; 9206,019;   36,464;23644,137;38,84142
 653,39; 9296,790;   56,164;23647,170;39,17012
 653,97; 9300,861;   37,065;23882,504;38,84934
 654,54; 9273,232;   23,565;23823,137;38,86485
 655,12; 9420,703;   30,965;23831,971;39,45102
 655,70; 9434,675;   42,065;23962,805;39,26555
 656,28; 9499,046;   32,765;23947,037;39,58423
 656,85; 9490,217;   44,065;24051,070;39,34748
 657,43; 9447,188;   -1,035;23831,305;39,64455
 658,01; 9532,459;   21,465;24078,539;39,53512
 658,58; 9579,830;   55,165;24234,371;39,39197
 659,16; 9459,101;   51,965;24154,105;39,03029
 659,74; 9415,472;   59,465;24338,039;38,53606
 660,32; 9459,443;   71,665;24327,672;38,70290
 660,89; 9370,414;   34,265;24347,305;38,39976
 661,47; 9465,686;   51,665;24464,939;38,56107
 662,05; 9398,956;   25,365;24587,373;38,16297
 662,62; 9438,728;   59,665;24584,006;38,24389
 663,20; 9467,698;   80,665;24740,139;38,06664
 663,78; 9591,869;   47,965;24902,773;38,39862
 664,35; 9567,141;   52,465;24921,006;38,25989
 664,93; 9698,812;   64,465;25123,539;38,44654
 665,51; 9698,183;   49,565;25170,973;38,40795
 666,08; 9835,854;   30,165;25185,707;38,98023
 666,66;10042,625;   47,465;25667,539;39,01300
 667,23;10212,796;   51,765;25732,773;39,56632
 667,81;10316,567;   65,865;25889,307;39,69534
 668,39;10423,738;   43,265;26047,141;39,91895
 668,96;10609,010;   54,665;26309,074;40,20027
 669,54;10762,980;   38,765;26408,408;40,66879
 670,12;10997,852;   51,165;26808,740;40,91061
 670,69;11144,822;   64,165;26950,674;41,21270
 671,27;11160,894;   25,565;27096,008;41,13464
 671,84;11199,265;   40,665;27105,240;41,22954
 672,42;11354,236;   66,265;27253,875;41,51881
 673,00;11493,507;   57,165;27531,408;41,62568
 673,57;11399,278;   59,965;27276,441;41,66341
 674,15;11474,449;   64,065;27613,475;41,41789
 674,72;11438,620;   58,565;27536,209;41,41569
 675,30;11402,691;   69,466;27513,541;41,29571
 675,88;11360,063;   36,266;27573,176;41,12225
 676,45;11441,233;   59,466;27677,309;41,21165
 677,03;11392,805;   67,866;27525,043;41,24582
 677,60;11385,976;   41,466;27770,576;40,91191
 678,18;11526,247;   59,466;27877,510;41,22066
 678,76;11506,318;   40,766;27809,143;41,28996
 679,33;11645,289;   57,666;27813,176;41,74891
 679,91;11578,561;   44,266;27813,311;41,53652
 680,48;11576,531;   28,766;27740,242;41,67142
 681,06;11690,402;   50,866;27735,176;42,04380
 681,63;11648,373;   37,566;27736,209;41,91832
 682,21;11801,244;   67,966;27797,543;42,31322
 682,78;11692,016;   20,566;27459,576;42,53597
 683,36;11943,986;   46,966;27565,510;43,23274
 683,93;11949,758;   30,466;27450,645;43,46905
 684,51;11985,129;   26,166;27477,277;43,56459
 685,08;12128,800;   38,966;27733,711;43,65389
 685,66;12204,671;   53,066;27694,045;43,96228
 686,24;12255,142;   33,766;27796,578;44,02067
 686,81;12194,413;   57,666;27899,910;43,59112
 687,39;12287,784;   38,866;27807,844;44,11008
 687,96;12433,155;   54,166;27850,479;44,53465
 688,54;12488,227;   30,866;27984,811;44,56387
 689,11;12500,098;   26,966;28043,545;44,52054
 689,69;12571,669;   29,666;28019,279;44,80949
 690,26;12764,140;   59,466;28289,313;45,00440
 690,84;12717,711;   50,066;28239,846;44,93701
 691,41;12851,082;   35,966;28403,879;45,17469
 691,98;12921,753;   31,466;28427,912;45,39401
 692,56;13048,824;   32,866;28437,445;45,82345
 693,13;13193,995;   64,866;28655,080;45,92176
 693,71;13300,566;   24,466;28657,912;46,36571
 694,28;13424,938;   41,966;28715,945;46,67288
 694,86;13596,108;   47,266;28928,879;46,91165
 695,43;13738,880;   61,366;29100,912;47,09961
 696,01;13875,351;   36,266;29145,547;47,54183
 696,58;13968,922;   42,167;29083,879;47,95432
 697,16;14092,993;   38,067;29126,414;48,31806
 697,73;14275,364;   63,467;29338,246;48,54656
 698,30;14283,735;   51,867;29223,980;48,78587
 698,88;14436,906;   40,467;29558,613;48,77149
 699,45;14609,177;   35,367;29765,848;49,01976
 700,03;14793,548;   56,067;29750,980;49,62965
 700,60;14865,520;   56,267;29850,613;49,70491
 701,18;14974,790;   61,867;29963,947;49,87253
 701,75;15158,562;   74,367;30094,682;50,24662
 702,32;15133,633;   50,367;29901,914;50,52759
 702,90;15255,304;   52,467;30254,148;50,33772
 703,47;15308,875;   51,367;30428,881;50,22632
 704,05;15469,546;   67,767;30546,715;50,53252
 704,62;15499,817;   39,867;30587,848;50,60875
 705,19;15587,588;   43,667;30586,982;50,89140
 705,77;15691,859;   29,967;30618,314;51,20215
 706,34;15895,830;   61,667;30627,049;51,80424
 706,91;15970,401;   46,367;30673,883;51,99258
 707,49;15995,872;   57,267;30976,316;51,54947
 708,06;16187,144;   66,367;31089,049;51,96448
 708,64;16218,715;   25,767;31093,582;52,12130
 709,21;16375,985;   58,167;31179,316;52,43321
 709,78;16537,357;   41,367;31281,150;52,80443
 710,36;16666,127;   61,667;31419,684;52,95124
 710,93;16746,199;   50,567;31562,416;52,98208
 711,50;16829,570;   44,467;31506,049;53,35111
 712,08;17116,541;   76,567;31925,383;53,50269
 712,65;17111,213;   73,667;31775,916;53,74239
 713,22;17225,084;   69,067;31900,250;53,89689
 713,80;17333,754;   84,167;31966,883;54,10325
 714,37;17283,826;   55,767;31827,018;54,22531
 714,94;17319,396;   53,967;31727,551;54,51050
 715,52;17527,668;   47,867;31732,984;55,16723
 716,09;17538,139;   65,467;31891,918;54,89984
 716,66;17594,609;   73,467;31935,051;54,99144
 717,23;17614,080;   66,867;31908,484;55,10779
 717,81;17633,352;   50,168;31812,018;55,35945
 718,38;17602,424;   47,468;31671,252;55,51188
 718,95;17596,994;   59,068;31618,984;55,57026
 719,53;17642,865;   56,568;31661,418;55,64430
 720,10;17520,137;   59,968;31481,252;55,56797
 720,67;17491,908;   35,768;31355,984;55,73442
 721,24;17429,779;   59,468;31256,020;55,68023
 721,82;17470,449;   49,968;31236,053;55,85979
 722,39;17541,820;   64,068;31235,885;56,06908
 722,96;17555,291;   64,968;31261,420;56,06510
 723,53;17445,963;   88,268;31151,953;55,87777
 724,11;17681,834;   61,568;31207,486;56,57328
 724,68;17714,305;   71,568;31242,020;56,60084
 725,25;17705,775;   72,768;31399,953;56,28660
 725,82;17852,547;   96,068;31564,387;56,42653
 726,40;17924,119;   62,668;31714,820;56,43045
 726,97;17984,789;   62,168;31875,354;56,33708
 727,54;18053,760;   46,968;31801,486;56,70623
 728,11;18216,631;   49,568;32045,820;56,77872
 728,69;18245,502;   39,568;31938,953;57,07299
 729,26;18415,674;   53,568;32105,088;57,28934
 729,83;18424,346;   53,268;32264,621;57,03293
 730,40;18618,416;   66,768;32291,754;57,56914
 730,97;18739,688;   44,268;32590,588;57,44250
 731,55;18835,059;   41,468;32755,820;57,44754
 732,12;18855,729;   86,268;32841,656;57,30190
 732,69;18954,400;   66,968;32889,988;57,54325
 733,26;18977,471;   55,168;32930,520;57,55772
 733,83;19067,342;   41,168;32979,055;57,76380
 734,41;19126,414;   65,468;32991,590;57,89004
 734,98;19107,686;   51,368;33155,621;57,56456
 735,55;19304,355;   43,168;33183,656;58,11981
 736,12;19315,627;   65,968;33377,289;57,78714
 736,69;19357,398;   76,968;33377,922;57,89753
 737,26;19344,068;   57,468;33552,254;57,58090
 737,84;19392,939;   70,768;33487,188;57,82239
 738,41;19460,711;   63,168;33492,422;58,02565
 738,98;19444,082;   63,569;33375,055;58,17967
 739,55;19385,553;   49,669;33377,789;58,01673
 740,12;19464,824;   62,969;33678,023;57,71776
 740,69;19378,996;   70,569;33575,656;57,62834
 741,26;19342,867;   56,269;33557,391;57,57001
 741,83;19331,338;   53,869;33719,523;57,26153
 742,41;19434,209;   56,169;33833,055;57,37071
 742,98;19558,279;   91,469;33874,590;57,62289
 743,55;19470,250;   53,569;33836,824;57,47428
 744,12;19559,422;   50,469;33859,855;57,70277
 744,69;19525,293;   59,569;33848,492;57,60978
 745,26;19526,363;   42,169;33677,723;57,92738
 745,83;19694,734;   58,769;33854,355;58,10216
 746,40;19630,406;   57,969;33844,789;57,92921
 746,97;19674,477;   44,769;33828,125;58,10467
 747,55;19790,748;   62,269;33966,957;58,18806
 748,12;19835,020;   57,869;33910,191;58,42184
 748,69;19783,691;   68,769;33877,625;58,31289
 749,26;19869,461;   65,069;33958,559;58,43126
 749,83;19815,533;   42,569;33911,992;58,37999
 750,40;19960,203;   89,669;34158,824;58,32412
 750,97;19947,475;   96,269;34144,160;58,30377
 751,54;20045,846;   40,569;33980,793;58,94268
 752,11;19938,518;   52,969;33874,727;58,79514
 752,68;19914,088;   87,869;33912,859;58,61412
 753,25;19856,959;   60,269;33774,594;58,71893
 753,82;19842,830;   65,069;33810,527;58,60866
 754,39;19858,102;   75,169;33727,160;58,78681
 754,96;19807,873;   60,069;33616,395;58,84972
 755,53;19891,145;   29,469;33796,527;58,81968
 756,10;19697,314;   64,169;33720,961;58,33338
 756,67;19826,887;   73,369;33813,395;58,54624
 757,24;19721,557;   72,769;33740,426;58,36102
 757,81;19589,129;   16,469;33677,762;58,14589
 758,38;19673,000;   54,569;33822,695;58,09748
 758,95;19700,070;   79,469;33743,426;58,28370
 759,52;19596,541;   57,469;33615,859;58,22410
 760,09;19456,713;   68,570;33306,992;58,33052
 760,66;19390,184;   59,570;33309,727;58,13691
 761,23;19423,254;   91,070;33353,961;58,11937
 761,80;19286,625;   56,270;33295,793;57,85388
 762,37;19261,496;   68,970;33167,727;57,98564
 762,94;19328,168;   70,970;33187,461;58,14988
 763,51;19280,939;   36,070;32949,793;58,47066
 764,08;19258,311;   66,270;32998,527;58,27733
 764,65;19084,980;   69,570;32798,961;58,09888
 765,22;19138,352;   54,670;32804,496;58,27109
 765,79;19158,123;   77,370;32691,928;58,50379
 766,36;19338,795;   73,170;32743,063;58,97058
 766,93;19250,365;   68,970;32551,295;59,05179
 767,50;19259,736;   89,470;32828,328;58,55509
 768,07;19249,607;   63,870;32699,262;58,78813
 768,64;19140,578;   86,470;32572,596;58,65306
 769,21;19016,650;   57,970;32359,729;58,69241
 769,78;19027,320;   78,770;32244,963;58,90828
 770,34;18901,592;   45,570;32031,195;58,95155
 770,91;18812,764;   58,470;31921,430;58,85923
 771,48;18760,434;   62,370;31836,863;58,84614
 772,05;18633,205;   66,470;31610,697;58,85938
 772,62;18603,176;   42,670;31443,029;59,10921
 773,19;18590,447;   59,370;31579,764;58,79075
 773,76;18539,918;   71,070;31506,297;58,75207
 774,33;18430,789;   74,170;31447,330;58,51058
 774,90;18348,061;   52,870;31206,064;58,72653
 775,47;18206,133;   59,970;30957,498;58,73014
 776,03;18060,402;   73,470;30984,330;58,18969
 776,60;17982,773;   55,970;30757,863;58,38990
 777,17;17951,246;   65,470;30698,098;58,38799
 777,74;17767,717;   30,870;30522,031;58,17045
 778,31;17812,588;   68,970;30582,064;58,15083
 778,88;17665,859;   30,470;30366,898;58,13271
 779,45;17611,330;   75,770;30358,131;57,90685
 780,01;17533,201;   58,370;30299,664;57,78467
 780,58;17476,871;   60,570;30177,998;57,82798
 781,15;17399,742;   38,771;29979,432;57,98460
 781,72;17304,113;   66,771;29962,266;57,65866
 782,29;17254,984;   51,771;29667,100;58,08888
 782,86;17216,756;   55,571;29617,732;58,05119
 783,42;17252,727;   56,171;29598,166;58,21054
 783,99;17264,199;   66,671;29482,100;58,46431
 784,56;17189,969;   55,171;29320,232;58,55036
 785,13;17069,441;   40,271;29247,266;58,30511
 785,70;17054,512;   49,071;29060,299;58,61676
 786,26;17001,082;   51,671;28910,732;58,73168
 786,83;16898,254;   84,371;28889,166;58,37182
 787,40;16943,725;   57,171;28783,500;58,78424
 787,97;16811,996;   43,971;28581,133;58,75856
 788,54;16803,268;   70,371;28515,268;58,82565
 789,10;16650,639;   57,971;28344,400;58,65946
 789,67;16554,309;   70,371;28245,334;58,50562
 790,24;16541,980;   51,071;28193,768;58,59747
 790,81;16407,352;   88,271;27914,400;58,64661
 791,37;16260,423;   73,671;27872,135;58,22894
 791,94;16226,294;   70,771;27886,367;58,08081
 792,51;16052,564;   46,271;27539,201;58,21967
 793,08;15989,836;   69,771;27555,234;57,92176
 793,64;15856,307;   71,271;27455,168;57,64350
 794,21;15823,678;   69,671;27250,602;57,95978
 794,78;15686,349;   53,071;27147,035;57,70022
 795,35;15560,521;   73,471;27007,969;57,49894
 795,91;15485,991;   48,071;26789,301;57,73078
 796,48;15445,063;   55,771;26710,734;57,73518
 797,05;15398,533;   57,671;26624,369;57,74471
 797,62;15270,904;   41,971;26600,701;57,34059
 798,18;15159,376;   57,471;26410,736;57,30563
 798,75;15190,646;   56,571;26279,770;57,71255
 799,32;15029,218;   60,771;26209,102;57,24437
 799,88;15099,488;   55,971;26051,535;57,86955
 800,45;14898,260;   33,971;25945,270;57,36605
 801,02;14951,031;   65,271;25880,104;57,66359
 801,58;14953,002;   90,872;25660,436;58,12430
 802,15;14875,273;   72,872;25615,270;57,95228
 802,72;14743,544;   66,172;25404,703;57,92511
 803,28;14744,815;   49,172;25288,938;58,22417
 803,85;14673,286;   41,972;25144,871;58,28536
 804,42;14638,758;   77,772;24948,004;58,54785
 804,98;14610,528;  100,672;24935,537;58,42535
 805,55;14505,199;   56,972;24702,371;58,62444
 806,12;14422,871;   83,572;24611,004;58,46229
 806,68;14213,441;   66,472;24493,738;57,91467
 807,25;14164,113;   74,972;24436,271;57,83411
 807,82;14114,084;   86,872;24407,805;57,67547
 808,38;13984,455;   73,672;24367,037;57,26166
 808,95;13938,727;   62,972;24166,971;57,56619
 809,52;13826,098;   50,272;24162,004;57,13329
 810,08;13793,668;   55,172;23994,938;57,38776
 810,65;13766,739;   77,172;24169,672;56,82087
 811,21;13741,410;   69,972;24123,404;56,83779
 811,78;13801,882;   92,472;24337,539;56,54515
 812,35;13664,353;   64,972;24173,871;56,40814
 812,91;13714,523;   90,072;24239,705;56,41681
 813,48;13668,995;   68,172;24202,738;56,35412
 814,04;13665,166;   64,172;24088,373;56,61372
 814,61;13618,537;   77,572;24176,006;56,19023
 815,18;13534,309;   67,772;23892,539;56,52327
 815,74;13568,879;   69,772;23709,172;57,10427
 816,31;13517,150;   83,372;23614,406;57,08962
 816,87;13400,021;   43,272;23489,641;56,96724
 817,44;13385,192;   76,972;23452,273;56,93283
 818,00;13315,863;   43,272;23159,506;57,41675
 818,57;13281,935;   71,872;23076,340;57,42390
 819,14;13183,406;   82,872;22924,273;57,35434
 819,70;13096,677;   72,672;22792,707;57,32388
 820,27;13070,248;   62,972;22691,941;57,48064
 820,83;12884,319;   70,072;22541,373;57,02495
 821,40;12787,990;   98,072;22431,908;56,81925
 821,96;12658,262;   75,272;22315,541;56,57751
 822,53;12610,332;   70,973;22257,574;56,51771
 823,09;12575,804;   81,073;22073,309;56,81428
 823,66;12396,374;   68,173;21862,541;56,56600
 824,22;12311,745;   77,173;21851,674;56,18761
 824,79;12223,616;   75,473;21561,408;56,53998
 825,35;12093,987;   65,173;21648,041;55,73316
 825,92;11976,659;   75,173;21398,875;55,81342
 826,48;11923,630;   87,673;21501,309;55,27299
 827,05;11878,101;   89,573;21448,242;55,19318
 827,61;11836,072;   75,273;21249,076;55,54410
 828,18;11715,343;   60,873;21191,209;55,15516
 828,74;11758,914;   91,673;21053,543;55,65935
 829,31;11706,886;   83,373;21002,176;55,56490
 829,87;11666,956;   73,073;20733,709;56,11581
 830,44;11650,827;   85,173;20631,443;56,29077
 831,00;11718,099;   91,273;20673,977;56,48833
 831,57;11744,270;  101,573;20631,609;56,71055
 832,13;11634,141;   72,073;20323,344;57,09305
 832,69;11548,712;   58,173;20309,477;56,73975
 833,26;11587,583;   85,473;20322,711;56,83636
 833,82;11606,254;   93,073;20197,744;57,26620
 834,39;11565,425;   78,773;20137,477;57,26518
 834,95;11411,097;   57,173;19959,410;57,04848
 835,52;11353,968;   87,873;19851,744;57,00348
 836,08;11399,339;   95,573;19951,877;56,92784
 836,64;11331,109;   76,273;19800,711;57,06037
 837,21;11201,780;   88,673;19552,443;57,09637
 837,77;11126,651;   91,873;19491,777;56,88058
 838,34;11101,423;   67,473;19470,012;56,86859
 838,90;10940,194;   64,473;19306,045;56,52200
 839,46;10957,765;   83,873;19312,479;56,55060
 840,03;10837,136;   76,173;19300,811;55,97485
 840,59;10812,507;   85,873;19175,645;56,19048
 841,16;10759,479;  105,173;19156,578;55,92399
 841,72;10650,550;   59,373;18965,512;56,01978
 842,28;10665,421;   77,873;18857,246;56,37860
 842,85;10673,191;   95,573;18812,578;56,51341
 843,41;10608,163;  105,374;18740,813;56,35923
 843,97;10544,733;   89,174;18686,846;56,21972
 844,54;10639,005;  104,774;18624,979;56,87967
 845,10;10490,376;   89,174;18523,713;56,42236
 845,67;10543,747;   68,774;18413,445;57,10090
 846,23;10505,018;   78,674;18361,080;57,02938
 846,79;10479,289;   90,474;18265,613;57,15948
 847,36;10389,561;   55,774;18179,047;57,01943
 847,92;10458,631;   84,874;18034,680;57,79314
 848,48;10450,103;   41,874;18039,213;57,83204
 849,04;10416,474;   62,374;17949,447;57,88594
 849,61;10348,545;   56,274;17918,580;57,62006
 850,17;10262,315;   68,174;17819,514;57,42745
 850,73;10195,787;   71,474;17764,848;57,22093
 851,30;10111,758;   46,074;17669,881;57,11413
 851,86;10147,929;   75,874;17597,914;57,48220
 852,42;10140,600;   51,174;17568,348;57,59734
 852,99;10024,871;   79,274;17583,082;56,81962
 853,55; 9957,143;   83,174;17542,514;56,55408
 854,11; 9799,913;   70,074;17432,049;56,04109
 854,67; 9761,284;   85,474;17420,881;55,81530
 855,24; 9721,955;   51,874;17213,414;56,34740
 855,80; 9725,326;   76,874;17244,848;56,20030
 856,36; 9630,498;   80,574;17175,881;55,86284
 856,92; 9586,669;   54,474;17027,215;56,16179
 857,49; 9613,140;   81,274;17048,248;56,17894
 858,05; 9524,411;   67,274;16968,482;55,95539
 858,61; 9583,482;   65,774;17003,316;56,19297
 859,17; 9583,854;   77,374;16904,250;56,49581
 859,74; 9569,024;   82,074;16836,883;56,62225
 860,30; 9490,495;   93,074;16663,016;56,71366
 860,86; 9546,967;   72,074;16692,350;57,00804
 861,42; 9445,737;   74,674;16545,883;56,89360
 861,99; 9449,408;   54,674;16506,717;57,10375
 862,55; 9405,779;   66,374;16393,051;57,20334
 863,11; 9439,951;   75,174;16437,283;57,23453
 863,67; 9304,922;   61,274;16290,117;56,95814
 864,23; 9319,593;   80,175;16199,351;57,31942
 864,80; 9276,264;   69,175;16081,384;57,50043
 865,36; 9189,235;   71,875;16120,817;56,80973
 865,92; 9251,807;   96,175;16088,751;57,24926
 866,48; 9125,377;   67,375;15987,384;56,89697
 867,04; 9062,549;   60,675;15891,418;56,86324
 867,60; 9005,819;   99,375;15884,451;56,42320
 868,17; 8980,690;   93,675;15884,685;56,27896
 868,73; 8828,762;   82,775;15672,618;56,10054
 869,29; 8761,532;   59,475;15470,151;56,46772
 869,85; 8766,304;  100,475;15369,685;56,75362
 870,41; 8648,475;   80,575;15293,418;56,32017
 870,97; 8613,646;   92,975;15232,252;56,28189
 871,54; 8523,017;   84,175;15178,686;55,90669
 872,10; 8519,188;   84,275;15055,419;56,34114
 872,66; 8402,060;   66,775;14910,652;56,15301
 873,22; 8440,030;   81,975;14890,586;56,44051
 873,78; 8298,701;   65,275;14742,419;56,09692
 874,34; 8269,973;   95,075;14662,652;56,11707
 874,90; 8303,072;  109,775;14536,053;56,79426
 875,46; 8227,072;   96,375;14412,952;56,79219
 876,03; 8145,973;   86,475;14363,353;56,45140
 876,59; 8153,672;   64,475;14153,253;57,41589
 877,15; 8127,373;  101,475;14166,853;57,06137
 877,71; 8074,772;   78,275;14064,652;57,17347
 878,27; 8084,272;   95,675;13910,553;57,82605
 878,83; 8026,572;  114,275;13971,753;57,09767
 879,39; 8005,572;   91,075;14082,753;56,56575
 879,95; 7981,272;   86,275;13964,253;56,88867
 880,51; 7974,172;   75,175;13927,253;57,02392
 881,07; 8014,672;   82,375;13978,753;57,08176
 881,63; 7959,772;   92,575;13971,253;56,68550
 882,19; 7975,072;   82,675;13921,553;57,03062
 882,75; 8069,973;   86,275;14019,553;57,29949
 883,31; 8017,973;   95,575;14187,853;56,21801
 883,88; 8037,373;   96,375;14174,353;56,40723
 884,44; 7986,572;   76,175;14175,753;56,10379
 885,00; 8033,072;  106,075;14266,952;55,97815
 885,56; 8073,473;  101,675;14299,452;56,14821
 886,12; 8204,572;  109,875;14421,152;56,56167
 886,68; 8155,973;   90,775;14436,753;56,21923
 887,24; 8207,772;  102,475;14574,952;56,00491
 887,80; 8236,372;   86,975;14671,753;55,87604
 888,36; 8401,072;  106,275;14715,652;56,77721
 888,92; 8366,872;   98,975;14773,353;56,34240
 889,48; 8537,572;   99,575;14973,853;56,72879
 890,04; 8586,673;   95,275;14803,053;57,73406
 890,60; 8623,473;  117,475;15014,652;57,09805
 891,16; 8622,072;   99,875;15075,853;56,90578
 891,72; 8665,673;  113,275;15058,452;57,22514
 892,28; 8670,272;  112,475;15126,053;57,00039
 892,84; 8605,673;   93,775;15039,853;56,95071
 893,39; 8664,173;  117,575;15112,952;56,99488
 893,95; 8673,173;  112,975;15044,753;57,32872
 894,51; 8544,973;   66,375;14891,253;57,19169
 895,07; 8527,372;  127,375;14906,353;56,83747
 895,63; 8308,072;   74,275;14689,952;56,33538
 896,19; 8278,772;   90,375;14601,952;56,42665
 896,75; 8246,473;  105,175;14460,152;56,71411
 897,31; 8053,172;   82,775;14295,853;56,07791
 897,87; 8036,373;   98,175;14146,853;56,50495
 898,43; 7931,672;   87,775;14075,753;56,07599
 898,99; 7899,172;  109,175;14002,753;56,06905
 899,55; 7846,172;  109,475;13940,652;55,93665
 900,11; 7707,272;  104,975;13747,553;55,72479
 900,67; 7611,772;   91,375;13658,652;55,43041
 901,22; 7598,572;  108,375;13601,952;55,50935
 901,78; 7519,272;   91,275;13560,053;55,14975
 902,34; 7419,873;  103,075;13451,152;54,81537
 902,90; 7383,072;   73,575;13350,652;55,05351
 903,46; 7377,572;   95,775;13236,353;55,41459
 904,02; 7314,072;   88,075;13091,553;55,56973
 904,58; 7209,272;   67,075;12918,152;55,57664
 905,14; 7248,072;   63,975;12874,553;56,07942
 905,70; 7182,772;   66,775;12696,053;56,34524
 906,25; 7194,172;   84,375;12708,452;56,31934
 906,81; 7148,973;   87,675;12732,152;55,84492
 907,37; 7089,873;   79,275;12616,152;55,91981
 907,93; 7026,172;   74,775;12588,152;55,55173
 908,49; 7006,272;  101,875;12497,652;55,69959
 909,05; 7017,973;   89,675;12425,553;56,16380
 909,60; 6953,572;   86,575;12340,452;56,03938
 910,16; 6871,873;   67,675;12291,853;55,66180
 910,72; 6773,272;  100,475;12207,753;55,11394
 911,28; 6696,272;   90,875;12156,053;54,74762
 911,84; 6657,672;   79,575;12106,753;54,69361
 912,39; 6638,072;   73,475;12049,353;54,81517
 912,95; 6605,072;  104,475;12001,452;54,64075
 913,51; 6512,672;   85,375;11945,253;54,19362
 914,07; 6449,672;   83,775;11813,452;54,27172
 914,63; 6402,973;   64,775;11748,053;54,25017
 915,18; 6289,772;   77,475;11617,853;53,83097
 915,74; 6247,172;   63,975;11632,652;53,44775
 916,30; 6228,873;   61,475;11588,553;53,50357
 916,86; 6182,473;   83,575;11514,652;53,35366
 917,42; 6168,772;   82,275;11425,152;53,65920
 917,97; 6069,373;   75,375;11265,452;53,56529
 918,53; 6054,373;   67,775;11196,253;53,79530
 919,09; 6060,973;   88,975;11223,753;53,63374
 919,65; 6008,572;   83,375;11083,452;53,86505
 920,20; 5979,672;   61,875;10983,053;54,18644
 920,76; 5890,172;   65,475;10849,452;54,01252
 921,32; 5878,172;   82,675;10770,952;54,22293
 921,87; 5778,072;   97,475;10670,253;53,72852
 922,43; 5710,072;   64,675;10561,353;53,78271
 922,99; 5643,373;   61,875;10406,753;53,95421
 923,55; 5612,772;   63,775;10357,353;53,90738
 924,10; 5495,072;   73,575;10282,853;53,10363
 924,66; 5441,873;   78,675;10170,152;53,14581
 925,22; 5321,873;   43,275;10093,952;52,51982
 925,77; 5238,072;   66,075; 9927,053;52,44913
 926,33; 5236,473;   90,375; 9903,253;52,44229
 926,89; 5130,172;   71,975; 9692,753;52,57576
 927,44; 5003,172;   52,175; 9580,553;51,96055
 928,00; 4926,373;   66,875; 9533,753;51,33158
 928,56; 4846,572;   80,375; 9372,253;51,29423
 929,12; 4811,373;   72,775; 9275,152;51,49319
 929,67; 4627,072;   67,575; 9091,053;50,52927
 930,23; 4525,373;   50,975; 8915,253;50,47673
 930,78; 4557,572;  100,675; 8842,553;50,98329
 931,34; 4362,072;   61,975; 8632,152;50,17513
 931,90; 4287,873;   61,675; 8494,353;50,11691
 932,45; 4158,373;   78,775; 8290,753;49,67862
 933,01; 4024,272;   52,975; 8024,453;49,81884
 933,57; 3892,673;   72,175; 7753,252;49,73908
 934,12; 3705,472;   70,475; 7399,553;49,59693
 934,68; 3519,173;   59,075; 7020,252;49,70564
 935,24; 3307,873;   67,875; 6614,752;49,48920
 935,79; 3105,373;   72,975; 6254,853;49,05302
 936,35; 2930,673;   91,375; 5812,252;49,63046
 936,90; 2687,173;   80,275; 5348,752;49,48104
 937,46; 2466,772;   72,775; 4956,953;49,01536
 938,02; 2278,873;   63,375; 4549,152;49,38938
 938,57; 2121,673;   73,175; 4265,053;48,86826
 939,13; 1953,373;   70,575; 3986,752;48,07743
 939,68; 1810,373;   57,375; 3713,452;47,94750
 940,24; 1715,573;   68,775; 3504,052;47,93783
 940,79; 1679,672;   91,875; 3391,052;48,12707
 941,35; 1562,272;   79,675; 3217,552;47,24842
 941,91; 1515,973;   71,375; 3122,252;47,35023
 942,46; 1489,873;   75,075; 3063,552;47,34175
 943,02; 1428,073;   65,375; 3050,752;45,64574
 943,57; 1406,873;   61,275; 2982,452;46,06353
 944,13; 1405,573;   67,375; 2974,452;46,03240
 944,68; 1400,672;   65,975; 3041,752;44,85206
 945,24; 1427,473;   82,275; 3060,052;45,17455
 945,79; 1403,473;   68,775; 3104,052;43,97283
 946,35; 1416,573;   51,775; 3194,752;43,42371
 946,90; 1486,373;   98,575; 3283,552;43,57323
 947,46; 1458,873;   52,175; 3311,052;43,16509
 948,01; 1476,172;   51,575; 3390,052;42,67207
 948,57; 1561,573;   86,775; 3552,952;42,54824
 949,12; 1560,373;   65,875; 3613,353;42,12846
 949,68; 1613,272;   76,275; 3732,653;42,03607
 950,23; 1635,272;   70,075; 3833,252;41,59244
 950,79; 1677,373;   75,775; 3933,452;41,51715
 951,34; 1720,272;   83,275; 4070,952;41,05140
 951,90; 1737,373;   57,475; 4140,853;41,13990
 952,45; 1808,573;   81,075; 4292,152;41,02270
 953,01; 1791,373;   65,975; 4364,252;40,14161
 953,56; 1833,573;   87,975; 4500,853;39,55690
 954,12; 1831,672;   42,075; 4567,553;39,54494
 954,67; 1859,473;   70,875; 4720,453;38,46796
 955,23; 1887,272;   61,975; 4804,553;38,48745
 955,78; 1926,373;   67,175; 4882,953;38,60638
 956,33; 1898,373;   58,575; 4947,252;37,63385
 956,89; 1904,272;   53,475; 5038,553;37,12675
 957,44; 1921,473;   53,675; 5170,752;36,50126
 958,00; 1911,973;   49,475; 5238,353;35,89404
 958,55; 1930,772;   70,475; 5313,953;35,47831
 959,10; 1920,172;   52,375; 5370,252;35,12299
 959,66; 1935,073;   74,275; 5488,752;34,36707
 960,21; 1916,073;   78,475; 5567,453;33,47796
 960,77; 1918,473;   54,275; 5606,152;33,57779
 961,32; 1904,373;   48,375; 5663,453;33,05382
 961,87; 1900,973;   79,775; 5738,752;32,18245
 962,43; 1872,172;   68,975; 5780,652;31,57037
 962,98; 1924,873;   76,175; 5828,652;32,13742
 963,54; 1855,073;   27,075; 5820,652;31,55214
 964,09; 1880,373;   56,275; 5873,953;31,35439
 964,64; 1869,272;   64,975; 5901,053;30,91627
 965,20; 1854,373;   44,375; 5966,652;30,56253
 965,75; 1841,672;   66,575; 5976,353;30,03662
 966,30; 1831,772;   75,275; 6068,553;29,30779
 966,86; 1807,373;   62,975; 6121,953;28,79030
 967,41; 1808,772;   81,075; 6084,453;28,77876
 967,96; 1793,373;   75,175; 6108,953;28,47632
 968,52; 1785,973;   81,775; 6126,353;28,19382
 969,07; 1752,672;   72,975; 6120,152;27,77655
 969,62; 1732,772;   77,175; 6134,953;27,33011
 970,18; 1702,073;   57,575; 6147,652;27,00290
 970,73; 1663,772;   66,475; 6203,553;26,02700
 971,28; 1682,573;   95,775; 6197,053;26,00763
 971,84; 1601,373;   55,075; 6118,752;25,50099
 972,39; 1605,772;   95,875; 6148,652;24,94553
 972,94; 1554,973;   54,975; 6140,652;24,64800
 973,49; 1550,573;   64,575; 6141,252;24,45411
 974,05; 1509,573;   64,375; 6178,053;23,63876
 974,60; 1502,772;   88,575; 6213,252;23,09015
 975,15; 1456,373;   77,675; 6231,553;22,40372
 975,71; 1430,573;   62,375; 6121,453;22,58095
 976,26; 1404,272;   77,575; 6110,252;21,99185
 976,81; 1386,473;   90,675; 6134,152;21,44126
 977,36; 1358,373;   84,775; 6156,953;20,97431
 977,92; 1354,573;   90,175; 6209,353;20,66287
 978,47; 1318,373;   77,175; 6060,252;20,74514
 979,02; 1299,272;   95,475; 6085,652;20,09619
 979,57; 1283,973;   86,775; 6058,453;20,04793
 980,13; 1258,473;   76,175; 6038,752;19,82863
 980,68; 1239,672;   77,075; 6010,553;19,59386
 981,23; 1251,172;   89,175; 6054,652;19,47870
 981,78; 1234,873;   82,075; 5974,152;19,56521
 982,33; 1213,172;   79,275; 5893,252;19,50296
 982,89; 1180,772;   94,375; 5938,152;18,59067
 983,44; 1144,073;   65,675; 5935,853;18,37078
 983,99; 1151,973;  104,775; 5949,453;17,91711
 984,54; 1131,272;   81,475; 5900,053;18,04217
 985,09; 1105,672;   87,275; 5873,752;17,59961
 985,65; 1066,073;   69,375; 5811,853;17,35658
 986,20; 1084,672;  106,575; 5791,152;17,20616
 986,75; 1064,073;   95,875; 5823,953;16,90266
 987,30; 1029,073;   97,175; 5726,053;16,55565
 987,85; 1003,273;   92,475; 5721,353;16,18080
 988,40; 1000,172;   96,675; 5693,953;16,14173
 988,96;  971,573;  114,875; 5666,553;15,43133
 989,51;  960,672;  108,875; 5644,053;15,38880
 990,06;  961,773;  128,275; 5680,853;15,01100
 990,61;  905,773;   93,575; 5569,053;14,83336
 991,16;  914,372;  104,375; 5558,053;14,85232
 991,71;  872,472;   79,875; 5505,853;14,60746
 992,26;  871,972;   93,475; 5457,252;14,51398
 992,81;  855,472;   75,075; 5427,053;14,58148
 993,37;  867,273;  113,475; 5390,553;14,28437
 993,92;  847,273;  108,375; 5368,953;14,04594
 994,47;  850,172;  117,475; 5329,652;14,05742
 995,02;  835,872;  118,475; 5313,252;13,80998
 995,57;  795,472;   90,875; 5274,652;13,59236
 996,12;  824,472;  133,575; 5247,553;13,50998
 996,67;  814,172;  132,375; 5191,652;13,47618
 997,22;  766,073;   99,875; 5128,652;13,24770
 997,77;  788,773;  115,275; 5110,553;13,48268
 998,32;  762,672;  103,775; 5015,652;13,41437
 998,87;  767,273;  114,275; 5018,752;13,31431
 999,42;  743,872;  101,675; 4972,553;13,18443
 999,97;  738,073;  109,975; 4956,353;12,96014
1000,53;  754,172;  123,475; 4993,752;12,94993
1001,08;  698,573;   98,375; 4879,053;12,55465
1001,63;  735,672;  144,475; 4878,053;12,48944
1002,18;  653,273;   85,075; 4777,453;12,10895
1002,73;  696,073;  131,375; 4813,853;12,05980
1003,28;  671,972;  103,575; 4811,953;12,07205
1003,83;  672,372;  119,075; 4691,752;12,10008
1004,38;  681,073;  137,775; 4703,152;11,90039
1004,93;  642,372;  114,375; 4680,953;11,56221
1005,48;  630,073;  104,075; 4573,053;11,76997
1006,03;  615,773;  112,775; 4525,652;11,39840
1006,58;  615,972;  111,475; 4486,553;11,53117
1007,13;  583,672;   94,475; 4466,252;11,18990
1007,68;  595,872;  104,975; 4462,453;11,26563
1008,23;  594,372;  114,575; 4425,853;11,12889
1008,78;  572,172;  107,375; 4384,152;10,86794
1009,33;  575,872;  121,875; 4307,752;10,84593
1009,88;  533,972;   84,775; 4329,553;10,58236
1010,43;  559,573;  118,875; 4320,752;10,48811
1010,98;  553,872;  100,675; 4310,053;10,76638
1011,52;  529,372;   97,075; 4264,953;10,37213
1012,07;  598,273;  144,475; 4319,252;10,86998
1012,62;  538,172;  103,875; 4259,152;10,45171
1013,17;  539,573;   97,175; 4172,053;10,85671
1013,72;  514,472;   94,575; 4143,453;10,37071
1014,27;  519,573;  100,275; 4105,853;10,46784
1014,82;  502,772;   86,875; 4042,952;10,51288
1015,37;  483,772;   84,375; 3964,853;10,29248
1015,92;  490,372;  109,475; 3894,252;10,06393
1016,47;  459,073;   90,275; 3819,452; 9,88951
1017,02;  448,272;   81,075; 3732,153;10,05724
1017,57;  474,172;   96,475; 3718,853;10,42678
1018,11;  434,973;   77,275; 3656,252; 9,99441
1018,66;  471,473;  120,175; 3636,552; 9,99032
1019,21;  432,473;  109,675; 3579,552; 9,30285
1019,76;  411,973;   77,675; 3497,353; 9,77570
1020,31;  406,272;   71,975; 3446,452; 9,90664
1020,86;  420,172;   96,175; 3448,052; 9,66615
1021,41;  397,473;   80,175; 3387,052; 9,59508
1021,96;  392,272;   83,675; 3385,853; 9,34527
1022,50;  430,473;  105,975; 3332,952;10,05577
1023,05;  390,872;   94,675; 3288,052; 9,27537
1023,60;  382,672;   97,975; 3251,353; 9,02833
1024,15;  380,372;   81,075; 3184,853; 9,64301
1024,70;  394,372;   95,075; 3176,252; 9,71374
1025,25;  364,272;   81,175; 3127,452; 9,29323
1025,79;  370,672;  101,175; 3110,752; 8,95466
1026,34;  356,473;   83,475; 3044,653; 9,21922
1026,89;  371,872;  102,175; 3039,052; 9,18314
1027,44;  357,573;   95,875; 2952,952; 9,15962
1027,99;  358,672;   93,475; 2944,552; 9,30166
1028,53;  345,372;   89,675; 2900,052; 9,09833
1029,08;  348,573;  114,775; 2876,653; 8,46517
1029,63;  346,073;  114,875; 2854,952; 8,43763
1030,18;  341,973;   92,075; 2788,552; 9,26755
1030,73;  322,272;   91,175; 2739,552; 8,72600
1031,27;  322,172;   85,875; 2715,252; 8,98682
1031,82;  317,872;   81,875; 2686,452; 9,06087
1032,37;  325,672;   98,875; 2688,853; 8,75674
1032,92;  324,372;  100,575; 2675,452; 8,69158
1033,46;  311,372;   99,775; 2599,252; 8,46567
1034,01;  283,872;   78,375; 2582,952; 8,20488
1034,56;  320,772;   98,875; 2559,252; 9,01884
1035,11;  309,073;   92,375; 2523,552; 8,91327
1035,65;  292,872;   87,575; 2478,052; 8,58814
1036,20;  307,172;   99,375; 2454,452; 8,82338
1036,75;  322,372;  118,675; 2446,353; 8,75110
1037,29;  291,272;   90,275; 2398,252; 8,70882
1037,84;  280,772;   78,375; 2347,252; 8,92060
1038,39;  285,573;   91,075; 2329,952; 8,68728
1038,94;  253,473;   73,075; 2277,153; 8,18472
1039,48;  283,772;   83,575; 2278,552; 9,12071
1040,03;  284,872;  102,875; 2245,252; 8,49512
1040,58;  278,172;  101,175; 2194,552; 8,45512
1041,12;  271,272;   91,375; 2191,653; 8,56541
1041,67;  273,272;  101,075; 2166,752; 8,33613
1042,22;  293,672;  118,475; 2145,252; 8,64414
1042,76;  253,572;   99,275; 2118,452; 7,64160
1043,31;  266,772;   90,675; 2060,653; 8,93906
1043,86;  258,172;   98,875; 2044,252; 8,18851
1044,40;  264,872;   92,975; 2018,052; 8,92938
1044,95;  268,473;   94,175; 1988,552; 9,20078
1045,50;  244,973;   75,375; 1934,353; 9,12316
1046,04;  266,473;  114,375; 1930,453; 8,37506
1046,59;  234,673;   96,175; 1878,353; 7,77125
1047,13;  262,573;  121,075; 1879,453; 8,04705
1047,68;  260,272;  115,675; 1860,052; 8,28935
1048,23;  260,073;  118,775; 1866,752; 8,08349
1048,77;  235,372;   90,175; 1784,953; 8,56735
1049,32;  243,673;  104,175; 1785,953; 8,29465
1049,86;  239,473;   92,675; 1760,552; 8,80146
1050,41;  216,872;   82,475; 1735,552; 8,13014
1050,96;  238,872;  100,875; 1698,652; 8,63684
1051,50;  241,473;  101,675; 1663,252; 8,95233
1052,05;  221,572;   94,675; 1664,052; 8,08585
1052,59;  218,173;   82,975; 1624,152; 8,77235
1053,14;  200,973;   84,475; 1582,652; 7,77595
1053,69;  228,673;   98,475; 1571,453; 8,83907
1054,23;  232,173;  104,575; 1569,052; 8,71283
1054,78;  232,372;  100,775; 1550,152; 9,07959
1055,32;  242,773;  123,075; 1550,453; 8,38583
1055,87;  187,973;   68,875; 1491,752; 8,37019
1056,41;  191,173;   78,775; 1469,552; 8,08163
1056,96;  203,372;   96,775; 1451,052; 7,87117
1057,50;  234,473;  113,375; 1470,853; 8,92077
1058,05;  190,872;   82,075; 1401,953; 8,24300
1058,59;  221,872;   95,875; 1396,552; 9,68707
1059,14;  225,872;  103,575; 1370,453; 9,65346
1059,68;  185,273;   75,975; 1329,353; 8,72024
1060,23;  241,872;  126,875; 1383,752; 9,14946
1060,77;  214,072;   97,375; 1317,052; 9,56790
1061,32;  225,072;  108,575; 1320,652; 9,61139
1061,86;  206,473;  111,175; 1289,752; 8,08581
1062,41;  201,973;   93,975; 1242,953; 9,39944
1062,95;  194,273;  109,575; 1230,853; 7,55366
1063,50;  211,473;  111,075; 1230,052; 8,97225
1064,04;  185,773;   90,475; 1197,453; 8,60880
1064,59;  201,372;  114,775; 1210,052; 7,90644
1065,13;  200,572;  103,475; 1170,552; 9,09939
1065,68;  192,372;  107,275; 1161,353; 8,07317
1066,22;  214,872;  115,875; 1166,453; 9,42315
1066,76;  218,273;  130,175; 1145,252; 8,67889
1067,31;  189,372;   99,875; 1110,552; 8,85520
1067,85;  192,673;  100,975; 1090,252; 9,26914
1068,40;  196,072;  110,275; 1095,353; 8,70972
1068,94;  184,072;   99,175; 1079,353; 8,66144
1069,49;  178,973;   98,175; 1041,652; 8,56380
1070,03;  186,173;  111,175; 1034,353; 8,12384
1070,57;  173,973;   88,775; 1012,852; 9,21974
1071,12;  166,872;   75,875;  987,153; 9,98571
1071,66;  219,872;  131,775; 1039,953; 9,70047
1072,21;  191,473;  112,475; 1011,352; 8,78846
1072,75;  184,072;  104,475;  978,552; 9,10646
1073,29;  159,273;   77,075;  942,453; 9,49846
1073,84;  175,673;   95,975;  941,153; 9,42968
1074,38;  172,372;   93,875;  928,253; 9,40791
1074,92;  179,673;  107,275;  940,153; 8,69245
1075,47;  190,273;  112,775;  938,852; 9,38138
1076,01;  196,673;  121,775;  926,253; 9,31008
1076,56;  175,973;   97,275;  891,953; 9,90307
1077,10;  158,572;   86,075;  865,253; 9,30436
1077,64;  173,072;   97,875;  884,453; 9,56009
1078,19;  191,773;  123,175;  887,753; 8,97195
1078,73;  173,173;   98,775;  853,852; 9,85296
1079,27;  185,273;  121,075;  875,552; 8,50887
1079,81;  191,473;  121,375;  860,953; 9,47805
1080,36;  178,872;  105,975;  836,052; 9,98490
1080,90;  166,572;   96,375;  819,753; 9,70413
1081,44;  159,773;   82,475;  789,552;10,93197
1081,99;  147,173;   70,375;  771,753;10,94952
1082,53;  172,572;  113,075;  798,653; 8,67845
1083,07;  166,572;  104,175;  791,453; 9,07894
1083,62;  174,372;  101,275;  772,552;10,88931
1084,16;  165,973;   98,975;  782,453; 9,80244
1084,70;  183,673;  107,475;  767,153;11,55072
1085,24;  175,473;  108,775;  750,653;10,39100
1085,79;  166,872;  109,175;  747,552; 9,03815
1086,33;  144,572;   99,075;  711,453; 7,42965
1086,87;  160,673;  102,075;  714,852; 9,56261
1087,41;  148,273;   84,475;  686,852;10,59095
1087,96;  176,372;  124,575;  732,552; 8,51964
1088,50;  154,973;  112,075;  696,953; 7,33444
1089,04;  180,773;  121,775;  715,153; 9,94266
1089,58;  140,273;   82,375;  655,953;10,09410
1090,13;  160,072;  102,975;  653,153;10,37801
1090,67;  166,473;  101,775;  678,753;11,21318
1091,21;  150,072;   92,075;  651,852;10,36081
1091,75;  160,773;  106,875;  647,153; 9,97589
1092,29;  166,173;  105,875;  642,552;11,23533
1092,84;  143,973;  105,975;  628,352; 7,27396
1093,38;  184,173;  128,175;  662,753;10,47509
1093,92;  177,372;  113,475;  640,052;12,13449
1094,46;  170,072;  128,175;  638,852; 8,20430
1095,00;  154,072;   93,975;  602,052;11,82841
1095,54;  137,673;   89,975;  591,352; 9,51329
1096,09;  156,473;  114,975;  597,352; 8,60270
1096,63;  170,173;  117,175;  598,453;11,01184
1097,17;  149,372;  102,575;  573,052; 9,94681
1097,71;  175,572;  122,875;  582,453;11,46651
1098,25;  148,973;  103,275;  553,653;10,14649
1098,79;  161,673;  104,775;  568,753;12,26299
1099,33;  169,273;  111,975;  572,052;12,45388
1099,88;  154,072;  110,775;  562,253; 9,59018
1100,42;  137,173;   83,275;  521,253;12,30600

