0149 ELITRO
Integration time [ms]:   8,000
Averaging Nr. [scans]: 10
Smoothing Nr. [pixels]: 0
Data measured with spectrometer [name]: 7314920SP
Wave   ;Sample   ;Dark     ;Reference;Reflectance
[nm]   ;[counts] ;[counts] ;[counts] ;[%]

 199,42;   88,033;   63,873;  150,055;28,03375
 200,02;  115,192;   92,669;  145,732;42,44532
 200,62;   65,339;   67,563;   88,793;-10,47831
 201,22;  104,339;   86,969;  138,011;34,03179
 201,82;   97,876;   66,174;  141,790;41,92517
 202,42;  113,876;  101,668;  154,973;22,90100
 203,03;   68,596;   60,168;   91,775;26,66537
 203,63;   80,932;   69,967;  109,037;28,06519
 204,23;   93,578;   70,671;  129,903;38,67381
 204,83;   85,700;   74,567;  123,718;22,65144
 205,43;   92,833;   56,673;  123,555;54,06556
 206,03;   71,384;   50,167;   90,459;52,65992
 206,63;   77,130;   68,865;  100,007;26,53954
 207,24;  118,504;   74,675;  162,566;49,86695
 207,84;   56,869;   39,967;   83,699;38,64830
 208,44;   62,039;   50,669;   95,011;25,64266
 209,04;   57,146;   47,365;   85,066;25,94266
 209,64;   99,637;   69,972;  127,998;51,12439
 210,24;   72,400;   45,367;   97,218;52,13659
 210,84;   71,155;   51,469;  101,970;38,98175
 211,44;  102,119;   86,470;  122,908;42,94738
 212,05;   75,946;   60,865;   99,266;39,27130
 212,65;   85,496;   66,368;  112,975;41,04119
 213,25;  114,876;   93,768;  142,073;43,69642
 213,85;   92,009;   84,465;  114,904;24,78387
 214,45;   73,700;   53,367;  100,418;43,21558
 215,05;   61,755;   39,369;  100,070;36,87942
 215,65;   70,671;   55,169;  105,630;30,72107
 216,25;   57,700;   40,267;   82,518;41,26143
 216,85;   48,823;   34,069;   89,651;26,54548
 217,45;   80,396;   49,068;   97,375;64,85183
 218,05;   77,267;   58,270;  112,886;34,78203
 218,66;   40,307;   28,769;   75,692;24,59094
 219,26;   41,432;   26,567;   79,337;28,16954
 219,86;   56,646;   36,771;   81,584;44,35223
 220,46;   86,651;   54,270;  104,127;64,94747
 221,06;   81,678;   51,871;  115,903;46,55060
 221,66;   78,826;   43,471;  103,481;58,91455
 222,26;   67,437;   39,772;  102,398;44,17558
 222,86;   93,544;   67,268;  118,954;50,83752
 223,46;   71,100;   51,767;   88,918;52,03990
 224,06;   83,462;   64,971;  120,343;33,39461
 224,66;   80,699;   57,570;  105,805;47,94903
 225,26;   66,803;   48,169;  113,748;28,41386
 225,86;   73,885;   42,173;  112,376;45,17229
 226,46;   83,560;   49,968;  102,913;63,44607
 227,06;   53,299;   27,670;   87,705;42,68880
 227,66;   59,593;   37,665;   74,845;58,97900
 228,27;   53,251;   29,270;   96,227;35,81535
 228,87;  107,483;   89,170;  143,046;33,99022
 229,47;   54,753;   29,172;   92,357;40,48593
 230,07;   32,703;   11,169;   59,648;44,41825
 230,67;   55,423;   38,169;   84,651;37,12079
 231,27;   56,451;   27,670;   76,327;59,15050
 231,87;   66,023;   43,169;  100,751;39,69031
 232,47;   82,372;   43,775;  132,047;43,72490
 233,07;   53,714;   42,965;   75,547;32,99038
 233,67;   76,796;   53,768;   94,275;56,84945
 234,27;   28,884;    0,567;   53,259;53,74200
 234,87;   59,446;   34,771;  106,084;34,60182
 235,47;   35,903;   16,169;   74,148;34,03565
 236,07;   48,373;   30,266;   72,042;43,34297
 236,67;   67,637;   49,966;   85,180;50,18002
 237,27;   65,265;   28,873;  109,074;45,37576
 237,87;   56,599;   25,370;   99,805;41,95368
 238,47;   37,692;   14,269;   68,032;43,56669
 239,07;   53,122;   33,272;   95,738;31,77624
 239,67;   79,779;   43,477;  131,421;41,27887
 240,27;   68,385;   46,773;  119,176;29,85014
 240,87;   69,681;   50,773;  119,533;27,49768
 241,47;   55,002;   39,164;   76,131;42,84498
 242,07;   44,828;   39,968;   92,894; 9,18226
 242,67;   36,149;  -11,027;   77,914;53,04160
 243,27;   31,200;    7,767;   46,418;60,62798
 243,87;   77,062;   48,671;  108,343;47,57873
 244,47;   53,978;   22,371;   99,703;40,87219
 245,07;   36,355;    2,669;   55,770;63,43795
 245,67;   51,396;   31,068;   85,575;37,29445
 246,27;   53,930;   34,965;   69,007;55,71026
 246,87;   41,144;   26,668;   63,154;39,67500
 247,46;   16,539;   19,663;   23,793;-75,65631
 248,06;   43,267;   20,470;   69,786;46,22536
 248,66;   53,637;   31,072;  105,898;30,15708
 249,26;   32,973;   32,366;   70,742; 1,58203
 249,86;   72,285;   42,873;  102,176;49,59661
 250,46;   52,388;   16,775;   93,507;46,41209
 251,06;   42,296;   22,168;   65,375;46,58516
 251,66;   35,730;   20,771;   64,724;34,03541
 252,26;   56,805;   38,866;   70,261;57,13855
 252,86;   55,155;   35,969;   89,070;36,13148
 253,46;    7,100;   -8,033;   22,118;50,19185
 254,06;   55,757;   31,766;   79,483;50,27834
 254,66;   56,633;   34,973;  100,155;33,23013
 255,26;   71,001;   39,073;  118,836;40,02907
 255,86;   41,002;   37,464;   55,631;19,47808
 256,46;   42,219;   19,870;   70,208;44,39819
 257,05;   53,215;   23,570;   59,565;82,35721
 257,65;   80,846;   38,071;   97,684;71,75533
 258,25;   61,653;   37,372;  101,457;37,88879
 258,85;   35,855;   15,669;   51,770;55,91585
 259,45;    8,623;    6,869;   42,951; 4,86271
 260,05;   54,200;   46,667;   85,818;19,24196
 260,65;   56,105;   45,066;   83,561;28,67563
 261,25;   51,462;   29,371;   85,943;39,04976
 261,85;   20,610;   -0,129;   47,622;43,43153
 262,45;   58,855;   46,169;  109,270;20,10454
 263,04;   78,517;   53,073;  116,295;40,24554
 263,64;   53,948;   33,767;   77,097;46,57551
 264,24;   66,294;   37,671;   89,062;55,69630
 264,84;  101,645;   58,974;  138,671;53,54081
 265,44;   36,480;   26,368;   67,716;24,45688
 266,04;   52,425;   48,865;   71,464;15,75227
 266,64;   49,637;   39,866;   86,780;20,82606
 267,24;   47,237;   40,166;   68,980;24,53788
 267,84;   38,476;   24,668;   76,573;26,60132
 268,43;   69,612;   48,368;   95,935;44,66150
 269,03;   61,007;   46,969;   87,892;34,30545
 269,63;   83,589;   58,566;   92,402;73,95408
 270,23;   13,593;   10,765;   39,045;10,00072
 270,83;   64,005;   55,266;   83,161;31,32706
 271,43;   35,664;   23,967;   58,856;33,52561
 272,03;   61,380;   64,168;   99,116;-7,97632
 272,62;   38,571;   23,269;   68,730;33,66002
 273,22;   36,683;   11,970;   61,046;50,35576
 273,82;   21,920;   17,460;   26,403;49,86841
 274,42;   27,318;   25,164;   46,890; 9,91609
 275,02;   37,898;   34,864;   60,388;11,88478
 275,62;   66,553;   31,972;  100,457;50,49434
 276,21;   42,035;   22,770;   69,267;41,43239
 276,81;   54,269;   46,767;   71,099;30,83068
 277,41;   50,042;   22,971;   96,341;36,89609
 278,01;   24,198;   21,364;   42,788;13,22571
 278,61;   63,639;   38,869;   83,811;55,11679
 279,20;   69,185;   65,473;  119,076; 6,92597
 279,80;   -1,037;    6,762;   11,539;-163,24625
 280,40;   55,073;   36,866;   79,742;42,46422
 281,00;    7,039;   -4,331;   33,311;30,20692
 281,60;   46,329;   20,774;   74,812;47,29042
 282,20;   43,719;   36,670;   70,108;21,08156
 282,79;   46,412;   29,568;   70,135;41,52175
 283,39;   26,289;   17,466;   44,702;32,39463
 283,99;   27,914;   23,165;   34,347;42,46868
 284,59;   25,687;   16,869;   45,289;31,02692
 285,19;   32,584;   27,067;   57,759;17,97765
 285,78;   45,019;   23,270;   63,808;53,65120
 286,38;   45,930;   39,665;   59,207;32,05880
 286,98;   44,212;   35,168;   73,535;23,57256
 287,58;   20,378;    4,771;   61,403;27,55911
 288,17;   39,501;    8,973;   80,336;42,77901
 288,77;   55,968;   19,976;   92,504;49,62431
 289,37;   21,155;   11,269;   57,670;21,30593
 289,97;   55,714;   48,965;   66,647;38,16809
 290,57;   71,874;   46,672;   93,260;54,09540
 291,16;   79,580;   63,868;  102,616;40,55029
 291,76;   29,183;    5,570;   47,346;56,52195
 292,36;   38,332;   34,367;   58,137;16,68096
 292,96;   29,469;   -3,127;   60,117;51,54111
 293,55;   31,069;   24,267;   65,399;16,53651
 294,15;   33,335;   26,870;   62,567;18,11074
 294,75;   54,130;   42,065;   66,207;49,97473
 295,35;   33,580;   21,068;   52,016;40,43047
 295,94;   44,753;   42,967;   66,740; 7,51306
 296,54;   39,160;   30,768;   70,613;21,06020
 297,14;   41,426;   29,971;   76,881;24,41832
 297,73;   22,977;   12,165;   40,085;38,72590
 298,33;   36,757;   28,066;   57,583;29,44514
 298,93;   50,544;   41,968;   82,554;21,12976
 299,53;   52,106;   24,872;   69,079;61,60501
 300,12;   17,326;  -12,229;   59,481;41,21410
 300,72;   62,548;   41,567;   91,197;42,27511
 301,32;   54,946;   25,771;   99,584;39,52635
 301,92;   19,934;    3,664;   33,050;55,36721
 302,51;   33,116;   11,567;   49,978;56,10237
 303,11;   24,484;   14,667;   48,759;28,79769
 303,71;   38,092;   21,369;   82,132;27,52142
 304,30;   20,541;    5,466;   38,423;45,74212
 304,90;   28,557;   19,666;   44,283;36,11863
 305,50;   48,693;   18,565;   64,345;65,81131
 306,09;   34,073;   15,466;   49,042;55,41728
 306,69;   64,894;   34,171;   90,262;54,77329
 307,29;   23,604;   18,760;   33,144;33,67645
 307,88;   55,987;   43,269;   72,489;43,52459
 308,48;   19,651;    0,070;   49,727;39,43226
 309,08;    9,607;   -4,437;   11,774;86,63085
 309,68;   26,677;   22,365;   39,585;25,04242
 310,27;   30,371;   20,169;   49,830;34,39597
 310,87;   36,860;   23,468;   54,813;42,72286
 311,47;   71,200;   54,967;   92,918;42,77453
 312,06;   54,561;   47,865;   68,426;32,56946
 312,66;   80,480;   51,168;  100,016;60,00740
 313,26;   72,830;   48,571;   96,224;50,90851
 313,85;   54,184;   38,267;   65,959;57,48137
 314,45;   56,939;   42,969;   86,611;32,01158
 315,04;   68,561;   52,165;   81,826;55,28010
 315,64;   36,748;   21,267;   47,897;58,13461
 316,24;   59,851;   40,770;   85,627;42,53712
 316,83;   52,773;   40,366;   76,742;34,10763
 317,43;   51,964;   35,167;   68,156;50,91639
 318,03;   41,870;   39,063;   70,012; 9,07007
 318,62;   83,231;   73,061;   94,820;46,74163
 319,22;   45,576;    7,668;   66,973;63,91994
 319,82;   60,480;   40,768;   93,516;37,37094
 320,41;   64,992;   59,069;   98,732;14,93309
 321,01;  101,593;   80,465;  115,945;59,55016
 321,60;   93,018;   81,164;  102,790;54,81396
 322,20;   98,333;   67,673;  132,855;47,03769
 322,80;   79,948;   54,567;   91,797;68,17438
 323,39;   70,582;   65,764;   94,828;16,57581
 323,99;   81,205;   61,766;  102,661;47,53310
 324,59;   61,770;   73,063;   97,512;-46,19055
 325,18;   68,216;   40,967;   92,178;53,21019
 325,78;   93,577;   76,365;  108,885;52,92816
 326,37;   84,196;   74,868;  108,075;28,09083
 326,97;   87,948;   63,267;  111,497;51,17396
 327,57;   53,339;   42,263;   76,493;32,35614
 328,16;   68,702;   60,864;   93,631;23,92213
 328,76;   84,553;   50,467;  110,140;57,12130
 329,35;   99,346;   56,871;  137,484;52,69069
 329,95;   63,719;   27,470;   91,308;56,78297
 330,54;   72,900;   52,167;   94,018;49,54086
 331,14;   56,669;   26,967;   82,599;53,38942
 331,74;   66,493;   54,165;   96,145;29,36703
 332,33;   58,151;   35,370;  108,127;31,31092
 332,93;   54,034;   43,764;   79,250;28,94162
 333,52;   68,089;   42,466;   93,102;50,60243
 334,12;   88,107;   72,069;  140,392;23,47498
 334,71;   68,173;   50,666;   87,942;46,96571
 335,31;   98,284;   63,267;  119,859;61,87756
 335,90;   45,643;   32,362;   53,836;61,84626
 336,50;   41,530;   30,665;   77,207;23,34440
 337,10;   79,271;   38,769;  121,530;48,93885
 337,69;   62,130;   51,765;   93,707;24,71257
 338,29;   62,832;   30,467;  101,037;45,86237
 338,88;   59,144;   22,468;   99,854;47,39341
 339,48;   83,427;   57,862;  111,677;47,50574
 340,07;   69,921;   48,566;  107,321;36,34534
 340,67;   69,946;   31,171;  124,784;41,42114
 341,26;   69,573;   48,466;   98,942;41,81583
 341,86;   95,703;   61,469;  138,348;44,52910
 342,45;   84,687;   45,669;  142,689;40,21632
 343,05;   72,087;   27,269;  115,689;50,68753
 343,64;   85,937;   47,366;  122,480;51,34913
 344,24;   42,830;   28,765;   92,107;22,20478
 344,83;   76,114;   71,365;  121,747; 9,42623
 345,43;   54,953;   29,667;  114,240;29,89848
 346,02;   69,223;   41,469;  124,351;33,48676
 346,62;   87,030;   40,971;  140,424;46,31280
 347,21;   61,377;   42,165;  131,985;21,38980
 347,81;   73,174;   26,172;  140,560;41,08996
 348,40;   50,202;   29,064;  100,731;29,49551
 349,00;   72,770;   49,163;  137,712;26,65999
 349,59;   98,183;   65,870;  177,846;28,85668
 350,19;   69,230;   32,571;  139,424;34,30842
 350,78;   66,284;   55,467;  140,759;12,68313
 351,38;   46,723;   15,869;  140,951;24,66743
 351,97;   64,253;   26,767;  136,040;34,30494
 352,57;   68,051;   42,570;  155,827;22,49829
 353,16;   43,782;   30,564;  134,328;12,73813
 353,76;   75,983;   38,770;  169,846;28,39006
 354,35;   65,303;   27,669;  160,148;28,40716
 354,95;   75,235;   43,970;  182,067;22,63985
 355,54;   72,776;   38,368;  163,973;27,39335
 356,14;   58,503;   40,069;  164,749;14,78479
 356,73;   53,327;   29,162;  145,176;20,82925
 357,32;   59,192;   13,769;  164,432;30,14863
 357,92;   69,690;   17,772;  181,419;31,72541
 358,51;   88,106;   43,372;  214,179;26,18959
 359,11;   80,974;   36,772;  212,360;25,17370
 359,70;   61,514;   28,470;  189,965;20,46143
 360,30;   80,463;   54,562;  188,039;19,40541
 360,89;   58,644;   31,168;  188,054;17,51316
 361,48;  101,635;   55,570;  216,467;28,63007
 362,08;   57,164;   19,867;  187,156;22,29478
 362,67;   58,239;   39,763;  192,693;12,08101
 363,27;   95,916;   60,767;  247,678;18,80539
 363,86;   81,393;   35,765;  215,745;25,35185
 364,46;   95,402;   44,664;  257,231;23,86945
 365,05;  104,829;   64,659;  254,989;21,10545
 365,64;  103,440;   50,960;  269,706;23,99160
 366,24;  129,033;   38,558;  309,432;33,40122
 366,83;  139,399;   43,255;  335,383;32,91151
 367,43;  150,357;   51,545;  352,843;32,79538
 368,02;  159,448;   34,646;  399,757;34,18182
 368,61;  211,356;   62,239;  475,425;36,08952
 369,21;  187,846;   32,419;  445,299;37,64462
 369,80;  222,333;   43,007;  526,947;37,05550
 370,39;  268,206;   62,006;  604,971;37,97666
 370,99;  272,283;   42,089;  615,416;40,15062
 371,58;  275,599;   22,974;  630,953;41,55169
 372,18;  325,076;   37,166;  701,603;43,33140
 372,77;  292,317;   42,449;  679,385;39,22957
 373,36;  328,182;   42,747;  690,836;44,04261
 373,96;  298,560;   35,135;  639,498;43,58719
 374,55;  299,279;   29,844;  621,406;45,54648
 375,14;  271,701;   42,849;  573,826;43,10010
 375,74;  265,224;   69,157;  543,276;41,35403
 376,33;  229,484;   45,964;  464,589;43,83887
 376,92;  199,993;   33,278;  447,997;40,19953
 377,52;  275,635;   86,103;  548,460;40,99254
 378,11;  216,740;   46,703;  457,203;41,42187
 378,71;  237,975;   73,011;  514,270;37,38477
 379,30;  265,860;   59,517;  553,928;41,73503
 379,89;  261,698;   59,813;  556,103;40,67879
 380,49;  252,155;   31,018;  568,185;41,16733
 381,08;  294,238;   70,306;  570,990;44,72514
 381,67;  294,377;   55,008;  555,483;47,82832
 382,26;  274,738;   41,706;  539,390;46,82321
 382,86;  270,903;   54,003;  516,041;46,94423
 383,45;  286,618;   50,412;  562,105;46,16161
 384,04;  292,686;   38,712;  553,886;49,29868
 384,64;  292,193;   49,014;  566,760;46,96887
 385,23;  301,870;   64,406;  560,509;47,86573
 385,82;  323,884;   59,615;  592,774;49,56670
 386,42;  348,588;   61,024;  659,022;48,08780
 387,01;  330,061;   55,414;  580,541;52,30121
 387,60;  345,572;   69,009;  590,140;53,06986
 388,20;  337,618;   37,712;  590,805;54,22338
 388,79;  392,603;   72,418;  665,563;53,98084
 389,38;  338,638;   32,106;  564,890;57,53393
 389,97;  374,253;   45,415;  640,955;55,21672
 390,57;  415,541;   71,114;  654,038;59,08606
 391,16;  424,741;   62,514;  655,838;61,05043
 391,75;  392,114;   52,713;  638,562;57,93308
 392,34;  440,206;   60,821;  696,694;59,66361
 392,94;  432,635;   44,718;  689,683;60,14543
 393,53;  435,648;   41,016;  666,612;63,08102
 394,12;  462,376;   53,023;  719,105;61,45688
 394,72;  479,630;   54,213;  706,122;65,25705
 395,31;  484,584;   42,115;  694,874;67,78451
 395,90;  524,604;   42,924;  732,881;69,81300
 396,49;  545,134;   58,028;  779,187;67,54483
 397,09;  542,576;   47,417;  749,188;70,55846
 397,68;  574,067;   44,025;  800,719;70,04714
 398,27;  591,890;   54,626;  809,652;71,15839
 398,86;  595,131;   43,125;  807,657;72,20183
 399,45;  638,768;   56,630;  844,037;73,93106
 400,05;  605,978;   23,820;  799,518;75,04961
 400,64;  633,667;   56,419;  831,001;74,52374
 401,23;  659,742;   53,920;  859,956;75,16065
 401,82;  666,142;   67,220;  868,256;74,76841
 402,42;  688,822;   62,921;  873,953;77,17332
 403,01;  747,167;   81,525;  912,919;80,06342
 403,60;  746,296;   68,532;  940,513;77,72693
 404,19;  758,136;   76,024;  931,900;79,69747
 404,78;  745,449;   57,522;  909,929;80,70403
 405,38;  790,475;   68,332;  984,210;78,84710
 405,97;  787,659;   63,226;  953,933;81,33231
 406,56;  827,282;   71,528; 1004,366;81,01661
 407,15;  817,309;   68,829;  989,442;81,30237
 407,74;  848,120;   80,730; 1026,758;81,11707
 408,34;  845,807;   50,933; 1018,629;82,14090
 408,93;  857,148;   59,531; 1016,234;83,37141
 409,52;  873,910;   51,435; 1041,359;83,08461
 410,11;  929,880;   84,931; 1090,453;84,03084
 410,70;  892,738;   54,727; 1027,230;86,17052
 411,29;  907,350;   58,628; 1030,847;87,29739
 411,89;  938,958;   60,535; 1093,938;85,00291
 412,48;  919,466;   48,228; 1051,606;86,83042
 413,07;  968,419;   65,033; 1101,446;87,16468
 413,66;  987,826;   78,135; 1102,119;88,83838
 414,25;  984,765;   63,337; 1142,311;85,39848
 414,84;  996,548;   69,431; 1102,434;89,74966
 415,44; 1028,789;   91,530; 1155,939;88,05435
 416,03; 1019,201;   76,637; 1161,173;86,90940
 416,62; 1037,292;   76,138; 1168,687;87,97352
 417,21; 1052,298;   75,334; 1158,843;90,16670
 417,80; 1058,380;   65,037; 1162,871;90,48214
 418,39; 1061,783;   78,440; 1179,201;89,33303
 418,98; 1048,235;   55,634; 1143,405;91,25088
 419,58; 1055,971;   64,033; 1142,067;92,01360
 420,17; 1075,678;   52,735; 1164,540;92,00738
 420,76; 1106,101;   72,537; 1192,873;92,25480
 421,35; 1076,374;   60,236; 1155,197;92,80123
 421,94; 1117,683;   88,340; 1223,501;90,67816
 422,53; 1083,115;   61,540; 1195,320;90,10346
 423,12; 1104,340;   64,039; 1190,766;92,32948
 423,71; 1077,458;   60,835; 1162,138;92,31089
 424,30; 1111,753;   85,236; 1210,695;91,20877
 424,90; 1082,644;   39,438; 1163,809;92,78136
 425,49; 1106,867;   70,140; 1216,242;90,45683
 426,08; 1112,267;   80,240; 1209,641;91,37824
 426,67; 1068,489;   57,436; 1168,257;91,01858
 427,26; 1111,202;   60,343; 1230,391;89,81331
 427,85; 1081,860;   63,238; 1209,968;88,82842
 428,44; 1121,322;   68,442; 1218,093;91,58255
 429,03; 1114,358;   85,341; 1233,155;89,65015
 429,62; 1089,942;   78,941; 1240,296;87,05361
 430,21; 1122,913;   81,443; 1277,807;87,05293
 430,80; 1095,820;   70,445; 1235,381;88,01990
 431,39; 1095,045;   53,344; 1246,926;87,27518
 431,99; 1103,758;   78,535; 1206,838;90,86413
 432,58; 1092,640;   82,639; 1251,166;86,43370
 433,17; 1085,826;   69,735; 1238,319;86,95060
 433,76; 1110,443;   71,347; 1288,314;85,38412
 434,35; 1087,988;   88,245; 1292,462;83,02023
 434,94; 1107,550;   70,849; 1318,887;83,06649
 435,53; 1085,449;   78,643; 1278,669;83,89870
 436,12; 1093,529;   70,044; 1294,267;83,60285
 436,71; 1089,647;   87,740; 1303,239;82,42761
 437,30; 1096,111;   76,941; 1299,177;83,38566
 437,89; 1112,872;   76,245; 1320,802;83,29288
 438,48; 1106,486;   65,942; 1305,731;83,92907
 439,07; 1099,808;   95,238; 1347,147;80,24307
 439,66; 1163,323;   83,648; 1375,711;83,56210
 440,25; 1121,529;   85,844; 1390,567;79,37971
 440,84; 1123,430;   79,850; 1387,984;79,77621
 441,43; 1182,519;   78,054; 1440,985;81,03599
 442,02; 1154,994;   79,650; 1411,022;80,76956
 442,61; 1173,645;   93,344; 1397,226;82,85265
 443,20; 1199,414;   94,249; 1446,625;81,72024
 443,79; 1190,248;   74,546; 1412,957;83,36019
 444,38; 1246,671;   84,248; 1461,789;84,38386
 444,97; 1246,768;   84,146; 1466,359;84,11309
 445,56; 1294,416;  101,846; 1477,038;86,72026
 446,15; 1326,005;   81,651; 1522,539;86,36024
 446,74; 1301,261;   58,644; 1462,286;88,52807
 447,33; 1344,448;   82,646; 1538,357;86,67943
 447,92; 1405,073;   78,151; 1570,720;88,90192
 448,51; 1426,284;   89,746; 1586,019;89,32449
 449,10; 1451,636;   92,045; 1608,840;89,63577
 449,69; 1499,026;   73,950; 1627,741;91,71601
 450,28; 1495,307;   66,948; 1608,251;92,67214
 450,87; 1552,975;   78,647; 1656,333;93,44879
 451,46; 1604,302;   96,048; 1702,208;93,90434
 452,05; 1604,430;   70,950; 1715,384;93,25273
 452,64; 1654,010;   70,850; 1725,182;95,69782
 453,23; 1729,785;  113,752; 1794,936;96,12467
 453,82; 1731,457;   83,451; 1800,660;95,97003
 454,40; 1734,709;   65,450; 1786,682;96,98051
 454,99; 1827,160;  101,253; 1871,891;97,47375
 455,58; 1824,011;   69,747; 1832,095;99,54134
 456,17; 1860,264;   63,852; 1873,634;99,26128
 456,76; 1927,273;   67,751; 1918,820;100,45667
 457,35; 1943,171;   78,348; 1930,490;100,68468
 457,94; 1969,324;   66,954; 1978,929;99,49764
 458,53; 1994,941;   67,350; 2010,101;99,21969
 459,12; 2059,522;   82,657; 2111,116;97,45648
 459,71; 2038,139;   58,148; 2060,071;98,90447
 460,30; 2068,223;   84,448; 2087,511;99,03707
 460,89; 2094,073;   57,551; 2129,920;98,27027
 461,48; 2139,524;   75,954; 2173,829;98,36478
 462,06; 2145,762;   68,050; 2187,303;98,03979
 462,65; 2113,734;   48,249; 2176,527;97,04959
 463,24; 2205,578;   87,456; 2288,680;96,22474
 463,83; 2186,362;   54,450; 2229,803;98,00301
 464,42; 2218,250;   88,349; 2333,687;94,85882
 465,01; 2244,010;   73,050; 2336,482;95,91450
 465,60; 2232,594;   64,050; 2384,322;93,46073
 466,19; 2255,624;   73,354; 2462,829;91,32843
 466,77; 2238,105;   81,551; 2462,939;90,55871
 467,36; 2237,206;   69,457; 2459,256;90,70840
 467,95; 2252,821;   79,551; 2466,098;91,06335
 468,54; 2262,787;   71,954; 2513,866;89,71793
 469,13; 2230,369;   69,452; 2535,977;87,60978
 469,72; 2258,283;   67,555; 2582,723;87,10065
 470,31; 2265,315;   87,855; 2629,242;85,67996
 470,90; 2247,346;   76,750; 2652,044;84,28536
 471,48; 2223,038;   32,057; 2671,875;82,99741
 472,07; 2262,627;  125,747; 2686,454;83,44883
 472,66; 2244,912;   67,853; 2748,412;81,21661
 473,25; 2249,405;   68,351; 2723,339;82,14930
 473,84; 2286,735;   55,955; 2766,545;82,29870
 474,43; 2278,045;   55,459; 2843,049;79,73145
 475,01; 2309,303;   69,254; 2885,926;79,52822
 475,60; 2296,567;   49,755; 2882,364;79,31952
 476,19; 2395,033;   74,158; 2956,932;80,50839
 476,78; 2391,706;   71,057; 2964,456;80,20493
 477,37; 2388,767;   59,355; 2945,364;80,71396
 477,95; 2454,847;   75,656; 3018,661;80,84222
 478,54; 2487,460;   63,253; 3023,691;81,88677
 479,13; 2526,460;   56,253; 3070,291;81,95674
 479,72; 2570,755;   81,154; 3090,147;82,73868
 480,31; 2635,577;   63,459; 3167,468;82,86438
 480,89; 2630,503;   60,254; 3171,026;82,62415
 481,48; 2688,388;   46,260; 3214,084;83,40514
 482,07; 2738,987;   61,654; 3233,866;84,39956
 482,66; 2772,476;   52,853; 3253,650;84,96705
 483,25; 2869,688;   78,960; 3319,884;86,10903
 483,83; 2868,819;   59,954; 3325,385;86,01819
 484,42; 2905,424;   54,354; 3355,129;86,37577
 485,01; 2924,701;   65,958; 3400,413;85,73345
 485,60; 3008,118;   73,764; 3490,590;85,87952
 486,18; 2984,647;   66,956; 3490,761;85,21777
 486,77; 2992,485;   67,252; 3519,736;84,72834
 487,36; 3068,734;   58,464; 3561,750;85,92705
 487,95; 3093,868;   59,161; 3640,781;84,72999
 488,53; 3080,352;   54,461; 3642,522;84,33220
 489,12; 3086,554;   50,563; 3722,252;82,68650
 489,71; 3076,395;   38,062; 3680,357;83,41809
 490,30; 3133,520;   61,460; 3742,503;83,45623
 490,88; 3122,684;   87,561; 3859,141;80,47350
 491,47; 3124,870;   60,663; 3867,512;80,49196
 492,06; 3084,691;   62,563; 3920,615;78,33301
 492,65; 3085,115;   59,161; 3947,060;77,83007
 493,23; 3096,472;   54,860; 3982,825;77,43481
 493,82; 3060,944;   65,853; 4018,031;75,78330
 494,41; 3060,747;   51,361; 4066,179;74,95698
 494,99; 3045,835;   73,655; 4126,945;73,32760
 495,58; 3024,620;   86,060; 4224,403;71,00812
 496,17; 2978,678;   56,356; 4198,681;70,54789
 496,76; 2995,547;   65,356; 4276,761;69,57751
 497,34; 2933,454;   54,557; 4305,235;67,72794
 497,93; 2910,838;   66,057; 4350,675;66,39519
 498,52; 2940,809;   60,059; 4454,387;65,55609
 499,10; 2869,511;   75,862; 4533,217;62,67504
 499,69; 2786,340;   55,360; 4537,006;60,93700
 500,28; 2797,577;   37,959; 4592,068;60,59621
 500,86; 2780,063;   62,862; 4698,539;58,61499
 501,45; 2766,863;   53,462; 4730,438;58,01615
 502,04; 2759,995;   53,362; 4813,958;56,85493
 502,62; 2736,578;   70,956; 4856,181;55,70527
 503,21; 2696,810;   57,856; 4939,699;54,05651
 503,80; 2725,527;   69,662; 5015,577;53,69816
 504,38; 2701,372;   58,460; 5081,425;52,61658
 504,97; 2700,827;   49,962; 5122,776;52,25630
 505,56; 2717,529;   70,859; 5194,989;51,65111
 506,14; 2707,750;   64,064; 5263,709;50,84358
 506,73; 2661,230;   23,565; 5292,507;50,06062
 507,32; 2732,893;   62,865; 5376,045;50,25292
 507,90; 2748,088;   70,860; 5443,284;49,83278
 508,49; 2787,246;   58,865; 5500,366;50,14022
 509,08; 2792,102;   67,264; 5571,931;49,50051
 509,66; 2837,104;   69,960; 5677,644;49,34558
 510,25; 2847,000;   63,561; 5737,400;49,05741
 510,83; 2876,630;   45,165; 5855,607;48,73063
 511,42; 2919,460;   61,968; 5895,913;48,98043
 512,01; 2937,682;   59,164; 5980,328;48,61405
 512,59; 2982,727;   46,562; 6041,676;48,97596
 513,18; 3017,448;   59,961; 6114,379;48,84840
 513,77; 3048,290;   42,257; 6171,797;49,04174
 514,35; 3066,475;   37,763; 6190,255;49,22741
 514,94; 3101,011;   58,662; 6323,517;48,56216
 515,52; 3123,173;   48,166; 6358,342;48,73092
 516,11; 3229,814;   80,665; 6474,047;49,25638
 516,69; 3167,093;   41,959; 6446,727;48,79386
 517,28; 3226,717;   83,358; 6541,973;48,66925
 517,87; 3181,885;   45,558; 6604,054;47,82084
 518,45; 3225,449;   74,858; 6626,192;48,09083
 519,04; 3215,397;   54,258; 6707,970;47,50940
 519,62; 3221,091;   55,863; 6774,114;47,11387
 520,21; 3211,389;   24,466; 6828,002;46,84216
 520,79; 3264,396;   52,068; 7000,875;46,22848
 521,38; 3248,136;   52,960; 6995,363;46,02406
 521,97; 3243,244;   43,068; 7141,554;45,08251
 522,55; 3225,913;   67,759; 7195,230;44,30960
 523,14; 3197,729;   26,759; 7180,289;44,32734
 523,72; 3201,752;   77,561; 7383,422;42,76281
 524,31; 3176,630;   71,665; 7406,107;42,33403
 524,89; 3169,280;   48,468; 7526,815;41,73131
 525,48; 3082,037;   21,666; 7603,580;40,36409
 526,06; 3070,982;   56,264; 7633,128;39,78846
 526,65; 3069,599;   72,370; 7803,105;38,77029
 527,23; 2971,459;   46,262; 7840,596;37,52979
 527,82; 3025,016;   37,967; 7905,978;37,96448
 528,41; 3046,221;   67,366; 8041,021;37,35871
 528,99; 3109,746;   66,365; 8108,167;37,84451
 529,58; 3176,943;   42,562; 8168,736;38,57142
 530,16; 3324,147;   49,461; 8315,379;39,61673
 530,75; 3553,466;   73,964; 8417,069;41,70512
 531,33; 3737,937;   45,566; 8440,980;43,98080
 531,92; 4009,904;   48,560; 8567,344;46,50129
 532,50; 4318,835;   87,770; 8706,468;49,09170
 533,09; 4546,509;   65,665; 8807,204;51,25921
 533,67; 4814,781;   63,458; 8952,011;53,45441
 534,26; 5037,756;   65,760; 9007,665;55,60332
 534,84; 5248,616;   68,461; 9127,061;57,18494
 535,42; 5424,966;   61,564; 9205,969;58,65228
 536,01; 5660,391;   79,263; 9330,215;60,33031
 536,59; 5747,189;   43,366; 9482,202;60,42930
 537,18; 5849,840;   77,360; 9568,605;60,81900
 537,76; 5980,958;   56,972; 9764,700;61,02340
 538,35; 6114,628;   59,368; 9892,694;61,57896
 538,93; 6197,782;   72,664; 9941,828;62,06319
 539,52; 6251,298;   57,370;10111,405;61,60639
 540,10; 6396,671;   63,269;10309,029;61,81486
 540,69; 6452,586;   68,763;10444,071;61,52900
 541,27; 6515,811;   58,262;10514,917;61,75540
 541,85; 6602,157;   47,366;10658,783;61,77112
 542,44; 6660,588;   56,460;10765,484;61,66881
 543,02; 6807,671;   80,369;10952,729;61,87527
 543,61; 6840,700;   77,067;11102,218;61,34731
 544,19; 6900,641;   55,066;11264,023;61,07236
 544,78; 6935,905;   62,766;11296,562;61,18269
 545,36; 7080,839;   77,469;11521,011;61,19933
 545,94; 7107,066;   54,564;11563,069;61,28078
 546,53; 7169,526;   52,771;11724,882;60,97230
 547,11; 7304,976;   90,668;11879,873;61,19418
 547,70; 7333,440;   75,860;11954,706;61,09668
 548,28; 7348,545;   47,965;12093,066;60,61037
 548,86; 7513,346;   81,365;12327,767;60,68706
 549,45; 7523,644;   33,768;12364,953;60,73930
 550,03; 7560,132;   76,467;12507,537;60,20130
 550,62; 7686,273;   63,566;12662,842;60,50115
 551,20; 7810,700;   61,467;12808,418;60,79284
 551,78; 7795,134;   61,164;12952,850;59,99192
 552,37; 7858,466;   55,864;13112,469;59,75981
 552,95; 7934,514;   56,765;13214,547;59,87140
 553,54; 8080,130;   49,965;13393,207;60,18151
 554,12; 8119,648;   67,167;13498,797;59,95163
 554,70; 8246,575;   67,568;13736,973;59,83441
 555,29; 8297,478;   61,965;13856,285;59,70220
 555,87; 8356,267;   60,170;13987,786;59,56580
 556,45; 8376,295;   57,162;14154,058;59,01394
 557,04; 8504,669;   43,667;14376,600;59,03190
 557,62; 8601,669;   68,867;14525,499;59,02344
 558,20; 8705,742;   42,671;14799,940;58,70375
 558,79; 8832,596;  100,368;14905,875;58,97959
 559,37; 8817,500;   49,867;15000,418;58,64421
 559,95; 8925,907;   46,669;15169,691;58,71338
 560,54; 9052,560;   71,768;15324,613;58,87945
 561,12; 9076,405;   50,866;15485,562;58,47565
 561,70; 9139,924;   50,369;15679,551;58,15759
 562,29; 9279,228;   61,768;15810,994;58,52643
 562,87; 9307,943;   73,168;16023,953;57,89543
 563,45; 9488,244;   71,068;16194,754;58,40585
 564,04; 9475,759;   54,362;16227,195;58,25446
 564,62; 9567,292;   37,769;16438,332;58,10485
 565,20; 9609,063;   59,962;16715,838;57,33173
 565,78; 9706,361;   70,765;16797,326;57,60656
 566,37; 9828,857;   71,066;17011,283;57,60134
 566,95; 9876,171;   52,969;17124,330;57,54200
 567,53;10003,095;   67,262;17308,857;57,62711
 568,12;10082,745;   62,265;17367,766;57,90344
 568,70;10186,498;   85,264;17565,889;57,78531
 569,28;10236,424;   61,069;17745,252;57,53930
 569,86;10259,685;   67,767;17910,758;57,12001
 570,45;10468,987;   78,569;18124,689;57,57702
 571,03;10445,379;   53,962;18259,898;57,07708
 571,61;10611,330;   46,571;18424,824;57,48511
 572,19;10583,406;   54,263;18395,773;57,40609
 572,78;10742,496;   70,668;18668,975;57,38064
 573,36;10788,666;   84,264;18797,668;57,20179
 573,94;10898,934;   44,064;18892,750;57,58953
 574,52;10958,977;   54,559;19030,768;57,46363
 575,11;11012,402;   37,264;19159,830;57,39365
 575,69;11044,937;   53,566;19268,680;57,20169
 576,27;11119,768;   47,161;19391,381;57,23987
 576,85;11221,366;   43,264;19549,668;57,30478
 577,44;11260,195;   30,262;19814,158;56,76300
 578,02;11311,809;   32,159;19753,887;57,19402
 578,60;11465,418;   50,464;20073,791;57,00828
 579,18;11509,755;   51,963;20160,752;56,97902
 579,76;11592,582;   40,264;20300,129;57,02071
 580,35;11639,519;   60,170;20436,707;56,82687
 580,93;11797,964;   59,667;20641,557;57,03216
 581,51;11801,535;   24,770;20697,168;56,96855
 582,09;11885,475;   58,663;20755,756;57,14238
 582,67;11990,400;   49,567;20971,318;57,07378
 583,26;12126,960;   28,568;21227,014;57,07207
 583,84;12200,950;   14,164;21413,709;56,94881
 584,42;12236,397;   48,064;21513,287;56,78177
 585,00;12415,637;   81,366;21772,180;56,86403
 585,58;12422,068;   25,167;21912,299;56,64014
 586,17;12487,651;   46,761;21948,521;56,80315
 586,75;12516,188;    6,666;22026,902;56,80921
 587,33;12640,816;   47,767;22191,678;56,86913
 587,91;12740,389;   74,866;22390,201;56,75704
 588,49;12693,795;   63,962;22349,758;56,67212
 589,07;12714,580;   45,468;22403,215;56,66542
 589,65;12705,353;   28,267;22444,439;56,55330
 590,24;12810,079;   42,562;22447,799;56,98452
 590,82;12728,016;   28,261;22484,160;56,55420
 591,40;12743,250;   41,464;22520,209;56,50576
 591,98;12751,593;   45,759;22558,227;56,43910
 592,56;12877,615;   61,161;22699,961;56,61278
 593,14;12844,192;   43,359;22728,928;56,42721
 593,72;12878,930;   29,765;22889,107;56,20969
 594,30;12838,509;   36,759;22797,486;56,24491
 594,89;12871,582;   41,364;22862,428;56,22095
 595,47;12924,252;   38,961;22922,623;56,30782
 596,05;12916,669;   30,267;23003,799;56,09239
 596,63;12931,969;   31,167;23056,199;56,02946
 597,21;12946,673;   36,766;23145,441;55,86606
 597,79;12858,952;   35,467;23166,039;55,43955
 598,37;12799,403;   36,669;23222,748;55,04481
 598,95;12742,089;   50,766;23305,301;54,57569
 599,53;12595,890;   46,757;23207,996;54,18161
 600,11;12539,313;   48,665;23341,947;53,62339
 600,70;12217,170;   57,363;23315,111;52,28282
 601,28;12016,650;   38,564;23424,809;51,21851
 601,86;11645,489;   61,766;23355,102;49,72977
 602,44;11366,516;   23,661;23449,660;48,41994
 603,02;11037,063;   38,656;23576,521;46,72644
 603,60;10718,633;   54,858;23663,232;45,16946
 604,18;10287,423;   69,263;23594,734;43,43445
 604,76; 9849,975;   59,263;23642,154;41,51616
 605,34; 9496,325;   27,565;23530,764;40,28711
 605,92; 9359,731;   59,561;23453,719;39,75424
 606,50; 9189,579;   17,662;23498,998;39,06046
 607,08; 9213,937;   31,666;23394,881;39,30226
 607,66; 9460,773;   39,266;23561,643;40,05338
 608,24; 9696,885;   46,067;23522,059;41,10931
 608,82; 9988,402;   26,164;23532,031;42,38192
 609,40;10242,721;   46,466;23471,021;43,52806
 609,98;10615,782;   18,864;23505,928;45,11811
 610,56;10953,836;   43,861;23497,662;46,51687
 611,14;11165,777;   30,765;23481,086;47,48341
 611,72;11380,846;   42,665;23572,467;48,18647
 612,30;11453,659;   24,962;23468,496;48,74989
 612,88;11587,613;   60,659;23517,730;49,14064
 613,46;11565,079;   21,862;23505,697;49,15388
 614,04;11614,575;   30,068;23461,873;49,43924
 614,62;11562,168;   41,561;23489,982;49,13170
 615,20;11503,380;   52,768;23402,416;49,03976
 615,78;11440,571;   25,569;23463,430;48,70326
 616,36;11330,434;   41,364;23400,150;48,32901
 616,94;11229,673;    7,666;23272,242;48,23646
 617,52;11070,464;   24,067;23373,656;47,30874
 618,10;11017,360;   63,559;23336,107;47,06748
 618,68;10810,257;   17,966;23253,184;46,44799
 619,26;10600,912;   39,268;23398,834;45,21336
 619,84;10386,123;   18,963;23277,133;44,57427
 620,42;10264,529;   31,165;23313,506;43,95333
 621,00;10033,529;   28,865;23209,607;43,15938
 621,58; 9866,841;   38,760;23216,406;42,40327
 622,16; 9706,015;   49,270;23335,164;41,47036
 622,74; 9574,773;   47,066;23327,742;40,92539
 623,32; 9400,142;   42,166;23291,223;40,25099
 623,90; 9326,946;   66,971;23311,484;39,83725
 624,48; 9222,279;   32,662;23196,598;39,67209
 625,05; 9205,079;   34,562;23105,098;39,74991
 625,63; 9127,879;   52,962;23188,799;39,22450
 626,21; 9065,159;   38,262;23117,596;39,11247
 626,79; 9123,900;   53,967;23219,719;39,15234
 627,37; 9090,611;   28,162;23090,717;39,29508
 627,95; 9110,580;   72,768;23200,215;39,07830
 628,53; 9087,930;   49,365;23176,607;39,08190
 629,11; 9133,444;   48,259;23043,449;39,50907
 629,69; 9302,991;   53,369;23256,932;39,86294
 630,27; 9336,522;   80,763;23105,434;40,19931
 630,84; 9365,379;   43,862;23021,197;40,56831
 631,42; 9446,764;   54,367;23319,656;40,37086
 632,00; 9490,776;   45,459;23125,768;40,92370
 632,58; 9558,387;   50,263;23105,172;41,24121
 633,16; 9666,698;   49,870;23096,906;41,72696
 633,74; 9699,598;   56,264;23018,488;41,99651
 634,32; 9722,483;   45,661;23007,842;42,14244
 634,90; 9875,482;   51,970;23195,746;42,44559
 635,47; 9818,004;   38,860;23035,645;42,52396
 636,05; 9823,384;   37,461;22989,342;42,63669
 636,63; 9883,130;   45,965;23104,807;42,66114
 637,21; 9906,782;   67,464;23150,529;42,62570
 637,79; 9984,909;   71,465;23192,904;42,87555
 638,37; 9860,499;   54,055;23070,883;42,60554
 638,94; 9832,077;   33,265;23100,686;42,47901
 639,52; 9839,478;   41,665;23195,285;42,31655
 640,10; 9782,459;   64,264;23215,900;41,97628
 640,68; 9702,322;   54,164;23175,334;41,72868
 641,26; 9582,687;   35,864;23250,268;41,12457
 641,84; 9491,450;   39,164;23235,002;40,74992
 642,41; 9436,015;   28,264;23192,936;40,61249
 642,99; 9341,378;   48,464;23145,568;40,23411
 643,57; 9242,042;   22,064;23158,402;39,85064
 644,15; 9155,906;   27,064;23178,035;39,43179
 644,73; 9089,970;   37,564;23277,568;38,95182
 645,30; 8942,834;   55,264;23230,303;38,34975
 645,88; 8891,698;   44,964;23362,635;37,94004
 646,46; 8861,361;   59,264;23447,568;37,63461
 647,04; 8807,626;   51,864;23367,902;37,55253
 647,61; 8748,689;   46,564;23396,336;37,26857
 648,19; 8775,854;   61,664;23433,369;37,28521
 648,77; 8791,418;   26,264;23442,002;37,43275
 649,35; 8797,781;   51,064;23590,137;37,15829
 649,92; 8865,346;   42,464;23596,070;37,45873
 650,50; 8885,209;   30,064;23551,104;37,64776
 651,08; 8966,773;   39,964;23450,537;38,13153
 651,66; 9026,837;   21,864;23534,770;38,29800
 652,23; 9163,102;   39,064;23561,004;38,78948
 652,81; 9219,165;   36,464;23644,137;38,89710
 653,39; 9377,829;   56,164;23647,170;39,51364
 653,97; 9333,193;   37,065;23882,504;38,98493
 654,54; 9396,957;   23,565;23823,137;39,38471
 655,12; 9480,921;   30,965;23831,971;39,70402
 655,70; 9510,984;   42,065;23962,805;39,58456
 656,28; 9531,948;   32,765;23947,037;39,72182
 656,85; 9545,713;   44,065;24051,070;39,57865
 657,43; 9508,877;   -1,035;23831,305;39,90339
 658,01; 9509,341;   21,465;24078,539;39,43903
 658,58; 9649,204;   55,165;24234,371;39,67888
 659,16; 9583,269;   51,965;24154,105;39,54547
 659,74; 9614,532;   59,465;24338,039;39,35597
 660,32; 9654,996;   71,665;24327,672;39,50910
 660,89; 9636,960;   34,265;24347,305;39,49607
 661,47; 9701,324;   51,665;24464,939;39,52628
 662,05; 9633,088;   25,365;24587,373;39,11619
 662,62; 9795,352;   59,665;24584,006;39,69806
 663,20; 9849,516;   80,665;24740,139;39,61500
 663,78; 9960,580;   47,965;24902,773;39,88208
 664,35; 9959,344;   52,465;24921,006;39,83699
 664,93; 9999,008;   64,465;25123,539;39,64449
 665,51;10015,771;   49,565;25170,973;39,67217
 666,08;10134,436;   30,165;25185,707;40,16717
 666,66;10278,999;   47,465;25667,539;39,93561
 667,23;10300,764;   51,765;25732,773;39,90886
 667,81;10472,327;   65,865;25889,307;40,29851
 668,39;10530,892;   43,265;26047,141;40,33101
 668,96;10634,555;   54,665;26309,074;40,29757
 669,54;10680,819;   38,765;26408,408;40,35722
 670,12;10783,583;   51,165;26808,740;40,10983
 670,69;10938,147;   64,165;26950,674;40,44401
 671,27;10957,311;   25,565;27096,008;40,38259
 671,84;10875,075;   40,665;27105,240;40,03170
 672,42;10981,339;   66,265;27253,875;40,14723
 673,00;11071,603;   57,165;27531,408;40,09005
 673,57;10959,366;   59,965;27276,441;40,04707
 674,15;11030,931;   64,065;27613,475;39,80799
 674,72;10919,895;   58,565;27536,209;39,52788
 675,30;10907,858;   69,466;27513,541;39,49265
 675,88;10941,122;   36,266;27573,176;39,60087
 676,45;10971,086;   59,466;27677,309;39,50931
 677,03;10923,050;   67,866;27525,043;39,53496
 677,60;10960,814;   41,466;27770,576;39,37865
 678,18;11012,979;   59,466;27877,510;39,37557
 678,76;11072,742;   40,766;27809,143;39,72856
 679,33;11094,306;   57,666;27813,176;39,76378
 679,91;11146,370;   44,266;27813,311;39,98015
 680,48;11220,334;   28,766;27740,242;40,38604
 681,06;11372,198;   50,866;27735,176;40,89440
 681,63;11300,361;   37,566;27736,209;40,66190
 682,21;11432,726;   67,966;27797,543;40,98425
 682,78;11427,590;   20,566;27459,576;41,57229
 683,36;11464,953;   46,966;27565,510;41,49197
 683,93;11522,718;   30,466;27450,645;41,91166
 684,51;11566,781;   26,166;27477,277;42,04061
 685,08;11695,346;   38,966;27733,711;42,08878
 685,66;11705,509;   53,066;27694,045;42,15640
 686,24;11728,173;   33,766;27796,578;42,12256
 686,81;11838,537;   57,666;27899,910;42,31294
 687,39;11777,501;   38,866;27807,844;42,27248
 687,96;11782,365;   54,166;27850,479;42,19336
 688,54;11860,729;   30,866;27984,811;42,31912
 689,11;11849,793;   26,966;28043,545;42,19940
 689,69;11902,057;   29,666;28019,279;42,41713
 690,26;11983,621;   59,466;28289,313;42,23953
 690,84;11953,484;   50,066;28239,846;42,22601
 691,41;11890,948;   35,966;28403,879;41,79011
 691,98;11845,412;   31,466;28427,912;41,60361
 692,56;11899,776;   32,866;28437,445;41,77816
 693,13;12089,841;   64,866;28655,080;42,05976
 693,71;12035,604;   24,466;28657,912;41,94793
 694,28;12091,568;   41,966;28715,945;42,02278
 694,86;12093,632;   47,266;28928,879;41,70946
 695,43;12153,696;   61,366;29100,912;41,64091
 696,01;12262,360;   36,266;29145,547;42,00067
 696,58;12304,024;   42,167;29083,879;42,22154
 697,16;12388,688;   38,067;29126,414;42,45900
 697,73;12536,552;   63,467;29338,246;42,60693
 698,30;12586,216;   51,867;29223,980;42,96689
 698,88;12683,880;   40,467;29558,613;42,83268
 699,45;12780,743;   35,367;29765,848;42,86973
 700,03;12891,008;   56,067;29750,980;43,22269
 700,60;12932,672;   56,267;29850,613;43,21761
 701,18;13094,335;   61,867;29963,947;43,58382
 701,75;13254,300;   74,367;30094,682;43,90338
 702,32;13183,563;   50,367;29901,914;43,99503
 702,90;13303,228;   52,467;30254,148;43,87425
 703,47;13376,691;   51,367;30428,881;43,86575
 704,05;13457,755;   67,767;30546,715;43,93192
 704,62;13504,919;   39,867;30587,848;44,07837
 705,19;13495,683;   43,667;30586,982;44,04242
 705,77;13481,547;   29,967;30618,314;43,97616
 706,34;13557,911;   61,667;30627,049;44,15533
 706,91;13553,175;   46,367;30673,883;44,10024
 707,49;13602,238;   57,267;30976,316;43,80785
 708,06;13693,603;   66,367;31089,049;43,92668
 708,64;13688,967;   25,767;31093,582;43,97863
 709,21;13778,830;   58,167;31179,316;44,08791
 709,78;13782,095;   41,367;31281,150;43,98471
 710,36;13881,559;   61,667;31419,684;44,07132
 710,93;14000,822;   50,567;31562,416;44,26987
 711,50;14082,886;   44,467;31506,049;44,62083
 712,08;14234,750;   76,567;31925,383;44,45435
 712,65;14235,014;   73,667;31775,916;44,66985
 713,22;14308,078;   69,067;31900,250;44,73290
 713,80;14482,542;   84,167;31966,883;45,16044
 714,37;14398,506;   55,767;31827,018;45,14376
 714,94;14490,370;   53,967;31727,551;45,57868
 715,52;14564,233;   47,867;31732,984;45,81446
 716,09;14691,998;   65,467;31891,918;45,95715
 716,66;14727,861;   73,467;31935,051;45,99393
 717,23;14822,426;   66,867;31908,484;46,34048
 717,81;14823,390;   50,168;31812,018;46,51247
 718,38;14758,254;   47,468;31671,252;46,51811
 718,95;14859,117;   59,068;31618,984;46,89508
 719,53;14909,682;   56,568;31661,418;46,99631
 720,10;14819,545;   59,968;31481,252;46,97318
 720,67;14766,209;   35,768;31355,984;47,03174
 721,24;14853,573;   59,468;31256,020;47,42225
 721,82;14721,237;   49,968;31236,053;47,04428
 722,39;14829,601;   64,068;31235,885;47,36821
 722,96;14854,365;   64,968;31261,420;47,40731
 723,53;14849,229;   88,268;31151,953;47,51838
 724,11;14942,692;   61,568;31207,486;47,77873
 724,68;14827,156;   71,568;31242,020;47,33838
 725,25;14861,221;   72,768;31399,953;47,20645
 725,82;15027,885;   96,068;31564,387;47,45032
 726,40;15019,148;   62,668;31714,820;47,25265
 726,97;15086,912;   62,168;31875,354;47,22804
 727,54;15116,576;   46,968;31801,486;47,45658
 728,11;15168,840;   49,568;32045,820;47,25326
 728,69;15142,104;   39,568;31938,953;47,34429
 729,26;15273,168;   53,568;32105,088;47,48480
 729,83;15387,332;   53,268;32264,621;47,60453
 730,40;15469,996;   66,768;32291,754;47,79902
 730,97;15736,060;   44,268;32590,588;48,21372
 731,55;15852,824;   41,468;32755,820;48,33156
 732,12;15930,688;   86,268;32841,656;48,37195
 732,69;15935,952;   66,968;32889,988;48,34712
 733,26;16003,016;   55,168;32930,520;48,51004
 733,83;16129,880;   41,168;32979,055;48,84561
 734,41;16308,743;   65,468;32991,590;49,33249
 734,98;16290,907;   51,368;33155,621;49,05575
 735,55;16347,771;   43,168;33183,656;49,19844
 736,12;16586,234;   65,968;33377,289;49,59355
 736,69;16633,000;   76,968;33377,922;49,71639
 737,26;16646,563;   57,468;33552,254;49,52739
 737,84;16690,027;   70,768;33487,188;49,73381
 738,41;16811,891;   63,168;33492,422;50,10199
 738,98;16738,355;   63,569;33375,055;50,05717
 739,55;16731,318;   49,669;33377,789;50,05278
 740,12;16859,582;   62,969;33678,023;49,96753
 740,69;16855,246;   70,569;33575,656;50,09591
 741,26;16865,211;   56,269;33557,391;50,17427
 741,83;16950,475;   53,869;33719,523;50,18945
 742,41;16990,039;   56,169;33833,055;50,13449
 742,98;17037,303;   91,469;33874,590;50,16065
 743,55;17103,367;   53,569;33836,824;50,46819
 744,12;17079,230;   50,469;33859,855;50,36696
 744,69;17148,693;   59,569;33848,492;50,57611
 745,26;17211,357;   42,169;33677,723;51,04476
 745,83;17347,922;   58,769;33854,355;51,15802
 746,40;17239,586;   57,969;33844,789;50,85302
 746,97;17160,850;   44,769;33828,125;50,66424
 747,55;17258,014;   62,269;33966,957;50,71790
 748,12;17371,879;   57,869;33910,191;51,14571
 748,69;17341,941;   68,769;33877,625;51,09067
 749,26;17495,807;   65,069;33958,559;51,42798
 749,83;17432,570;   42,569;33911,992;51,34425
 750,40;17613,834;   89,669;34158,824;51,43704
 750,97;17690,598;   96,269;34144,160;51,67524
 751,54;17662,961;   40,569;33980,793;51,92185
 752,11;17719,125;   52,969;33874,727;52,23311
 752,68;17592,189;   87,869;33912,859;51,74967
 753,25;17600,654;   60,269;33774,594;52,02651
 753,82;17631,918;   65,069;33810,527;52,05693
 754,39;17792,980;   75,169;33727,160;52,65011
 754,96;17688,346;   60,069;33616,395;52,53339
 755,53;17740,309;   29,469;33796,527;52,45005
 756,10;17784,773;   64,169;33720,961;52,65090
 756,67;17789,938;   73,369;33813,395;52,50905
 757,24;17671,400;   72,769;33740,426;52,27162
 757,81;17659,865;   16,469;33677,762;52,41449
 758,38;17656,430;   54,569;33822,695;52,12567
 758,95;17631,693;   79,469;33743,426;52,13952
 759,52;17627,557;   57,469;33615,859;52,35676
 760,09;17548,021;   68,570;33306,992;52,58809
 760,66;17411,885;   59,570;33309,727;52,18717
 761,23;17483,148;   91,070;33353,961;52,28673
 761,80;17411,912;   56,270;33295,793;52,21387
 762,37;17424,477;   68,970;33167,727;52,43552
 762,94;17481,740;   70,970;33187,461;52,57432
 763,51;17296,305;   36,070;32949,793;52,44085
 764,08;17259,568;   66,270;32998,527;52,20808
 764,65;17260,932;   69,570;32798,961;52,52576
 765,22;17224,496;   54,670;32804,496;52,42723
 765,79;17088,859;   77,370;32691,928;52,15919
 766,36;17161,424;   73,170;32743,063;52,30582
 766,93;17312,287;   68,970;32551,295;53,08523
 767,50;17378,852;   89,470;32828,328;52,80997
 768,07;17294,215;   63,870;32699,262;52,79650
 768,64;17278,680;   86,470;32572,596;52,92170
 769,21;17084,344;   57,970;32359,729;52,71036
 769,78;17147,908;   78,770;32244,963;53,06546
 770,34;17094,771;   45,570;32031,195;53,30270
 770,91;17020,836;   58,470;31921,430;53,23537
 771,48;16961,500;   62,370;31836,863;53,18458
 772,05;16957,764;   66,470;31610,697;53,54797
 772,62;16830,127;   42,670;31443,029;53,46263
 773,19;16980,990;   59,370;31579,764;53,68467
 773,76;16885,055;   71,070;31506,297;53,48772
 774,33;16867,418;   74,170;31447,330;53,52744
 774,90;16693,982;   52,870;31206,064;53,41703
 775,47;16702,047;   59,970;30957,498;53,86216
 776,03;16749,510;   73,470;30984,330;53,94881
 776,60;16703,875;   55,970;30757,863;54,22436
 777,17;16595,439;   65,470;30698,098;53,96197
 777,74;16444,102;   30,870;30522,031;53,82947
 778,31;16416,666;   68,970;30582,064;53,57600
 778,88;16316,330;   30,470;30366,898;53,68417
 779,45;16317,895;   75,770;30358,131;53,63559
 780,01;16306,158;   58,370;30299,664;53,72716
 780,58;16293,222;   60,570;30177,998;53,89787
 781,15;16226,086;   38,771;29979,432;54,06466
 781,72;16249,450;   66,771;29962,266;54,13083
 782,29;16085,514;   51,771;29667,100;54,14001
 782,86;16035,778;   55,571;29617,732;54,05629
 783,42;15981,242;   56,171;29598,166;53,90655
 783,99;15886,605;   66,671;29482,100;53,78108
 784,56;15902,670;   55,171;29320,232;54,15160
 785,13;15820,233;   40,271;29247,266;54,02803
 785,70;15785,897;   49,071;29060,299;54,24392
 786,26;15808,962;   51,671;28910,732;54,60084
 786,83;15934,625;   84,371;28889,166;55,02644
 787,40;15778,789;   57,171;28783,500;54,72895
 787,97;15699,854;   43,971;28581,133;54,86139
 788,54;15742,817;   70,371;28515,268;55,09757
 789,10;15636,681;   57,971;28344,400;55,07485
 789,67;15615,045;   70,371;28245,334;55,17194
 790,24;15579,309;   51,071;28193,768;55,17679
 790,81;15357,973;   88,271;27914,400;54,87541
 791,37;15368,337;   73,671;27872,135;55,01982
 791,94;15382,900;   70,771;27886,367;55,04872
 792,51;15144,864;   46,271;27539,201;54,91809
 793,08;15210,729;   69,771;27555,234;55,08715
 793,64;15170,093;   71,271;27455,168;55,13759
 794,21;14927,456;   69,671;27250,602;54,66253
 794,78;14857,721;   53,071;27147,035;54,64187
 795,35;14793,784;   73,471;27007,969;54,65226
 795,91;14761,349;   48,071;26789,301;55,02095
 796,48;14638,313;   55,771;26710,734;54,70854
 797,05;14400,376;   57,671;26624,369;53,98753
 797,62;14455,540;   41,971;26600,701;54,27055
 798,18;14269,704;   57,471;26410,736;53,92968
 798,75;14266,168;   56,571;26279,770;54,18712
 799,32;14211,132;   60,771;26209,102;54,11573
 799,88;14182,296;   55,971;26051,535;54,34129
 800,45;14006,760;   33,971;25945,270;53,92547
 801,02;14028,924;   65,271;25880,104;54,09159
 801,58;13941,487;   90,872;25660,436;54,16837
 802,15;13838,252;   72,872;25615,270;53,89228
 802,72;13755,016;   66,172;25404,703;54,02383
 803,28;13724,680;   49,172;25288,938;54,18239
 803,85;13638,943;   41,972;25144,871;54,16495
 804,42;13559,107;   77,772;24948,004;54,20671
 804,98;13531,271;  100,672;24935,537;54,07962
 805,55;13383,835;   56,972;24702,371;54,07445
 806,12;13272,099;   83,572;24611,004;53,77052
 806,68;13206,563;   66,472;24493,738;53,79272
 807,25;13212,827;   74,972;24436,271;53,92921
 807,82;13188,190;   86,872;24407,805;53,86849
 808,38;13149,655;   73,672;24367,037;53,82533
 808,95;13147,818;   62,972;24166,971;54,28496
 809,52;13083,083;   50,272;24162,004;54,05174
 810,08;13010,946;   55,172;23994,938;54,11822
 810,65;12997,610;   77,172;24169,672;53,62847
 811,21;12995,475;   69,972;24123,404;53,73662
 811,78;13056,938;   92,472;24337,539;53,47259
 812,35;12940,603;   64,972;24173,871;53,40613
 812,91;12953,666;   90,072;24239,705;53,26621
 813,48;13021,931;   68,172;24202,738;53,67305
 814,04;12890,794;   64,172;24088,373;53,39042
 814,61;12753,558;   77,572;24176,006;52,60087
 815,18;12661,622;   67,772;23892,539;52,86033
 815,74;12748,786;   69,772;23709,172;53,63509
 816,31;12705,350;   83,372;23614,406;53,63971
 816,87;12490,813;   43,272;23489,641;53,08942
 817,44;12453,978;   76,972;23452,273;52,94907
 818,00;12276,941;   43,272;23159,506;52,92242
 818,57;12338,506;   71,872;23076,340;53,32283
 819,14;12234,470;   82,872;22924,273;53,19988
 819,70;12235,834;   72,672;22792,707;53,53496
 820,27;12051,397;   62,972;22691,941;52,97822
 820,83;11993,461;   70,072;22541,373;53,06052
 821,40;11899,625;   98,072;22431,908;52,84158
 821,96;11909,589;   75,272;22315,541;53,21121
 822,53;11853,453;   70,973;22257,574;53,10629
 823,09;11709,817;   81,073;22073,309;52,87659
 823,66;11728,881;   68,173;21862,541;53,50331
 824,22;11594,345;   77,173;21851,674;52,89293
 824,79;11580,609;   75,473;21561,408;53,54729
 825,35;11622,873;   65,173;21648,041;53,55034
 825,92;11484,337;   75,173;21398,875;53,50461
 826,48;11489,001;   87,673;21501,309;53,24331
 827,05;11419,564;   89,573;21448,242;53,04634
 827,61;11367,828;   75,273;21249,076;53,33267
 828,18;11380,593;   60,873;21191,209;53,57094
 828,74;11243,656;   91,673;21053,543;53,20128
 829,31;11234,721;   83,373;21002,176;53,30777
 829,87;11214,385;   73,073;20733,709;53,92531
 830,44;11187,849;   85,173;20631,443;54,03743
 831,00;11155,813;   91,273;20673,977;53,75649
 831,57;11094,876;  101,573;20631,609;53,54741
 832,13;10860,940;   72,073;20323,344;53,27501
 832,69;10865,004;   58,173;20309,477;53,36363
 833,26;10808,768;   85,473;20322,711;52,98794
 833,82;10812,832;   93,073;20197,744;53,31974
 834,39;10851,695;   78,773;20137,477;53,70697
 834,95;10754,359;   57,173;19959,410;53,74866
 835,52;10754,023;   87,873;19851,744;53,96792
 836,08;10712,987;   95,573;19951,877;53,47125
 836,64;10707,052;   76,273;19800,711;53,89648
 837,21;10602,815;   88,673;19552,443;54,01904
 837,77;10604,680;   91,873;19491,777;54,18999
 838,34;10545,144;   67,473;19470,012;54,00154
 838,90;10494,607;   64,473;19306,045;54,20625
 839,46;10486,571;   83,873;19312,479;54,10012
 840,03;10452,436;   76,173;19300,811;53,97377
 840,59;10411,399;   85,873;19175,645;54,08931
 841,16;10443,763;  105,173;19156,578;54,26681
 841,72;10317,427;   59,373;18965,512;54,25779
 842,28;10316,591;   77,873;18857,246;54,52108
 842,85;10310,654;   95,573;18812,578;54,57647
 843,41;10267,619;  105,374;18740,813;54,53183
 843,97;10289,683;   89,174;18686,846;54,84831
 844,54;10263,146;  104,774;18624,979;54,85022
 845,10;10143,311;   89,174;18523,713;54,53967
 845,67;10154,274;   68,774;18413,445;54,97782
 846,23;10108,738;   78,674;18361,080;54,86184
 846,79;10031,402;   90,474;18265,613;54,69520
 847,36; 9954,566;   55,774;18179,047;54,61923
 847,92; 9954,230;   84,874;18034,680;54,98308
 848,48; 9837,794;   41,874;18039,213;54,42982
 849,04; 9840,658;   62,374;17949,447;54,66676
 849,61; 9760,021;   56,274;17918,580;54,32528
 850,17; 9769,786;   68,174;17819,514;54,65285
 850,73; 9724,050;   71,474;17764,848;54,55475
 851,30; 9698,014;   46,074;17669,881;54,76649
 851,86; 9658,978;   75,874;17597,914;54,69171
 852,42; 9563,441;   51,174;17568,348;54,30252
 852,99; 9575,205;   79,274;17583,082;54,25066
 853,55; 9536,670;   83,174;17542,514;54,14578
 854,11; 9530,934;   70,074;17432,049;54,49184
 854,67; 9484,197;   85,474;17420,881;54,21692
 855,24; 9326,562;   51,874;17213,414;54,04345
 855,80; 9364,726;   76,874;17244,848;54,09987
 856,36; 9357,889;   80,574;17175,881;54,26820
 856,92; 9205,753;   54,474;17027,215;53,91751
 857,49; 9189,817;   81,274;17048,248;53,68396
 858,05; 9211,781;   67,274;16968,482;54,10564
 858,61; 9205,045;   65,774;17003,316;53,95866
 859,17; 9137,809;   77,374;16904,250;53,84502
 859,74; 9140,473;   82,074;16836,883;54,06447
 860,30; 9050,736;   93,074;16663,016;54,05971
 860,86; 9082,700;   72,074;16692,350;54,21466
 861,42; 8988,465;   74,674;16545,883;54,11740
 861,99; 8981,028;   54,674;16506,717;54,25681
 862,55; 8893,692;   66,374;16393,051;54,06684
 863,11; 8934,156;   75,174;16437,283;54,14328
 863,67; 8788,620;   61,274;16290,117;53,77676
 864,23; 8792,884;   80,175;16199,351;54,05183
 864,80; 8783,748;   69,175;16081,384;54,42455
 865,36; 8786,412;   71,875;16120,817;54,29976
 865,92; 8763,776;   96,175;16088,751;54,19766
 866,48; 8711,840;   67,375;15987,384;54,29937
 867,04; 8600,604;   60,675;15891,418;53,94522
 867,60; 8562,368;   99,375;15884,451;53,61389
 868,17; 8524,132;   93,675;15884,685;53,38770
 868,73; 8416,896;   82,775;15672,618;53,45866
 869,29; 8382,859;   59,475;15470,151;54,01051
 869,85; 8360,823;  100,475;15369,685;54,09807
 870,41; 8272,287;   80,575;15293,418;53,84735
 870,97; 8209,552;   92,975;15232,252;53,61271
 871,54; 8072,715;   84,175;15178,686;52,92348
 872,10; 8057,079;   84,275;15055,419;53,25448
 872,66; 7973,543;   66,775;14910,652;53,26619
 873,22; 8008,807;   81,975;14890,586;53,52853
 873,78; 7807,571;   65,275;14742,419;52,75070
 874,34; 7777,535;   95,075;14662,652;52,73670
 874,90; 7824,035;  109,775;14536,053;53,47367
 875,46; 7756,935;   96,375;14412,952;53,50832
 876,03; 7638,635;   86,475;14363,353;52,89784
 876,59; 7596,235;   64,475;14153,253;53,45928
 877,15; 7600,235;  101,475;14166,853;53,31361
 877,71; 7539,635;   78,275;14064,652;53,34734
 878,27; 7441,935;   95,675;13910,553;53,17644
 878,83; 7441,535;  114,275;13971,753;52,87586
 879,39; 7416,235;   91,075;14082,753;52,35369
 879,95; 7424,635;   86,275;13964,253;52,87773
 880,51; 7395,535;   75,175;13927,253;52,84666
 881,07; 7424,735;   82,375;13978,753;52,83650
 881,63; 7412,535;   92,575;13971,253;52,74249
 882,19; 7396,135;   82,675;13921,553;52,84720
 882,75; 7440,835;   86,275;14019,553;52,78413
 883,31; 7380,535;   95,575;14187,853;51,69470
 883,88; 7446,535;   96,375;14174,353;52,21034
 884,44; 7450,835;   76,175;14175,753;52,30412
 885,00; 7488,635;  106,075;14266,952;52,13349
 885,56; 7525,535;  101,675;14299,452;52,28889
 886,12; 7533,335;  109,875;14421,152;51,87140
 886,68; 7501,435;   90,775;14436,753;51,65671
 887,24; 7560,535;  102,475;14574,952;51,53271
 887,80; 7520,335;   86,975;14671,753;50,96656
 888,36; 7614,935;  106,275;14715,652;51,39617
 888,92; 7606,635;   98,975;14773,353;51,16169
 889,48; 7702,735;   99,575;14973,853;51,11616
 890,04; 7727,235;   95,275;14803,053;51,89064
 890,60; 7736,535;  117,475;15014,652;51,14432
 891,16; 7703,135;   99,875;15075,853;50,76971
 891,72; 7723,835;  113,275;15058,452;50,92318
 892,28; 7773,735;  112,475;15126,053;51,02888
 892,84; 7702,435;   93,775;15039,853;50,90740
 893,39; 7751,135;  117,575;15112,952;50,90609
 893,95; 7685,735;  112,975;15044,753;50,71573
 894,51; 7576,235;   66,375;14891,253;50,65714
 895,07; 7663,135;  127,375;14906,353;50,98972
 895,63; 7428,835;   74,275;14689,952;50,31967
 896,19; 7375,035;   90,375;14601,952;50,19896
 896,75; 7311,435;  105,175;14460,152;50,20043
 897,31; 7248,935;   82,775;14295,853;50,41948
 897,87; 7161,235;   98,175;14146,853;50,27562
 898,43; 7064,535;   87,775;14075,753;49,87683
 898,99; 7034,035;  109,175;14002,753;49,84217
 899,55; 6924,035;  109,475;13940,652;49,26956
 900,11; 6821,635;  104,975;13747,553;49,23307
 900,67; 6778,335;   91,375;13658,652;49,28741
 901,22; 6772,335;  108,375;13601,952;49,38616
 901,78; 6632,635;   91,275;13560,053;48,56684
 902,34; 6611,735;  103,075;13451,152;48,76103
 902,90; 6513,735;   73,575;13350,652;48,50585
 903,46; 6497,235;   95,775;13236,353;48,71521
 904,02; 6408,235;   88,075;13091,553;48,60361
 904,58; 6288,835;   67,075;12918,152;48,41431
 905,14; 6271,335;   63,975;12874,553;48,45496
 905,70; 6226,735;   66,775;12696,053;48,77523
 906,25; 6186,235;   84,375;12708,452;48,33510
 906,81; 6151,235;   87,675;12732,152;47,95422
 907,37; 6059,035;   79,275;12616,152;47,69737
 907,93; 6028,335;   74,775;12588,152;47,57756
 908,49; 6007,435;  101,875;12497,652;47,64171
 909,05; 5964,535;   89,675;12425,553;47,62418
 909,60; 5936,135;   86,575;12340,452;47,73640
 910,16; 5840,435;   67,675;12291,853;47,22412
 910,72; 5802,735;  100,475;12207,753;47,09779
 911,28; 5697,735;   90,875;12156,053;46,47142
 911,84; 5630,635;   79,575;12106,753;46,15430
 912,39; 5569,935;   73,475;12049,353;45,89609
 912,95; 5581,935;  104,475;12001,452;46,04077
 913,51; 5562,735;   85,375;11945,253;46,18395
 914,07; 5463,635;   83,775;11813,452;45,86537
 914,63; 5407,035;   64,775;11748,053;45,72570
 915,18; 5411,835;   77,475;11617,853;46,22344
 915,74; 5306,835;   63,975;11632,652;45,31944
 916,30; 5203,135;   61,475;11588,553;44,60506
 916,86; 5252,335;   83,575;11514,652;45,21674
 917,42; 5255,135;   82,275;11425,152;45,60448
 917,97; 5132,335;   75,375;11265,452;45,19147
 918,53; 4999,835;   67,775;11196,253;44,31927
 919,09; 5016,935;   88,975;11223,753;44,25737
 919,65; 4955,535;   83,375;11083,452;44,29205
 920,20; 4874,935;   61,875;10983,053;44,07089
 920,76; 4829,035;   65,475;10849,452;44,17257
 921,32; 4798,535;   82,675;10770,952;44,12180
 921,87; 4735,835;   97,475;10670,253;43,87078
 922,43; 4633,235;   64,675;10561,353;43,52387
 922,99; 4539,235;   61,875;10406,753;43,28093
 923,55; 4541,835;   63,775;10357,353;43,50344
 924,10; 4453,235;   73,575;10282,853;42,89882
 924,66; 4412,835;   78,675;10170,152;42,94872
 925,22; 4299,435;   43,275;10093,952;42,34700
 925,77; 4254,935;   66,075; 9927,053;42,47916
 926,33; 4243,935;   90,375; 9903,253;42,32764
 926,89; 4119,335;   71,975; 9692,753;42,06895
 927,44; 4055,335;   52,175; 9580,553;42,01303
 928,00; 4035,435;   66,875; 9533,753;41,92047
 928,56; 3955,735;   80,375; 9372,253;41,70696
 929,12; 3891,135;   72,775; 9275,152;41,49319
 929,67; 3769,535;   67,575; 9091,053;41,02587
 930,23; 3682,035;   50,975; 8915,253;40,96284
 930,78; 3705,335;  100,675; 8842,553;41,23439
 931,34; 3555,635;   61,975; 8632,152;40,76532
 931,90; 3479,035;   61,675; 8494,353;40,52521
 932,45; 3368,535;   78,775; 8290,753;40,06051
 933,01; 3253,135;   52,975; 8024,453;40,14513
 933,57; 3098,435;   72,175; 7753,252;39,39890
 934,12; 2967,735;   70,475; 7399,553;39,53103
 934,68; 2819,835;   59,075; 7020,252;39,65938
 935,24; 2682,535;   67,875; 6614,752;39,93751
 935,79; 2523,835;   72,975; 6254,853;39,64588
 936,35; 2353,235;   91,375; 5812,252;39,53694
 936,90; 2177,235;   80,275; 5348,752;39,80201
 937,46; 1990,635;   72,775; 4956,953;39,26679
 938,02; 1847,135;   63,375; 4549,152;39,76479
 938,57; 1726,935;   73,175; 4265,053;39,45153
 939,13; 1588,535;   70,575; 3986,752;38,76127
 939,68; 1491,635;   57,375; 3713,452;39,22948
 940,24; 1412,535;   68,775; 3504,052;39,11649
 940,79; 1369,635;   91,875; 3391,052;38,72965
 941,35; 1301,435;   79,675; 3217,552;38,93587
 941,91; 1243,735;   71,375; 3122,252;38,42698
 942,46; 1227,535;   75,075; 3063,552;38,56345
 943,02; 1185,035;   65,375; 3050,752;37,50481
 943,57; 1156,735;   61,275; 2982,452;37,50063
 944,13; 1163,035;   67,375; 2974,452;37,68940
 944,68; 1176,635;   65,975; 3041,752;37,32336
 945,24; 1203,535;   82,275; 3060,052;37,65426
 945,79; 1183,635;   68,775; 3104,052;36,73009
 946,35; 1182,035;   51,775; 3194,752;35,96144
 946,90; 1238,535;   98,575; 3283,552;35,79178
 947,46; 1237,935;   52,175; 3311,052;36,38554
 948,01; 1245,335;   51,575; 3390,052;35,75762
 948,57; 1296,835;   86,775; 3552,952;34,91050
 949,12; 1298,935;   65,875; 3613,353;34,75878
 949,68; 1340,035;   76,275; 3732,653;34,56317
 950,23; 1335,135;   70,075; 3833,252;33,61680
 950,79; 1364,335;   75,775; 3933,452;33,40248
 951,34; 1385,335;   83,275; 4070,952;32,65209
 951,90; 1411,735;   57,475; 4140,853;33,16519
 952,45; 1457,635;   81,075; 4292,152;32,68902
 953,01; 1465,335;   65,975; 4364,252;32,55630
 953,56; 1500,235;   87,975; 4500,853;32,00315
 954,12; 1479,235;   42,075; 4567,553;31,75709
 954,67; 1491,735;   70,875; 4720,453;30,55890
 955,23; 1521,035;   61,975; 4804,553;30,76513
 955,78; 1562,635;   67,175; 4882,953;31,05334
 956,33; 1545,535;   58,575; 4947,252;30,41641
 956,89; 1541,035;   53,475; 5038,553;29,84026
 957,44; 1583,835;   53,675; 5170,752;29,90301
 958,00; 1581,635;   49,475; 5238,353;29,52777
 958,55; 1612,235;   70,475; 5313,953;29,40339
 959,10; 1572,235;   52,375; 5370,252;28,58020
 959,66; 1595,335;   74,275; 5488,752;28,09246
 960,21; 1593,335;   78,475; 5567,453;27,59822
 960,77; 1611,735;   54,275; 5606,152;28,05285
 961,32; 1607,235;   48,375; 5663,453;27,76204
 961,87; 1622,535;   79,775; 5738,752;27,26217
 962,43; 1583,135;   68,975; 5780,652;26,50990
 962,98; 1598,835;   76,175; 5828,652;26,46964
 963,54; 1562,935;   27,075; 5820,652;26,50970
 964,09; 1595,635;   56,275; 5873,953;26,46004
 964,64; 1610,535;   64,975; 5901,053;26,48286
 965,20; 1577,635;   44,375; 5966,652;25,88970
 965,75; 1561,735;   66,575; 5976,353;25,29977
 966,30; 1582,635;   75,275; 6068,553;25,15085
 966,86; 1579,835;   62,975; 6121,953;25,03492
 967,41; 1567,835;   81,075; 6084,453;24,76539
 967,96; 1573,435;   75,175; 6108,953;24,83121
 968,52; 1567,835;   81,775; 6126,353;24,58501
 969,07; 1513,635;   72,975; 6120,152;23,82368
 969,62; 1485,235;   77,175; 6134,953;23,24384
 970,18; 1492,935;   57,575; 6147,652;23,56883
 970,73; 1444,435;   66,475; 6203,553;22,45303
 971,28; 1492,035;   95,775; 6197,053;22,88472
 971,84; 1431,735;   55,075; 6118,752;22,70338
 972,39; 1446,135;   95,875; 6148,652;22,30811
 972,94; 1404,535;   54,975; 6140,652;22,17600
 973,49; 1401,735;   64,575; 6141,252;22,00479
 974,05; 1375,635;   64,375; 6178,053;21,44797
 974,60; 1377,035;   88,575; 6213,252;21,03719
 975,15; 1348,835;   77,675; 6231,553;20,65624
 975,71; 1319,835;   62,375; 6121,453;20,75332
 976,26; 1330,135;   77,575; 6110,252;20,76292
 976,81; 1331,335;   90,675; 6134,152;20,52891
 977,36; 1286,335;   84,775; 6156,953;19,78796
 977,92; 1303,535;   90,175; 6209,353;19,82881
 978,47; 1263,935;   77,175; 6060,252;19,83528
 979,02; 1256,435;   95,475; 6085,652;19,38106
 979,57; 1243,935;   86,775; 6058,453;19,37747
 980,13; 1207,435;   76,175; 6038,752;18,97267
 980,68; 1183,835;   77,075; 6010,553;18,65280
 981,23; 1220,635;   89,175; 6054,652;18,96680
 981,78; 1155,435;   82,075; 5974,152;18,21701
 982,33; 1150,135;   79,275; 5893,252;18,41872
 982,89; 1162,235;   94,375; 5938,152;18,27345
 983,44; 1112,635;   65,675; 5935,853;17,83524
 983,99; 1144,835;  104,775; 5949,453;17,79499
 984,54; 1097,535;   81,475; 5900,053;17,46234
 985,09; 1100,935;   87,275; 5873,752;17,51774
 985,65; 1047,435;   69,375; 5811,853;17,03202
 986,20; 1062,535;  106,575; 5791,152;16,81673
 986,75; 1069,335;   95,875; 5823,953;16,99453
 987,30; 1023,935;   97,175; 5726,053;16,46438
 987,85; 1007,435;   92,475; 5721,353;16,25475
 988,40; 1005,935;   96,675; 5693,953;16,24468
 988,96;  995,335;  114,875; 5666,553;15,85935
 989,51;  977,935;  108,875; 5644,053;15,70067
 990,06; 1010,435;  128,275; 5680,853;15,88740
 990,61;  933,835;   93,575; 5569,053;15,34588
 991,16;  940,735;  104,375; 5558,053;15,33571
 991,71;  902,235;   79,875; 5505,853;15,15598
 992,26;  881,935;   93,475; 5457,252;14,69972
 992,81;  874,035;   75,075; 5427,053;14,92831
 993,37;  901,735;  113,475; 5390,553;14,93743
 993,92;  849,435;  108,375; 5368,953;14,08705
 994,47;  860,735;  117,475; 5329,652;14,26007
 995,02;  836,435;  118,475; 5313,252;13,82080
 995,57;  816,435;   90,875; 5274,652;13,99674
 996,12;  861,535;  133,575; 5247,553;14,23471
 996,67;  832,535;  132,375; 5191,652;13,83913
 997,22;  791,335;   99,875; 5128,652;13,75006
 997,77;  780,835;  115,275; 5110,553;13,32378
 998,32;  757,235;  103,775; 5015,652;13,30367
 998,87;  765,035;  114,275; 5018,752;13,26869
 999,42;  754,735;  101,675; 4972,553;13,40744
 999,97;  728,135;  109,975; 4956,353;12,75509
1000,53;  771,835;  123,475; 4993,752;13,31259
1001,08;  715,835;   98,375; 4879,053;12,91574
1001,63;  744,135;  144,475; 4878,053;12,66822
1002,18;  659,735;   85,075; 4777,453;12,24667
1002,73;  712,935;  131,375; 4813,853;12,41992
1003,28;  691,035;  103,575; 4811,953;12,47691
1003,83;  685,835;  119,075; 4691,752;12,39449
1004,38;  685,135;  137,775; 4703,152;11,98937
1004,93;  661,335;  114,375; 4680,953;11,97746
1005,48;  650,535;  104,075; 4573,053;12,22785
1006,03;  629,335;  112,775; 4525,652;11,70574
1006,58;  630,535;  111,475; 4486,553;11,86402
1007,13;  616,935;   94,475; 4466,252;11,95075
1007,68;  618,835;  104,975; 4462,453;11,79260
1008,23;  616,635;  114,575; 4425,853;11,64527
1008,78;  604,335;  107,375; 4384,152;11,61996
1009,33;  603,735;  121,875; 4307,752;11,51156
1009,88;  562,135;   84,775; 4329,553;11,24582
1010,43;  584,535;  118,875; 4320,752;11,08219
1010,98;  540,735;  100,675; 4310,053;10,45428
1011,52;  542,735;   97,075; 4264,953;10,69273
1012,07;  590,535;  144,475; 4319,252;10,68464
1012,62;  536,035;  103,875; 4259,152;10,40027
1013,17;  529,335;   97,175; 4172,053;10,60547
1013,72;  517,235;   94,575; 4143,453;10,43894
1014,27;  524,735;  100,275; 4105,853;10,59672
1014,82;  487,535;   86,875; 4042,952;10,12771
1015,37;  487,135;   84,375; 3964,853;10,37914
1015,92;  505,535;  109,475; 3894,252;10,46455
1016,47;  458,835;   90,275; 3819,452; 9,88314
1017,02;  438,335;   81,075; 3732,153; 9,78506
1017,57;  449,935;   96,475; 3718,853; 9,75768
1018,11;  441,635;   77,275; 3656,252;10,18056
1018,66;  464,835;  120,175; 3636,552; 9,80156
1019,21;  435,835;  109,675; 3579,552; 9,39976
1019,76;  390,935;   77,675; 3497,353; 9,16051
1020,31;  397,735;   71,975; 3446,452; 9,65364
1020,86;  405,235;   96,175; 3448,052; 9,22050
1021,41;  388,935;   80,175; 3387,052; 9,33690
1021,96;  391,335;   83,675; 3385,853; 9,31688
1022,50;  428,635;  105,975; 3332,952; 9,99883
1023,05;  371,835;   94,675; 3288,052; 8,67921
1023,60;  375,435;   97,975; 3251,353; 8,79882
1024,15;  359,235;   81,075; 3184,853; 8,96198
1024,70;  382,735;   95,075; 3176,252; 9,33604
1025,25;  360,235;   81,175; 3127,452; 9,16069
1025,79;  369,135;  101,175; 3110,752; 8,90358
1026,34;  350,135;   83,475; 3044,653; 9,00520
1026,89;  366,235;  102,175; 3039,052; 8,99118
1027,44;  350,735;   95,875; 2952,952; 8,92030
1027,99;  351,035;   93,475; 2944,552; 9,03378
1028,53;  324,735;   89,675; 2900,052; 8,36400
1029,08;  355,635;  114,775; 2876,653; 8,72088
1029,63;  341,035;  114,875; 2854,952; 8,25378
1030,18;  331,435;   92,075; 2788,552; 8,87677
1030,73;  312,535;   91,175; 2739,552; 8,35833
1031,27;  295,735;   85,875; 2715,252; 7,98136
1031,82;  306,135;   81,875; 2686,452; 8,61023
1032,37;  317,535;   98,875; 2688,853; 8,44254
1032,92;  315,835;  100,575; 2675,452; 8,36001
1033,46;  311,235;   99,775; 2599,252; 8,46017
1034,01;  282,235;   78,375; 2582,952; 8,13950
1034,56;  314,235;   98,875; 2559,252; 8,75313
1035,11;  290,535;   92,375; 2523,552; 8,15078
1035,65;  295,735;   87,575; 2478,052; 8,70788
1036,20;  295,635;   99,375; 2454,452; 8,33348
1036,75;  316,335;  118,675; 2446,353; 8,49173
1037,29;  276,235;   90,275; 2398,252; 8,05727
1037,84;  251,135;   78,375; 2347,252; 7,61434
1038,39;  272,835;   91,075; 2329,952; 8,11835
1038,94;  257,235;   73,075; 2277,153; 8,35542
1039,48;  261,035;   83,575; 2278,552; 8,08482
1040,03;  269,535;  102,875; 2245,252; 7,77921
1040,58;  256,535;  101,175; 2194,552; 7,42150
1041,12;  257,735;   91,375; 2191,653; 7,92086
1041,67;  253,235;  101,075; 2166,752; 7,36611
1042,22;  273,735;  118,475; 2145,252; 7,66044
1042,76;  248,135;   99,275; 2118,452; 7,37231
1043,31;  252,935;   90,675; 2060,653; 8,23664
1043,86;  256,735;   98,875; 2044,252; 8,11462
1044,40;  256,235;   92,975; 2018,052; 8,48070
1044,95;  246,535;   94,175; 1988,552; 8,04275
1045,50;  234,935;   75,375; 1934,353; 8,58321
1046,04;  251,135;  114,375; 1930,453; 7,53052
1046,59;  231,635;   96,175; 1878,353; 7,60081
1047,13;  255,535;  121,075; 1879,453; 7,64682
1047,68;  250,135;  115,675; 1860,052; 7,70819
1048,23;  249,635;  118,775; 1866,752; 7,48637
1048,77;  224,835;   90,175; 1784,953; 7,94559
1049,32;  232,535;  104,175; 1785,953; 7,63240
1049,86;  235,535;   92,675; 1760,552; 8,56538
1050,41;  193,935;   82,475; 1735,552; 6,74258
1050,96;  224,635;  100,875; 1698,652; 7,74576
1051,50;  225,135;  101,675; 1663,252; 7,90611
1052,05;  219,935;   94,675; 1664,052; 7,98151
1052,59;  210,735;   82,975; 1624,152; 8,28977
1053,14;  194,935;   84,475; 1582,652; 7,37296
1053,69;  202,535;   98,475; 1571,453; 7,06460
1054,23;  206,835;  104,575; 1569,052; 6,98270
1054,78;  206,635;  100,775; 1550,152; 7,30382
1055,32;  224,135;  123,075; 1550,453; 7,08012
1055,87;  181,035;   68,875; 1491,752; 7,88262
1056,41;  195,135;   78,775; 1469,552; 8,36654
1056,96;  185,235;   96,775; 1451,052; 6,53190
1057,50;  210,635;  113,375; 1470,853; 7,16476
1058,05;  172,935;   82,075; 1401,953; 6,88397
1058,59;  183,135;   95,875; 1396,552; 6,70881
1059,14;  191,635;  103,575; 1370,453; 6,95095
1059,68;  171,035;   75,975; 1329,353; 7,58431
1060,23;  207,835;  126,875; 1383,752; 6,44136
1060,77;  190,135;   97,375; 1317,052; 7,60529
1061,32;  198,035;  108,575; 1320,652; 7,38072
1061,86;  205,535;  111,175; 1289,752; 8,00626
1062,41;  190,535;   93,975; 1242,953; 8,40399
1062,95;  186,135;  109,575; 1230,853; 6,82793
1063,50;  190,035;  111,075; 1230,052; 7,05644
1064,04;  171,635;   90,475; 1197,453; 7,33168
1064,59;  187,335;  114,775; 1210,052; 6,62481
1065,13;  176,435;  103,475; 1170,552; 6,83737
1065,68;  181,635;  107,275; 1161,353; 7,05451
1066,22;  186,335;  115,875; 1166,453; 6,70679
1066,76;  186,935;  130,175; 1145,252; 5,59169
1067,31;  179,235;   99,875; 1110,552; 7,85216
1067,85;  168,235;  100,975; 1090,252; 6,79890
1068,40;  184,535;  110,275; 1095,353; 7,53849
1068,94;  175,735;   99,175; 1079,353; 7,81083
1069,49;  165,835;   98,175; 1041,652; 7,17134
1070,03;  165,635;  111,175; 1034,353; 5,89919
1070,57;  162,935;   88,775; 1012,852; 8,02530
1071,12;  148,235;   75,875;  987,153; 7,94050
1071,66;  208,135;  131,775; 1039,953; 8,40805
1072,21;  178,135;  112,475; 1011,352; 7,30467
1072,75;  157,735;  104,475;  978,552; 6,09328
1073,29;  153,435;   77,075;  942,453; 8,82389
1073,84;  162,135;   95,975;  941,153; 7,82794
1074,38;  168,435;   93,875;  928,253; 8,93600
1074,92;  168,135;  107,275;  940,153; 7,30720
1075,47;  163,135;  112,775;  938,852; 6,09628
1076,01;  190,135;  121,775;  926,253; 8,49744
1076,56;  168,435;   97,275;  891,953; 8,95458
1077,10;  143,435;   86,075;  865,253; 7,36161
1077,64;  158,035;   97,875;  884,453; 7,64832
1078,19;  186,035;  123,175;  887,753; 8,22153
1078,73;  167,335;   98,775;  853,852; 9,07986
1079,27;  179,635;  121,075;  875,552; 7,76166
1079,81;  183,935;  121,375;  860,953; 8,45888
1080,36;  159,635;  105,975;  836,052; 7,34990
1080,90;  147,335;   96,375;  819,753; 7,04473
1081,44;  135,635;   82,475;  789,552; 7,51827
1081,99;  126,335;   70,375;  771,753; 7,97858
1082,53;  176,235;  113,075;  798,653; 9,21267
1083,07;  169,035;  104,175;  791,453; 9,43724
1083,62;  165,335;  101,275;  772,552; 9,54300
1084,16;  159,635;   98,975;  782,453; 8,87520
1084,70;  169,735;  107,475;  767,153; 9,43794
1085,24;  162,135;  108,775;  750,653; 8,31311
1085,79;  152,635;  109,175;  747,552; 6,80788
1086,33;  143,735;   99,075;  711,453; 7,29289
1086,87;  154,335;  102,075;  714,852; 8,52838
1087,41;  139,235;   84,475;  686,852; 9,09065
1087,96;  170,135;  124,575;  732,552; 7,49370
1088,50;  147,335;  112,075;  696,953; 6,02861
1089,04;  157,535;  121,775;  715,153; 6,02652
1089,58;  135,535;   82,375;  655,953; 9,26815
1090,13;  145,035;  102,975;  653,153; 7,64481
1090,67;  154,535;  101,775;  678,753; 9,14420
1091,21;  134,635;   92,075;  651,852; 7,60302
1091,75;  139,935;  106,875;  647,153; 6,11908
1092,29;  156,335;  105,875;  642,552; 9,40230
1092,84;  152,935;  105,975;  628,352; 8,98967
1093,38;  168,935;  128,175;  662,753; 7,62471
1093,92;  169,135;  113,475;  640,052;10,57014
1094,46;  165,735;  128,175;  638,852; 7,35494
1095,00;  144,235;   93,975;  602,052; 9,89219
1095,54;  139,435;   89,975;  591,352; 9,86482
1096,09;  158,235;  114,975;  597,352; 8,96808
1096,63;  159,535;  117,175;  598,453; 8,80157
1097,17;  132,035;  102,575;  573,052; 6,26172
1097,71;  166,635;  122,875;  582,453; 9,52179
1098,25;  145,035;  103,275;  553,653; 9,27222
1098,79;  150,635;  104,775;  568,753; 9,88410
1099,33;  158,835;  111,975;  572,052;10,18524
1099,88;  143,635;  110,775;  562,253; 7,27832
1100,42;  122,835;   83,275;  521,253; 9,03243

