0127 ELITRO
Integration time [ms]:   8,000
Averaging Nr. [scans]: 10
Smoothing Nr. [pixels]: 0
Data measured with spectrometer [name]: 7314920SP
Wave   ;Sample   ;Dark     ;Reference;Reflectance
[nm]   ;[counts] ;[counts] ;[counts] ;[%]

 199,42;  104,407;   63,873;  150,055;47,03362
 200,02;  115,178;   92,669;  145,732;42,41891
 200,62;   74,841;   67,563;   88,793;34,28351
 201,22;  113,380;   86,969;  138,011;51,74447
 201,82;  100,015;   66,174;  141,790;44,75393
 202,42;  124,477;  101,668;  154,973;42,78880
 203,03;   63,572;   60,168;   91,775;10,77119
 203,63;   86,369;   69,967;  109,037;41,97981
 204,23;   85,893;   70,671;  129,903;25,69966
 204,83;  101,967;   74,567;  123,718;55,74631
 205,43;  104,907;   56,673;  123,555;72,11895
 206,03;   75,166;   50,167;   90,459;62,04540
 206,63;   70,752;   68,865;  100,007; 6,06031
 207,24;  124,922;   74,675;  162,566;57,16991
 207,84;   52,365;   39,967;   83,699;28,35078
 208,44;   74,880;   50,669;   95,011;54,60157
 209,04;   64,353;   47,365;   85,066;45,05933
 209,64;   96,602;   69,972;  127,998;45,89338
 210,24;   67,967;   45,367;   97,218;43,58624
 210,84;   81,881;   51,469;  101,970;60,22056
 211,44;   94,485;   86,470;  122,908;21,99587
 212,05;   74,053;   60,865;   99,266;34,34253
 212,65;   90,072;   66,368;  112,975;50,85994
 213,25;  112,377;   93,768;  142,073;38,52302
 213,85;  107,656;   84,465;  114,904;76,18868
 214,45;   71,167;   53,367;  100,418;37,83110
 215,05;   53,381;   39,369;  100,070;23,08358
 215,65;   83,382;   55,169;  105,630;55,91068
 216,25;   58,967;   40,267;   82,518;44,25906
 216,85;   61,579;   34,069;   89,651;49,49506
 217,45;   69,172;   49,068;   97,375;41,61783
 218,05;   92,987;   58,270;  112,886;63,56542
 218,66;   59,078;   28,769;   75,692;64,59474
 219,26;   47,669;   26,567;   79,337;39,98771
 219,86;   56,992;   36,771;   81,584;45,12264
 220,46;   84,586;   54,270;  104,127;60,80666
 221,06;   69,193;   51,871;  115,903;27,05276
 221,66;   77,096;   43,471;  103,481;56,03172
 222,26;   68,502;   39,772;  102,398;45,87567
 222,86;   93,575;   67,268;  118,954;50,89773
 223,46;   81,067;   51,767;   88,918;78,86683
 224,06;   80,492;   64,971;  120,343;28,03130
 224,66;   88,489;   57,570;  105,805;64,09986
 225,26;   80,884;   48,169;  113,748;49,88515
 225,86;   63,205;   42,173;  112,376;29,95875
 226,46;   72,676;   49,968;  102,913;42,88895
 227,06;   44,389;   27,670;   87,705;27,84814
 227,66;   57,655;   37,665;   74,845;53,76684
 228,27;   60,986;   29,270;   96,227;47,36830
 228,87;  111,688;   89,170;  143,046;41,79600
 229,47;   69,403;   29,172;   92,357;63,67128
 230,07;   38,984;   11,169;   59,648;57,37367
 230,67;   64,379;   38,169;   84,651;56,38812
 231,27;   50,986;   27,670;   76,327;47,91991
 231,87;   70,479;   43,169;  100,751;47,42862
 232,47;   86,521;   43,775;  132,047;48,42481
 233,07;   62,351;   42,965;   75,547;59,49935
 233,67;   81,872;   53,768;   94,275;69,38113
 234,27;   39,866;    0,567;   53,259;74,58313
 234,87;   65,692;   34,771;  106,084;43,35930
 235,47;   46,884;   16,169;   74,148;52,97466
 236,07;   52,160;   30,266;   72,042;52,40767
 236,67;   60,963;   49,966;   85,180;31,22928
 237,27;   66,009;   28,873;  109,074;46,30383
 237,87;   57,489;   25,370;   99,805;43,14987
 238,47;   32,178;   14,269;   68,032;33,31063
 239,07;   57,301;   33,272;   95,738;38,46744
 239,67;   89,432;   43,477;  131,421;52,25535
 240,27;   73,305;   46,773;  119,176;36,64475
 240,87;   81,910;   50,773;  119,533;45,28319
 241,47;   62,445;   39,164;   76,131;62,97815
 242,07;   57,474;   39,968;   92,894;33,07627
 242,67;   31,108;  -11,027;   77,914;47,37421
 243,27;   29,367;    7,767;   46,418;55,88438
 243,87;   64,292;   48,671;  108,343;26,17896
 244,47;   65,593;   22,371;   99,703;55,89205
 245,07;   27,081;    2,669;   55,770;45,97272
 245,67;   59,472;   31,068;   85,575;52,11126
 246,27;   47,152;   34,965;   69,007;35,80062
 246,87;   39,175;   26,668;   63,154;34,27866
 247,46;   30,141;   19,663;   23,793;253,71954
 248,06;   45,087;   20,470;   69,786;49,91677
 248,66;   53,402;   31,072;  105,898;29,84260
 249,26;   46,260;   32,366;   70,742;36,20464
 249,86;   64,705;   42,873;  102,176;36,81416
 250,46;   49,522;   16,775;   93,507;42,67656
 251,06;   38,072;   22,168;   65,375;36,80965
 251,66;   37,791;   20,771;   64,724;38,72279
 252,26;   50,262;   38,866;   70,261;36,29714
 252,86;   54,481;   35,969;   89,070;34,86181
 253,46;   15,467;   -8,033;   22,118;77,94042
 254,06;   49,759;   31,766;   79,483;37,70832
 254,66;   59,307;   34,973;  100,155;37,33313
 255,26;   70,406;   39,073;  118,836;39,28248
 255,86;   50,345;   37,464;   55,631;70,90388
 256,46;   43,685;   19,870;   70,208;47,30971
 257,05;   44,990;   23,570;   59,565;59,50744
 257,65;   71,092;   38,071;   97,684;55,39191
 258,25;   69,103;   37,372;  101,457;49,51344
 258,85;   43,181;   15,669;   51,770;76,20838
 259,45;   19,979;    6,869;   42,951;36,33495
 260,05;   54,867;   46,667;   85,818;20,94443
 260,65;   57,662;   45,066;   83,561;32,71982
 261,25;   57,292;   29,371;   85,943;49,35545
 261,85;   24,995;   -0,129;   47,622;52,61477
 262,45;   72,481;   46,169;  109,270;41,69819
 263,04;   71,207;   53,073;  116,295;28,68230
 263,64;   61,270;   33,767;   77,097;63,47261
 264,24;   60,594;   37,671;   89,062;44,60513
 264,84;  101,314;   58,974;  138,671;53,12559
 265,44;   42,171;   26,368;   67,716;38,22127
 266,04;   64,757;   48,865;   71,464;70,32287
 266,64;   68,663;   39,866;   86,780;61,38281
 267,24;   46,863;   40,166;   68,980;23,24240
 267,84;   46,377;   24,668;   76,573;41,82365
 268,43;   75,873;   48,368;   95,935;57,82451
 269,03;   68,578;   46,969;   87,892;52,80594
 269,63;   72,161;   58,566;   92,402;40,17875
 270,23;   27,555;   10,765;   39,045;59,37246
 270,83;   73,462;   55,266;   83,161;65,22837
 271,43;   35,370;   23,967;   58,856;32,68394
 272,03;   70,371;   64,168;   99,116;17,75134
 272,62;   39,482;   23,269;   68,730;35,66342
 273,22;   40,588;   11,970;   61,046;58,31372
 273,82;   25,224;   17,460;   26,403;86,81232
 274,42;   32,246;   25,164;   46,890;32,59626
 275,02;   43,450;   34,864;   60,388;33,63893
 275,62;   67,803;   31,972;  100,457;52,31903
 276,21;   50,485;   22,770;   69,267;59,60653
 276,81;   56,265;   46,767;   71,099;39,03628
 277,41;   58,497;   22,971;   96,341;48,41993
 278,01;   26,450;   21,364;   42,788;23,73949
 278,61;   69,880;   38,869;   83,811;69,00334
 279,20;   89,405;   65,473;  119,076;44,64648
 279,80;    7,132;    6,762;   11,539; 7,74848
 280,40;   43,460;   36,866;   79,742;15,37917
 281,00;   13,380;   -4,331;   33,311;47,05222
 281,60;   44,813;   20,774;   74,812;44,48522
 282,20;   49,685;   36,670;   70,108;38,92216
 282,79;   47,573;   29,568;   70,135;44,38423
 283,39;   27,661;   17,466;   44,702;37,43162
 283,99;   25,251;   23,165;   34,347;18,65867
 284,59;   32,583;   16,869;   45,289;55,29075
 285,19;   36,766;   27,067;   57,759;31,60204
 285,78;   43,785;   23,270;   63,808;50,60622
 286,38;   46,152;   39,665;   59,207;33,19646
 286,98;   43,873;   35,168;   73,535;22,68953
 287,58;   33,393;    4,771;   61,403;50,54110
 288,17;   45,106;    8,973;   80,336;50,63253
 288,77;   52,926;   19,976;   92,504;45,43069
 289,37;   22,381;   11,269;   57,670;23,94769
 289,97;   61,551;   48,965;   66,647;71,17962
 290,57;   68,099;   46,672;   93,260;45,99221
 291,16;   72,571;   63,868;  102,616;22,46241
 291,76;   34,988;    5,570;   47,346;70,41856
 292,36;   40,269;   34,367;   58,137;24,82755
 292,96;   27,904;   -3,127;   60,117;49,06593
 293,55;   45,365;   24,267;   65,399;51,29399
 294,15;   37,985;   26,870;   62,567;31,13836
 294,75;   48,752;   42,065;   66,207;27,69971
 295,35;   29,771;   21,068;   52,016;28,12374
 295,94;   48,164;   42,967;   66,740;21,86402
 296,54;   40,476;   30,768;   70,613;24,36320
 297,14;   52,596;   29,971;   76,881;48,22988
 297,73;   17,755;   12,165;   40,085;20,01971
 298,33;   47,059;   28,066;   57,583;64,34687
 298,93;   48,875;   41,968;   82,554;17,01774
 299,53;   40,400;   24,872;   69,079;35,12669
 300,12;   24,296;  -12,229;   59,481;50,93382
 300,72;   57,370;   41,567;   91,197;31,84055
 301,32;   51,892;   25,771;   99,584;35,38785
 301,92;   15,747;    3,664;   33,050;41,11760
 302,51;   39,568;   11,567;   49,978;72,89850
 303,11;   37,666;   14,667;   48,759;67,46255
 303,71;   47,178;   21,369;   82,132;42,47444
 304,30;   23,958;    5,466;   38,423;56,10996
 304,90;   29,959;   19,666;   44,283;41,81368
 305,50;   42,755;   18,565;   64,345;52,84077
 306,09;   36,460;   15,466;   49,042;62,52617
 306,69;   57,594;   34,171;   90,262;41,75898
 307,29;   20,423;   18,760;   33,144;11,55966
 307,88;   57,483;   43,269;   72,489;48,64342
 308,48;   33,986;    0,070;   49,727;68,30129
 309,08;   17,740;   -4,437;   11,774;136,79971
 309,68;   36,855;   22,365;   39,585;84,14252
 310,27;   28,182;   20,169;   49,830;27,01490
 310,87;   44,376;   23,468;   54,813;66,70155
 311,47;   58,567;   54,967;   92,918; 9,48587
 312,06;   47,454;   47,865;   68,426;-1,99990
 312,66;   66,771;   51,168;  100,016;31,94344
 313,26;   73,791;   48,571;   96,224;52,92364
 313,85;   54,866;   38,267;   65,959;59,94268
 314,45;   63,880;   42,969;   86,611;47,91577
 315,04;   56,254;   52,165;   81,826;13,78516
 315,64;   38,370;   21,267;   47,897;64,22338
 316,24;   48,386;   40,770;   85,627;16,97933
 316,83;   52,960;   40,366;   76,742;34,62145
 317,43;   46,170;   35,167;   68,156;33,35385
 318,03;   49,643;   39,063;   70,012;34,18520
 318,62;   84,330;   73,061;   94,820;51,79019
 319,22;   43,877;    7,668;   66,973;61,05510
 319,82;   64,971;   40,768;   93,516;45,88559
 320,41;   87,878;   59,069;   98,732;72,63338
 321,01;   99,155;   80,465;  115,945;52,67900
 321,60;   79,946;   81,164;  102,790;-5,63152
 322,20;   90,507;   67,673;  132,855;35,03187
 322,80;   79,770;   54,567;   91,797;67,69464
 323,39;   64,349;   65,764;   94,828;-4,86829
 323,99;   78,162;   61,766;  102,661;40,09167
 324,59;   80,843;   73,063;   97,512;31,82119
 325,18;   67,068;   40,967;   92,178;50,96748
 325,78;   86,555;   76,365;  108,885;31,33296
 326,37;   90,372;   74,868;  108,075;46,68987
 326,97;   92,370;   63,267;  111,497;60,34141
 327,57;   45,641;   42,263;   76,493; 9,86960
 328,16;   70,245;   60,864;   93,631;28,63017
 328,76;   70,464;   50,467;  110,140;33,51216
 329,35;   89,292;   56,871;  137,484;40,21785
 329,95;   62,085;   27,470;   91,308;54,22278
 330,54;   72,967;   52,167;   94,018;49,69985
 331,14;   49,865;   26,967;   82,599;41,16030
 331,74;   67,955;   54,165;   96,145;32,84999
 332,33;   68,486;   35,370;  108,127;45,51644
 332,93;   48,847;   43,764;   79,250;14,32348
 333,52;   69,461;   42,466;   93,102;53,31171
 334,12;   96,478;   72,069;  140,392;35,72700
 334,71;   67,160;   50,666;   87,942;44,24792
 335,31;   89,966;   63,267;  119,859;47,17860
 335,90;   42,536;   32,362;   53,836;47,37817
 336,50;   43,752;   30,665;   77,207;28,11925
 337,10;   82,282;   38,769;  121,530;52,57677
 337,69;   76,052;   51,765;   93,707;57,90665
 338,29;   55,269;   30,467;  101,037;35,14456
 338,88;   41,775;   22,468;   99,854;24,94878
 339,48;   81,235;   57,862;  111,677;43,43286
 340,07;   72,063;   48,566;  107,321;39,99062
 340,67;   72,092;   31,171;  124,784;43,71274
 341,26;   70,260;   48,466;   98,942;43,17668
 341,86;   79,084;   61,469;  138,348;22,91158
 342,45;   80,183;   45,669;  142,689;35,57366
 343,05;   65,183;   27,269;  115,689;42,87898
 343,64;   69,663;   47,366;  122,480;29,68431
 344,24;   56,552;   28,765;   92,107;43,86857
 344,83;   82,451;   71,365;  121,747;22,00465
 345,43;   53,464;   29,667;  114,240;28,13867
 346,02;   55,979;   41,469;  124,351;17,50732
 346,62;   84,691;   40,971;  140,424;43,96024
 347,21;   63,355;   42,165;  131,985;23,59107
 347,81;   66,099;   26,172;  140,560;34,90477
 348,40;   44,245;   29,064;  100,731;21,18307
 349,00;   70,643;   49,163;  137,712;24,25768
 349,59;  100,188;   65,870;  177,846;30,64763
 350,19;   63,291;   32,571;  139,424;28,74970
 350,78;   67,066;   55,467;  140,759;13,59949
 351,38;   50,079;   15,869;  140,951;27,35038
 351,97;   62,064;   26,767;  136,040;32,30232
 352,57;   67,586;   42,570;  155,827;22,08818
 353,16;   60,949;   30,564;  134,328;29,28284
 353,76;   82,488;   38,770;  169,846;33,35316
 354,35;   55,784;   27,669;  160,148;21,22162
 354,95;   73,185;   43,970;  182,067;21,15581
 355,54;   79,277;   38,368;  163,973;32,56916
 356,14;   70,484;   40,069;  164,749;24,39399
 356,73;   53,335;   29,162;  145,176;20,83632
 357,32;   47,978;   13,769;  164,432;22,70554
 357,92;   70,700;   17,772;  181,419;32,34248
 358,51;   82,800;   43,372;  214,179;23,08361
 359,11;   83,199;   36,772;  212,360;26,44080
 359,70;   63,390;   28,470;  189,965;21,62267
 360,30;   80,032;   54,562;  188,039;19,08205
 360,89;   58,475;   31,168;  188,054;17,40552
 361,48;   85,985;   55,570;  216,467;18,90374
 362,08;   58,670;   19,867;  187,156;23,19523
 362,67;   67,041;   39,763;  192,693;17,83716
 363,27;  106,368;   60,767;  247,678;24,39709
 363,86;   82,755;   35,765;  215,745;26,10868
 364,46;   95,845;   44,664;  257,231;24,07771
 365,05;  115,113;   64,659;  254,989;26,50887
 365,64;  113,419;   50,960;  269,706;28,55353
 366,24;  112,008;   38,558;  309,432;27,11589
 366,83;  147,289;   43,255;  335,383;35,61259
 367,43;  168,021;   51,545;  352,843;38,65809
 368,02;  181,431;   34,646;  399,757;40,20293
 368,61;  193,782;   62,239;  475,425;31,83629
 369,21;  169,154;   32,419;  445,299;33,11738
 369,80;  215,971;   43,007;  526,947;35,74074
 370,39;  248,664;   62,006;  604,971;34,37749
 370,99;  252,452;   42,089;  615,416;36,69163
 371,58;  253,153;   22,974;  630,953;37,85975
 372,18;  291,902;   37,166;  701,603;38,33867
 372,77;  284,494;   42,449;  679,385;38,00137
 373,36;  298,075;   42,747;  690,836;39,39714
 373,96;  290,602;   35,135;  639,498;42,27043
 374,55;  263,158;   29,844;  621,406;39,44044
 375,14;  249,593;   42,849;  573,826;38,93649
 375,74;  244,644;   69,157;  543,276;37,01325
 376,33;  199,891;   45,964;  464,589;36,76977
 376,92;  189,680;   33,278;  447,997;37,71288
 377,52;  271,549;   86,103;  548,460;40,10870
 378,11;  213,943;   46,703;  457,203;40,74070
 378,71;  236,501;   73,011;  514,270;37,05067
 379,30;  250,838;   59,517;  553,928;38,69684
 379,89;  264,813;   59,813;  556,103;41,30648
 380,49;  261,344;   31,018;  568,185;42,87788
 381,08;  295,665;   70,306;  570,990;45,01028
 381,67;  287,179;   55,008;  555,483;46,39008
 382,26;  261,865;   41,706;  539,390;44,23676
 382,86;  261,947;   54,003;  516,041;45,00578
 383,45;  289,108;   50,412;  562,105;46,64830
 384,04;  271,907;   38,712;  553,886;45,26519
 384,64;  281,618;   49,014;  566,760;44,92634
 385,23;  298,667;   64,406;  560,509;47,22021
 385,82;  314,529;   59,615;  592,774;47,81194
 386,42;  352,984;   61,024;  659,022;48,82298
 387,01;  322,116;   55,414;  580,541;50,78823
 387,60;  334,884;   69,009;  590,140;51,01888
 388,20;  329,708;   37,712;  590,805;52,79331
 388,79;  378,746;   72,418;  665,563;51,64471
 389,38;  336,365;   32,106;  564,890;57,10742
 389,97;  363,927;   45,415;  640,955;53,48290
 390,57;  387,421;   71,114;  654,038;54,26206
 391,16;  403,821;   62,514;  655,838;57,52448
 391,75;  382,014;   52,713;  638,562;56,20911
 392,34;  414,263;   60,821;  696,694;55,58379
 392,94;  415,248;   44,718;  689,683;57,44966
 393,53;  418,032;   41,016;  666,612;60,26517
 394,12;  461,978;   53,023;  719,105;61,39709
 394,72;  462,615;   54,213;  706,122;62,64703
 395,31;  448,429;   42,115;  694,874;62,24560
 395,90;  496,985;   42,924;  732,881;65,81005
 396,49;  533,609;   58,028;  779,187;65,94673
 397,09;  506,239;   47,417;  749,188;65,38067
 397,68;  542,889;   44,025;  800,719;65,92674
 398,27;  556,301;   54,626;  809,652;66,44471
 398,86;  554,492;   43,125;  807,657;66,88628
 399,45;  591,027;   56,630;  844,037;67,86801
 400,05;  581,456;   23,820;  799,518;71,88831
 400,64;  605,850;   56,419;  831,001;70,93254
 401,23;  608,660;   53,920;  859,956;68,82318
 401,82;  632,860;   67,220;  868,256;70,61350
 402,42;  650,564;   62,921;  873,953;72,45618
 403,01;  688,889;   81,525;  912,919;73,05365
 403,60;  705,634;   68,532;  940,513;73,06385
 404,19;  716,487;   76,024;  931,900;74,83125
 404,78;  713,771;   57,522;  909,929;76,98774
 405,38;  739,339;   68,332;  984,210;73,26377
 405,97;  712,099;   63,226;  953,933;72,84923
 406,56;  758,911;   71,528; 1004,366;73,68735
 407,15;  764,219;   68,829;  989,442;75,53551
 407,74;  790,125;   80,730; 1026,758;74,98663
 408,34;  788,941;   50,933; 1018,629;76,26441
 408,93;  805,732;   59,531; 1016,234;77,99711
 409,52;  820,257;   51,435; 1041,359;77,66475
 410,11;  840,334;   84,931; 1090,453;75,12540
 410,70;  836,004;   54,727; 1027,230;80,33665
 411,29;  858,410;   58,628; 1030,847;82,26355
 411,89;  878,760;   60,535; 1093,938;79,17773
 412,48;  864,411;   48,228; 1051,606;81,34346
 413,07;  883,747;   65,033; 1101,446;78,99496
 413,66;  905,558;   78,135; 1102,119;80,80432
 414,25;  917,271;   63,337; 1142,311;79,14317
 414,84;  911,332;   69,431; 1102,434;81,50030
 415,44;  954,023;   91,530; 1155,939;81,03021
 416,03;  935,168;   76,637; 1161,173;79,16112
 416,62;  955,278;   76,138; 1168,687;80,46690
 417,21;  968,851;   75,334; 1158,843;82,46514
 417,80;  989,072;   65,037; 1162,871;84,16896
 418,39;  976,689;   78,440; 1179,201;81,60255
 418,98;  956,348;   55,634; 1143,405;82,80361
 419,58;  943,644;   64,033; 1142,067;81,59401
 420,17;  954,456;   52,735; 1164,540;81,10418
 420,76;  998,368;   72,537; 1192,873;82,63867
 421,35;  954,361;   60,236; 1155,197;81,65813
 421,94; 1007,089;   88,340; 1223,501;80,93557
 422,53;  987,891;   61,540; 1195,320;81,70464
 423,12;  985,981;   64,039; 1190,766;81,82483
 423,71;  960,060;   60,835; 1162,138;81,65101
 424,30;  990,565;   85,236; 1210,695;80,44090
 424,90;  940,776;   39,438; 1163,809;80,16377
 425,49;  971,988;   70,140; 1216,242;78,68833
 426,08; 1005,088;   80,240; 1209,641;81,88835
 426,67;  967,362;   57,436; 1168,257;81,91472
 427,26;  986,007;   60,343; 1230,391;79,11332
 427,85;  970,377;   63,238; 1209,968;79,10656
 428,44;  997,102;   68,442; 1218,093;80,77755
 429,03; 1021,499;   85,341; 1233,155;81,56002
 429,62; 1007,698;   78,941; 1240,296;79,97183
 430,21; 1003,813;   81,443; 1277,807;77,09773
 430,80;  992,324;   70,445; 1235,381;79,13564
 431,39;  985,015;   53,344; 1246,926;78,05668
 431,99;  981,860;   78,535; 1206,838;80,06050
 432,58;  998,381;   82,639; 1251,166;78,36725
 433,17;  984,358;   69,735; 1238,319;78,26766
 433,76; 1008,837;   71,347; 1288,314;77,03495
 434,35; 1031,323;   88,245; 1292,462;78,31460
 434,94; 1016,248;   70,849; 1318,887;75,75083
 435,53; 1019,709;   78,643; 1278,669;78,42047
 436,12; 1023,414;   70,044; 1294,267;77,87552
 436,71; 1046,193;   87,740; 1303,239;78,85260
 437,30; 1052,096;   76,941; 1299,177;79,78452
 437,89; 1034,622;   76,245; 1320,802;77,00543
 438,48; 1046,706;   65,942; 1305,731;79,10729
 439,07; 1074,479;   95,238; 1347,147;78,21987
 439,66; 1125,641;   83,648; 1375,711;80,64569
 440,25; 1118,414;   85,844; 1390,567;79,14093
 440,84; 1133,152;   79,850; 1387,984;80,51945
 441,43; 1140,185;   78,054; 1440,985;77,92989
 442,02; 1169,356;   79,650; 1411,022;81,84832
 442,61; 1187,115;   93,344; 1397,226;83,88569
 443,20; 1217,952;   94,249; 1446,625;83,09099
 443,79; 1196,631;   74,546; 1412,957;83,83715
 444,38; 1242,944;   84,248; 1461,789;84,11330
 444,97; 1261,927;   84,146; 1466,359;85,20979
 445,56; 1322,130;  101,846; 1477,038;88,73553
 446,15; 1335,262;   81,651; 1522,539;87,00268
 446,74; 1300,916;   58,644; 1462,286;88,50346
 447,33; 1341,331;   82,646; 1538,357;86,46535
 447,92; 1385,660;   78,151; 1570,720;87,60129
 448,51; 1413,528;   89,746; 1586,019;88,47197
 449,10; 1457,725;   92,045; 1608,840;90,03721
 449,69; 1496,658;   73,950; 1627,741;91,56363
 450,28; 1520,040;   66,948; 1608,251;94,27684
 450,87; 1511,238;   78,647; 1656,333;90,80335
 451,46; 1595,945;   96,048; 1702,208;93,38403
 452,05; 1585,652;   70,950; 1715,384;92,11085
 452,64; 1628,657;   70,850; 1725,182;94,16532
 453,23; 1694,367;  113,752; 1794,936;94,01793
 453,82; 1694,859;   83,451; 1800,660;93,83880
 454,40; 1700,557;   65,450; 1786,682;94,99632
 454,99; 1796,776;  101,253; 1871,891;95,75778
 455,58; 1762,235;   69,747; 1832,095;96,03598
 456,17; 1821,671;   63,852; 1873,634;97,12878
 456,76; 1840,960;   67,751; 1918,820;95,79381
 457,35; 1880,844;   78,348; 1930,490;97,31954
 457,94; 1907,880;   66,954; 1978,929;96,28401
 458,53; 1941,159;   67,350; 2010,101;96,45131
 459,12; 1986,402;   82,657; 2111,116;93,85177
 459,71; 1976,242;   58,148; 2060,071;95,81259
 460,30; 2020,441;   84,448; 2087,511;96,65163
 460,89; 2016,860;   57,551; 2129,920;94,54444
 461,48; 2069,080;   75,954; 2173,829;95,00691
 462,06; 2085,654;   68,050; 2187,303;95,20354
 462,65; 2083,047;   48,249; 2176,527;95,60771
 463,24; 2154,394;   87,456; 2288,680;93,89946
 463,83; 2129,554;   54,450; 2229,803;95,39159
 464,42; 2202,948;   88,349; 2333,687;94,17731
 465,01; 2192,257;   73,050; 2336,482;93,62803
 465,60; 2200,856;   64,050; 2384,322;92,09290
 466,19; 2278,880;   73,354; 2462,829;92,30170
 466,77; 2271,462;   81,551; 2462,939;91,95945
 467,36; 2266,801;   69,457; 2459,256;91,94679
 467,95; 2276,663;   79,551; 2466,098;92,06237
 468,54; 2297,883;   71,954; 2513,866;91,15516
 469,13; 2331,766;   69,452; 2535,977;91,72069
 469,72; 2328,089;   67,555; 2582,723;89,87604
 470,31; 2384,090;   87,855; 2629,242;90,35361
 470,90; 2354,653;   76,750; 2652,044;88,45217
 471,48; 2338,703;   32,057; 2671,875;87,37896
 472,07; 2450,136;  125,747; 2686,454;90,77136
 472,66; 2424,874;   67,853; 2748,412;87,93018
 473,25; 2454,162;   68,351; 2723,339;89,86147
 473,84; 2483,786;   55,955; 2766,545;89,56836
 474,43; 2519,314;   55,459; 2843,049;88,38658
 475,01; 2569,684;   69,254; 2885,926;88,77250
 475,60; 2562,888;   49,755; 2882,364;88,72148
 476,19; 2633,208;   74,158; 2956,932;88,77039
 476,78; 2650,601;   71,057; 2964,456;89,15271
 477,37; 2655,588;   59,355; 2945,364;89,95927
 477,95; 2760,192;   75,656; 3018,661;91,21751
 478,54; 2763,776;   63,253; 3023,691;91,22040
 479,13; 2778,976;   56,253; 3070,291;90,33475
 479,72; 2836,281;   81,154; 3090,147;91,56309
 480,31; 2903,616;   63,459; 3167,468;91,49964
 480,89; 2867,884;   60,254; 3171,026;90,25508
 481,48; 2926,922;   46,260; 3214,084;90,93504
 482,07; 2957,483;   61,654; 3233,866;91,28736
 482,66; 2986,677;   52,853; 3253,650;91,65917
 483,25; 3051,922;   78,960; 3319,884;91,73193
 483,83; 3037,385;   59,954; 3325,385;91,18032
 484,42; 3040,680;   54,354; 3355,129;90,47348
 485,01; 3104,206;   65,958; 3400,413;91,11677
 485,60; 3119,546;   73,764; 3490,590;89,14067
 486,18; 3104,192;   66,956; 3490,761;88,70937
 486,77; 3165,067;   67,252; 3519,736;89,72712
 487,36; 3185,147;   58,464; 3561,750;89,25000
 487,95; 3193,026;   59,161; 3640,781;87,49853
 488,53; 3190,426;   54,461; 3642,522;87,39997
 489,12; 3195,242;   50,563; 3722,252;85,64665
 489,71; 3178,634;   38,062; 3680,357;86,22506
 490,30; 3221,224;   61,460; 3742,503;85,83881
 490,88; 3244,927;   87,561; 3859,141;83,71468
 491,47; 3202,543;   60,663; 3867,512;82,53230
 492,06; 3191,339;   62,563; 3920,615;81,09731
 492,65; 3174,429;   59,161; 3947,060;80,12728
 493,23; 3176,921;   54,860; 3982,825;79,48292
 493,82; 3189,975;   65,853; 4018,031;79,04812
 494,41; 3180,931;   51,361; 4066,179;77,95048
 494,99; 3129,186;   73,655; 4126,945;75,38398
 495,58; 3167,324;   86,060; 4224,403;74,45645
 496,17; 3129,894;   56,356; 4198,681;74,19838
 496,76; 3084,792;   65,356; 4276,761;71,69664
 497,34; 3093,303;   54,557; 4305,235;71,48851
 497,93; 3039,403;   66,057; 4350,675;69,39581
 498,52; 3104,018;   60,059; 4454,387;69,27017
 499,10; 3049,434;   75,862; 4533,217;66,71159
 499,69; 3018,219;   55,360; 4537,006;66,11097
 500,28; 2990,516;   37,959; 4592,068;64,83281
 500,86; 3011,332;   62,862; 4698,539;63,60388
 501,45; 2995,232;   53,462; 4730,438;62,89897
 502,04; 3000,233;   53,362; 4813,958;61,90132
 502,62; 3013,694;   70,956; 4856,181;61,49634
 503,21; 2990,696;   57,856; 4939,699;60,07648
 503,80; 3050,435;   69,662; 5015,577;60,26738
 504,38; 3040,221;   58,460; 5081,425;59,36257
 504,97; 3039,635;   49,962; 5122,776;58,93520
 505,56; 3096,813;   70,859; 5194,989;59,05303
 506,14; 3118,948;   64,064; 5263,709;58,75177
 506,73; 3057,852;   23,565; 5292,507;57,58817
 507,32; 3153,656;   62,865; 5376,045;58,17214
 507,90; 3150,822;   70,860; 5443,284;57,32909
 508,49; 3191,853;   58,865; 5500,366;57,57580
 509,08; 3219,745;   67,264; 5571,931;57,26924
 509,66; 3263,323;   69,960; 5677,644;56,94620
 510,25; 3290,128;   63,561; 5737,400;56,86744
 510,83; 3301,452;   45,165; 5855,607;56,04199
 511,42; 3361,176;   61,968; 5895,913;56,55191
 512,01; 3343,449;   59,164; 5980,328;55,46688
 512,59; 3361,335;   46,562; 6041,676;55,29124
 513,18; 3386,031;   59,961; 6114,379;54,93624
 513,77; 3367,800;   42,257; 6171,797;54,25437
 514,35; 3409,938;   37,763; 6190,255;54,80991
 514,94; 3442,034;   58,662; 6323,517;54,00560
 515,52; 3424,560;   48,166; 6358,342;53,50712
 516,11; 3501,851;   80,665; 6474,047;53,51137
 516,69; 3404,717;   41,959; 6446,727;52,50397
 517,28; 3445,807;   83,358; 6541,973;52,06146
 517,87; 3381,205;   45,558; 6604,054;50,85995
 518,45; 3404,309;   74,858; 6626,192;50,82096
 519,04; 3401,411;   54,258; 6707,970;50,30505
 519,62; 3370,139;   55,863; 6774,114;49,33242
 520,21; 3389,361;   24,466; 6828,002;49,45803
 520,79; 3385,072;   52,068; 7000,875;47,96513
 521,38; 3359,325;   52,960; 6995,363;47,62565
 521,97; 3345,275;   43,068; 7141,554;46,51988
 522,55; 3350,412;   67,759; 7195,230;46,05636
 523,14; 3325,813;   26,759; 7180,289;46,11785
 523,72; 3342,426;   77,561; 7383,422;44,68830
 524,31; 3350,352;   71,665; 7406,107;44,70261
 524,89; 3371,671;   48,468; 7526,815;44,43767
 525,48; 3335,663;   21,666; 7603,580;43,70924
 526,06; 3337,049;   56,264; 7633,128;43,30004
 526,65; 3358,789;   72,370; 7803,105;42,51108
 527,23; 3330,537;   46,262; 7840,596;42,13670
 527,82; 3366,568;   37,967; 7905,978;42,30550
 528,41; 3410,262;   67,366; 8041,021;41,92427
 528,99; 3426,853;   66,365; 8108,167;41,78775
 529,58; 3416,036;   42,562; 8168,736;41,51368
 530,16; 3460,431;   49,461; 8315,379;41,26547
 530,75; 3540,948;   73,964; 8417,069;41,55508
 531,33; 3535,163;   45,566; 8440,980;41,56551
 531,92; 3604,123;   48,560; 8567,344;41,73791
 532,50; 3681,885;   87,770; 8706,468;41,70138
 533,09; 3677,356;   65,665; 8807,204;41,31642
 533,67; 3741,311;   63,458; 8952,011;41,37740
 534,26; 3764,320;   65,760; 9007,665;41,36211
 534,84; 3803,829;   68,461; 9127,061;41,23560
 535,42; 3872,548;   61,564; 9205,969;41,67559
 536,01; 3940,239;   79,263; 9330,215;41,73599
 536,59; 3984,361;   43,366; 9482,202;41,75297
 537,18; 4096,419;   77,360; 9568,605;42,34491
 537,76; 4211,198;   56,972; 9764,700;42,79298
 538,35; 4275,974;   59,368; 9892,694;42,88077
 538,93; 4456,649;   72,664; 9941,828;44,42104
 539,52; 4622,689;   57,370;10111,405;45,40783
 540,10; 4801,282;   63,269;10309,029;46,24364
 540,69; 4959,444;   68,763;10444,071;47,13769
 541,27; 5169,234;   58,262;10514,917;48,87770
 541,85; 5373,259;   47,366;10658,783;50,19021
 542,44; 5502,422;   56,460;10765,484;50,85395
 543,02; 5726,382;   80,369;10952,729;51,92996
 543,61; 5866,067;   77,067;11102,218;52,50722
 544,19; 6011,058;   55,066;11264,023;53,13601
 544,78; 6091,062;   62,766;11296,562;53,66214
 545,36; 6248,680;   77,469;11521,011;53,92746
 545,94; 6317,749;   54,564;11563,069;54,42222
 546,53; 6369,996;   52,771;11724,882;54,12239
 547,11; 6491,677;   90,668;11879,873;54,29551
 547,70; 6569,219;   75,860;11954,706;54,66322
 548,28; 6565,553;   47,965;12093,066;54,10986
 548,86; 6731,853;   81,365;12327,767;54,30565
 549,45; 6703,275;   33,768;12364,953;54,08650
 550,03; 6822,669;   76,467;12507,537;54,26887
 550,62; 6903,660;   63,566;12662,842;54,28958
 551,20; 6996,167;   61,467;12808,418;54,40281
 551,78; 7006,947;   61,164;12952,850;53,87800
 552,37; 7091,648;   55,864;13112,469;53,88678
 552,95; 7189,851;   56,765;13214,547;54,21192
 553,54; 7265,352;   49,965;13393,207;54,07522
 554,12; 7257,169;   67,167;13498,797;53,53038
 554,70; 7417,177;   67,568;13736,973;53,76685
 555,29; 7409,955;   61,965;13856,285;53,26823
 555,87; 7457,487;   60,170;13987,786;53,11259
 556,45; 7532,733;   57,162;14154,058;53,02991
 557,04; 7605,165;   43,667;14376,600;52,75611
 557,62; 7748,465;   68,867;14525,499;53,12163
 558,20; 7771,597;   42,671;14799,940;52,37368
 558,79; 7867,472;  100,368;14905,875;52,46091
 559,37; 7895,067;   49,867;15000,418;52,47432
 559,95; 8018,178;   46,669;15169,691;52,71109
 560,54; 8137,476;   71,768;15324,613;52,88002
 561,12; 8153,362;   50,866;15485,562;52,49534
 561,70; 8260,779;   50,369;15679,551;52,53257
 562,29; 8349,374;   61,768;15810,994;52,62231
 562,87; 8430,875;   73,168;16023,953;52,39684
 563,45; 8514,375;   71,068;16194,754;52,36586
 564,04; 8552,837;   54,362;16227,195;52,54784
 564,62; 8610,878;   37,769;16438,332;52,27326
 565,20; 8672,932;   59,962;16715,838;51,71130
 565,78; 8808,454;   70,765;16797,326;52,23841
 566,37; 8899,759;   71,066;17011,283;52,11676
 566,95; 8969,481;   52,969;17124,330;52,23082
 567,53; 9023,033;   67,262;17308,857;51,94282
 568,12; 9050,353;   62,265;17367,766;51,93775
 568,70; 9194,250;   85,264;17565,889;52,10904
 569,28; 9264,779;   61,069;17745,252;52,04487
 569,86; 9297,366;   67,767;17910,758;51,72675
 570,45; 9405,783;   78,569;18124,689;51,68542
 571,03; 9458,333;   53,962;18259,898;51,65552
 571,61; 9623,690;   46,571;18424,824;52,11115
 572,19; 9599,140;   54,263;18395,773;52,03975
 572,78; 9652,372;   70,668;18668,975;51,51923
 573,36; 9724,349;   84,264;18797,668;51,51433
 573,94; 9776,646;   44,064;18892,750;51,63534
 574,52; 9831,315;   54,559;19030,768;51,52113
 575,11; 9885,245;   37,264;19159,830;51,49927
 575,69; 9996,063;   53,566;19268,680;51,74311
 576,27; 9986,727;   47,161;19391,381;51,38261
 576,85;10104,648;   43,264;19549,668;51,57990
 577,44;10075,533;   30,262;19814,158;50,77499
 578,02;10130,918;   32,159;19753,887;51,20626
 578,60;10231,945;   50,464;20073,791;50,84810
 579,18;10281,042;   51,963;20160,752;50,86870
 579,76;10381,050;   40,264;20300,129;51,04074
 580,35;10422,385;   60,170;20436,707;50,85366
 580,93;10523,171;   59,667;20641,557;50,83840
 581,51;10568,585;   24,770;20697,168;51,00432
 582,09;10579,438;   58,663;20755,756;50,83214
 582,67;10639,967;   49,567;20971,318;50,61909
 583,26;10723,876;   28,568;21227,014;50,45326
 583,84;10825,947;   14,164;21413,709;50,52343
 584,42;10882,851;   48,064;21513,287;50,47600
 585,00;11014,563;   81,366;21772,180;50,40474
 585,58;10980,565;   25,167;21912,299;50,05406
 586,17;11091,825;   46,761;21948,521;50,43003
 586,75;11103,061;    6,666;22026,902;50,39180
 587,33;11206,968;   47,767;22191,678;50,39399
 587,91;11296,860;   74,866;22390,201;50,28826
 588,49;11253,333;   63,962;22349,758;50,20853
 589,07;11317,371;   45,468;22403,215;50,41610
 589,65;11286,564;   28,267;22444,439;50,22400
 590,24;11379,032;   42,562;22447,799;50,59741
 590,82;11374,929;   28,261;22484,160;50,52867
 591,40;11473,447;   41,464;22520,209;50,85686
 591,98;11393,816;   45,759;22558,227;50,40788
 592,56;11430,229;   61,161;22699,961;50,21940
 593,14;11468,316;   43,359;22728,928;50,36223
 593,72;11507,252;   29,765;22889,107;50,20917
 594,30;11558,218;   36,759;22797,486;50,61991
 594,89;11471,050;   41,364;22862,428;50,08393
 595,47;11555,126;   38,961;22922,623;50,32483
 596,05;11514,465;   30,267;23003,799;49,98882
 596,63;11646,865;   31,167;23056,199;50,44813
 597,21;11633,860;   36,766;23145,441;50,18502
 597,79;11642,064;   35,467;23166,039;50,17860
 598,37;11619,584;   36,669;23222,748;49,95633
 598,95;11637,360;   50,766;23305,301;49,82510
 599,53;11585,400;   46,757;23207,996;49,81877
 600,11;11735,151;   48,665;23341,947;50,17106
 600,70;11603,343;   57,363;23315,111;49,64358
 601,28;11653,048;   38,564;23424,809;49,66374
 601,86;11643,161;   61,766;23355,102;49,71978
 602,44;11651,229;   23,661;23449,660;49,63531
 603,02;11704,393;   38,656;23576,521;49,56157
 603,60;11704,508;   54,858;23663,232;49,34541
 604,18;11683,040;   69,263;23594,734;49,36682
 604,76;11666,138;   59,263;23642,154;49,21735
 605,34;11517,657;   27,565;23530,764;48,88735
 605,92;11514,430;   59,561;23453,719;48,96465
 606,50;11418,333;   17,662;23498,998;48,55205
 607,08;11438,964;   31,666;23394,881;48,82589
 607,66;11369,860;   39,266;23561,643;48,16943
 608,24;11313,266;   46,067;23522,059;47,99456
 608,82;11275,545;   26,164;23532,031;47,85776
 609,40;11169,362;   46,466;23471,021;47,48392
 609,98;11092,449;   18,864;23505,928;47,14759
 610,56;10914,925;   43,861;23497,662;46,35097
 611,14;10841,055;   30,765;23481,086;46,09869
 611,72;10696,853;   42,665;23572,467;45,27955
 612,30;10639,137;   24,962;23468,496;45,27549
 612,88;10445,712;   60,659;23517,730;44,27259
 613,46;10170,532;   21,862;23505,697;43,21556
 614,04; 9998,776;   30,068;23461,873;42,54349
 614,62; 9776,727;   41,561;23489,982;41,51736
 615,20; 9502,271;   52,768;23402,416;40,46958
 615,78; 9241,582;   25,569;23463,430;39,32105
 616,36; 9047,347;   41,364;23400,150;38,55501
 616,94; 8723,760;    7,666;23272,242;37,46509
 617,52; 8525,070;   24,067;23373,656;36,40751
 618,10; 8429,815;   63,559;23336,107;35,94903
 618,68; 8286,559;   17,966;23253,184;35,58647
 619,26; 8237,573;   39,268;23398,834;35,09614
 619,84; 8235,240;   18,963;23277,133;35,32641
 620,42; 8326,352;   31,165;23313,506;35,62866
 621,00; 8465,452;   28,865;23209,607;36,39481
 621,58; 8621,919;   38,760;23216,406;37,03206
 622,16; 8810,090;   49,270;23335,164;37,62286
 622,74; 9011,360;   47,066;23327,742;38,50530
 623,32; 9181,158;   42,166;23291,223;39,30909
 623,90; 9283,292;   66,971;23311,484;39,64945
 624,48; 9398,133;   32,662;23196,598;40,43126
 625,05; 9434,532;   34,562;23105,098;40,74448
 625,63; 9496,232;   52,962;23188,799;40,81664
 626,21; 9512,237;   38,262;23117,596;41,04960
 626,79; 9562,167;   53,967;23219,719;41,04421
 627,37; 9455,935;   28,162;23090,717;40,87913
 627,95; 9456,472;   72,768;23200,215;40,57389
 628,53; 9339,552;   49,365;23176,607;40,16989
 629,11; 9246,914;   48,259;23043,449;40,00252
 629,69; 9194,077;   53,369;23256,932;39,39356
 630,27; 9147,841;   80,763;23105,434;39,37984
 630,84; 8955,633;   43,862;23021,197;38,78505
 631,42; 8890,171;   54,367;23319,656;37,97848
 632,00; 8728,616;   45,459;23125,768;37,62149
 632,58; 8686,944;   50,263;23105,172;37,46135
 633,16; 8584,589;   49,870;23096,906;37,03174
 633,74; 8474,050;   56,264;23018,488;36,65928
 634,32; 8368,428;   45,661;23007,842;36,24554
 634,90; 8402,488;   51,970;23195,746;36,08105
 635,47; 8267,223;   38,860;23035,645;35,78049
 636,05; 8278,728;   37,461;22989,342;35,90672
 636,63; 8277,152;   45,965;23104,807;35,69645
 637,21; 8232,149;   67,464;23150,529;35,37089
 637,79; 8305,156;   71,465;23192,904;35,61063
 638,37; 8238,689;   54,055;23070,883;35,55935
 638,94; 8190,254;   33,265;23100,686;35,36151
 639,52; 8223,755;   41,665;23195,285;35,33827
 640,10; 8264,670;   64,264;23215,900;35,42042
 640,68; 8226,931;   54,164;23175,334;35,34755
 641,26; 8248,392;   35,864;23250,268;35,37686
 641,84; 8227,452;   39,164;23235,002;35,30068
 642,41; 8210,313;   28,264;23192,936;35,32124
 642,99; 8192,074;   48,464;23145,568;35,25814
 643,57; 8176,535;   22,064;23158,402;35,24530
 644,15; 8179,096;   27,064;23178,035;35,21248
 644,73; 8283,257;   37,564;23277,568;35,48060
 645,30; 8315,118;   55,264;23230,303;35,64117
 645,88; 8355,679;   44,964;23362,635;35,64127
 646,46; 8436,540;   59,264;23447,568;35,81823
 647,04; 8451,101;   51,864;23367,902;36,02343
 647,61; 8432,962;   46,564;23396,336;35,91640
 648,19; 8549,322;   61,664;23433,369;36,31596
 648,77; 8644,583;   26,264;23442,002;36,80567
 649,35; 8640,145;   51,064;23590,137;36,48861
 649,92; 8794,505;   42,464;23596,070;37,15796
 650,50; 8736,166;   30,064;23551,104;37,01410
 651,08; 8856,627;   39,964;23450,537;37,66103
 651,66; 8781,688;   21,864;23534,770;37,25538
 652,23; 8801,049;   39,064;23561,004;37,25026
 652,81; 8854,109;   36,464;23644,137;37,35076
 653,39; 8898,670;   56,164;23647,170;37,48253
 653,97; 8937,831;   37,065;23882,504;37,32691
 654,54; 8917,893;   23,565;23823,137;37,37180
 655,12; 8880,753;   30,965;23831,971;37,18241
 655,70; 8918,114;   42,065;23962,805;37,10608
 656,28; 8893,575;   32,765;23947,037;37,05239
 656,85; 8826,336;   44,065;24051,070;36,58212
 657,43; 8764,797;   -1,035;23831,305;36,78125
 658,01; 8754,457;   21,465;24078,539;36,30114
 658,58; 8813,918;   55,165;24234,371;36,22432
 659,16; 8734,079;   51,965;24154,105;36,02217
 659,74; 8750,641;   59,465;24338,039;35,79772
 660,32; 8793,401;   71,665;24327,672;35,95702
 660,89; 8761,162;   34,265;24347,305;35,89390
 661,47; 8840,323;   51,665;24464,939;35,99951
 662,05; 8839,284;   25,365;24587,373;35,88436
 662,62; 9017,545;   59,665;24584,006;36,52649
 663,20; 9063,405;   80,665;24740,139;36,42714
 663,78; 9206,967;   47,965;24902,773;36,85002
 664,35; 9217,127;   52,465;24921,006;36,85243
 664,93; 9318,688;   64,465;25123,539;36,92963
 665,51; 9384,549;   49,565;25170,973;37,15948
 666,08; 9425,710;   30,165;25185,707;37,34980
 666,66; 9671,771;   47,465;25667,539;37,56549
 667,23; 9693,432;   51,765;25732,773;37,54396
 667,81; 9819,192;   65,865;25889,307;37,76928
 668,39; 9916,254;   43,265;26047,141;37,96737
 668,96;10030,314;   54,665;26309,074;37,99609
 669,54;10089,875;   38,765;26408,408;38,11621
 670,12;10154,636;   51,165;26808,740;37,75929
 670,69;10303,097;   64,165;26950,674;38,08204
 671,27;10331,658;   25,565;27096,008;38,07139
 671,84;10259,619;   40,665;27105,240;37,75767
 672,42;10358,979;   66,265;27253,875;37,85811
 673,00;10420,141;   57,165;27531,408;37,71887
 673,57;10307,802;   59,965;27276,441;37,65306
 674,15;10457,462;   64,065;27613,475;37,72639
 674,72;10406,523;   58,565;27536,209;37,65955
 675,30;10468,484;   69,466;27513,541;37,89167
 675,88;10421,845;   36,266;27573,176;37,71512
 676,45;10534,906;   59,466;27677,309;37,92997
 677,03;10438,066;   67,866;27525,043;37,76863
 677,60;10477,428;   41,466;27770,576;37,63540
 678,18;10633,589;   59,466;27877,510;38,01174
 678,76;10625,050;   40,766;27809,143;38,11632
 679,33;10737,811;   57,666;27813,176;38,47937
 679,91;10717,271;   44,266;27813,311;38,43490
 680,48;10789,732;   28,766;27740,242;38,83217
 681,06;10773,593;   50,866;27735,176;38,73214
 681,63;10754,454;   37,566;27736,209;38,69102
 682,21;10805,915;   67,966;27797,543;38,72381
 682,78;10795,076;   20,566;27459,576;39,26712
 683,36;10844,736;   46,966;27565,510;39,23816
 683,93;10846,397;   30,466;27450,645;39,44515
 684,51;10827,658;   26,166;27477,277;39,34811
 685,08;10893,619;   38,966;27733,711;39,19391
 685,66;10861,680;   53,066;27694,045;39,10358
 686,24;10899,441;   33,766;27796,578;39,13752
 686,81;10946,202;   57,666;27899,910;39,10797
 687,39;10883,163;   38,866;27807,844;39,05184
 687,96;10917,924;   54,166;27850,479;39,08345
 688,54;10971,685;   30,866;27984,811;39,13873
 689,11;10985,745;   26,966;28043,545;39,11534
 689,69;11091,807;   29,666;28019,279;39,52231
 690,26;11126,467;   59,466;28289,313;39,20319
 690,84;11132,028;   50,066;28239,846;39,31199
 691,41;11141,989;   35,966;28403,879;39,14995
 691,98;11199,050;   31,466;28427,912;39,32740
 692,56;11291,411;   32,866;28437,445;39,63637
 693,13;11436,672;   64,866;28655,080;39,77517
 693,71;11469,833;   24,466;28657,912;39,97202
 694,28;11538,693;   41,966;28715,945;40,09463
 694,86;11647,954;   47,266;28928,879;40,16634
 695,43;11810,115;   61,366;29100,912;40,45776
 696,01;11866,176;   36,266;29145,547;40,63965
 696,58;11951,037;   42,167;29083,879;41,00609
 697,16;12075,998;   38,067;29126,414;41,38403
 697,73;12213,959;   63,467;29338,246;41,50498
 698,30;12163,420;   51,867;29223,980;41,51757
 698,88;12257,580;   40,467;29558,613;41,38848
 699,45;12386,041;   35,367;29765,848;41,54213
 700,03;12348,202;   56,067;29750,980;41,39475
 700,60;12525,264;   56,267;29850,613;41,85021
 701,18;12507,924;   61,867;29963,947;41,62271
 701,75;12653,285;   74,367;30094,682;41,90135
 702,32;12589,446;   50,367;29901,914;42,00479
 702,90;12704,007;   52,467;30254,148;41,89018
 703,47;12785,968;   51,367;30428,881;41,92114
 704,05;12832,729;   67,767;30546,715;41,88124
 704,62;12849,989;   39,867;30587,848;41,93443
 705,19;12901,650;   43,667;30586,982;42,09754
 705,77;12940,812;   29,967;30618,314;42,20838
 706,34;12995,772;   61,667;30627,049;42,31619
 706,91;13007,133;   46,367;30673,883;42,31739
 707,49;13267,794;   57,267;30976,316;42,72617
 708,06;13323,455;   66,367;31089,049;42,73353
 708,64;13242,315;   25,767;31093,582;42,54097
 709,21;13440,377;   58,167;31179,316;43,00037
 709,78;13537,037;   41,367;31281,150;43,20027
 710,36;13642,398;   61,667;31419,684;43,30864
 710,93;13818,859;   50,567;31562,416;43,69243
 711,50;13839,920;   44,467;31506,049;43,84857
 712,08;13955,681;   76,567;31925,383;43,57811
 712,65;13957,242;   73,667;31775,916;43,79366
 713,22;14116,003;   69,067;31900,250;44,12948
 713,80;14159,863;   84,167;31966,883;44,14836
 714,37;14087,524;   55,767;31827,018;44,16495
 714,94;14179,686;   53,967;31727,551;44,59779
 715,52;14333,046;   47,867;31732,984;45,08482
 716,09;14322,907;   65,467;31891,918;44,79745
 716,66;14380,769;   73,467;31935,051;44,90455
 717,23;14355,529;   66,867;31908,484;44,87417
 717,81;14350,290;   50,168;31812,018;45,02295
 718,38;14294,751;   47,468;31671,252;45,05243
 718,95;14251,312;   59,068;31618,984;44,96921
 719,53;14393,072;   56,568;31661,418;45,36172
 720,10;14396,033;   59,968;31481,252;45,62533
 720,67;14228,994;   35,768;31355,984;45,31650
 721,24;14249,955;   59,468;31256,020;45,48736
 721,82;14197,616;   49,968;31236,053;45,36526
 722,39;14238,077;   64,068;31235,885;45,47059
 722,96;14307,638;   64,968;31261,420;45,65477
 723,53;14329,299;   88,268;31151,953;45,84463
 724,11;14455,359;   61,568;31207,486;46,21405
 724,68;14411,620;   71,568;31242,020;46,00528
 725,25;14509,581;   72,768;31399,953;46,08398
 725,82;14671,343;   96,068;31564,387;46,31730
 726,40;14689,303;   62,668;31714,820;46,21055
 726,97;14754,264;   62,168;31875,354;46,18241
 727,54;14851,525;   46,968;31801,486;46,62189
 728,11;14964,086;   49,568;32045,820;46,61333
 728,69;14997,946;   39,568;31938,953;46,89237
 729,26;15138,508;   53,568;32105,088;47,06466
 729,83;15228,368;   53,268;32264,621;47,11103
 730,40;15212,329;   66,768;32291,754;46,99943
 730,97;15340,590;   44,268;32590,588;46,99862
 731,55;15431,451;   41,468;32755,820;47,04352
 732,12;15515,912;   86,268;32841,656;47,10567
 732,69;15505,473;   66,968;32889,988;47,03560
 733,26;15630,134;   55,168;32930,520;47,37581
 733,83;15702,395;   41,168;32979,055;47,54776
 734,41;15734,956;   65,468;32991,590;47,58984
 734,98;15772,316;   51,368;33155,621;47,48921
 735,55;15932,777;   43,168;33183,656;47,94621
 736,12;15906,838;   65,968;33377,289;47,55401
 736,69;15945,499;   76,968;33377,922;47,65188
 737,26;15955,660;   57,468;33552,254;47,46468
 737,84;16106,021;   70,768;33487,188;47,98615
 738,41;16092,182;   63,168;33492,422;47,94906
 738,98;16007,143;   63,569;33375,055;47,86209
 739,55;16083,004;   49,669;33377,789;48,10753
 740,12;16119,364;   62,969;33678,023;47,76549
 740,69;16146,825;   70,569;33575,656;47,98154
 741,26;16206,387;   56,269;33557,391;48,20769
 741,83;16198,348;   53,869;33719,523;47,95534
 742,41;16241,708;   56,169;33833,055;47,91898
 742,98;16352,069;   91,469;33874,590;48,13232
 743,55;16394,430;   53,569;33836,824;48,36970
 744,12;16455,291;   50,469;33859,855;48,52150
 744,69;16414,852;   59,569;33848,492;48,40427
 745,26;16423,412;   42,169;33677,723;48,70217
 745,83;16472,674;   58,769;33854,355;48,56819
 746,40;16473,334;   57,969;33844,789;48,58511
 746,97;16485,395;   44,769;33828,125;48,66487
 747,55;16523,557;   62,269;33966,957;48,55166
 748,12;16642,217;   57,869;33910,191;48,99028
 748,69;16600,178;   68,769;33877,625;48,89668
 749,26;16620,939;   65,069;33958,559;48,84676
 749,83;16607,500;   42,569;33911,992;48,90822
 750,40;16662,260;   89,669;34158,824;48,64397
 750,97;16688,021;   96,269;34144,160;48,73063
 751,54;16641,682;   40,569;33980,793;48,91280
 752,11;16653,844;   52,969;33874,727;49,08342
 752,68;16548,305;   87,869;33912,859;48,66353
 753,25;16453,664;   60,269;33774,594;48,62442
 753,82;16535,227;   65,069;33810,527;48,80703
 754,39;16615,887;   75,169;33727,160;49,15227
 754,96;16535,848;   60,069;33616,395;49,09888
 755,53;16448,709;   29,469;33796,527;48,62502
 756,10;16428,570;   64,169;33720,961;48,62139
 756,67;16585,529;   73,369;33813,395;48,93938
 757,24;16583,391;   72,769;33740,426;49,04001
 757,81;16530,852;   16,469;33677,762;49,06045
 758,38;16625,713;   54,569;33822,695;49,07333
 758,95;16615,475;   79,469;33743,426;49,12080
 759,52;16552,635;   57,469;33615,859;49,15363
 760,09;16538,396;   68,570;33306,992;49,55057
 760,66;16460,656;   59,570;33309,727;49,32634
 761,23;16444,617;   91,070;33353,961;49,16454
 761,80;16429,678;   56,270;33295,793;49,25885
 762,37;16464,238;   68,970;33167,727;49,53439
 762,94;16550,301;   70,970;33187,461;49,76171
 763,51;16465,361;   36,070;32949,793;49,91624
 764,08;16331,122;   66,270;32998,527;49,38882
 764,65;16438,383;   69,570;32798,961;50,01258
 765,22;16479,543;   54,670;32804,496;50,15255
 765,79;16232,904;   77,370;32691,928;49,53473
 766,36;16377,966;   73,170;32743,063;49,90771
 766,93;16301,026;   68,970;32551,295;49,97197
 767,50;16253,487;   89,470;32828,328;49,37258
 768,07;16232,848;   63,870;32699,262;49,54430
 768,64;16277,109;   86,470;32572,596;49,83863
 769,21;16116,770;   57,970;32359,729;49,71494
 769,78;16080,230;   78,770;32244,963;49,74621
 770,34;15886,892;   45,570;32031,195;49,52638
 770,91;15924,253;   58,470;31921,430;49,79381
 771,48;15850,413;   62,370;31836,863;49,68779
 772,05;15808,374;   66,470;31610,697;49,90423
 772,62;15680,335;   42,670;31443,029;49,80091
 773,19;15685,296;   59,370;31579,764;49,57402
 773,76;15627,157;   71,070;31506,297;49,48616
 774,33;15642,718;   74,170;31447,330;49,62378
 774,90;15539,479;   52,870;31206,064;49,71114
 775,47;15577,040;   59,970;30957,498;50,22107
 776,03;15518,900;   73,470;30984,330;49,96765
 776,60;15464,161;   55,970;30757,863;50,18645
 777,17;15470,822;   65,470;30698,098;50,29066
 777,74;15314,983;   30,870;30522,031;50,12637
 778,31;15335,844;   68,970;30582,064;50,03384
 778,88;15194,305;   30,470;30366,898;49,98556
 779,45;15193,866;   75,770;30358,131;49,92377
 780,01;15137,627;   58,370;30299,664;49,86313
 780,58;15215,388;   60,570;30177,998;50,31910
 781,15;15011,049;   38,771;29979,432;50,00651
 781,72;15003,510;   66,771;29962,266;49,96318
 782,29;14944,471;   51,771;29667,100;50,28713
 782,86;14962,931;   55,571;29617,732;50,42716
 783,42;14865,692;   56,171;29598,166;50,13040
 783,99;14786,253;   66,671;29482,100;50,04035
 784,56;14704,614;   55,171;29320,232;50,05779
 785,13;14700,274;   40,271;29247,266;50,19347
 785,70;14539,735;   49,071;29060,299;49,94847
 786,26;14552,097;   51,671;28910,732;50,24566
 786,83;14580,758;   84,371;28889,166;50,32630
 787,40;14510,618;   57,171;28783,500;50,31429
 787,97;14352,779;   43,971;28581,133;50,14097
 788,54;14307,140;   70,371;28515,268;50,05034
 789,10;14255,301;   57,971;28344,400;50,19131
 789,67;14255,861;   70,371;28245,334;50,34786
 790,24;14111,822;   51,071;28193,768;49,96235
 790,81;14043,483;   88,271;27914,400;50,15147
 791,37;14044,145;   73,671;27872,135;50,25628
 791,94;13907,005;   70,771;27886,367;49,74272
 792,51;13864,166;   46,271;27539,201;50,25981
 793,08;13848,728;   69,771;27555,234;50,13180
 793,64;13784,288;   71,271;27455,168;50,07694
 794,21;13720,249;   69,671;27250,602;50,22116
 794,78;13651,109;   53,071;27147,035;50,18844
 795,35;13607,771;   73,471;27007,969;50,24894
 795,91;13556,531;   48,071;26789,301;50,51548
 796,48;13477,593;   55,771;26710,734;50,35393
 797,05;13410,554;   57,671;26624,369;50,26173
 797,62;13326,714;   41,971;26600,701;50,02025
 798,18;13191,675;   57,471;26410,736;49,83900
 798,75;13179,936;   56,571;26279,770;50,04487
 799,32;13156,597;   60,771;26209,102;50,08284
 799,88;13089,058;   55,971;26051,535;50,13581
 800,45;12951,719;   33,971;25945,270;49,85373
 801,02;13028,880;   65,271;25880,104;50,21767
 801,58;12945,040;   90,872;25660,436;50,27136
 802,15;12798,701;   72,872;25615,270;49,82238
 802,72;12753,962;   66,172;25404,703;50,07311
 803,28;12740,923;   49,172;25288,938;50,28474
 803,85;12641,684;   41,972;25144,871;50,19226
 804,42;12577,645;   77,772;24948,004;50,26038
 804,98;12552,605;  100,672;24935,537;50,13892
 805,55;12466,566;   56,972;24702,371;50,35258
 806,12;12318,327;   83,572;24611,004;49,88193
 806,68;12276,188;   66,472;24493,738;49,98397
 807,25;12252,350;   74,972;24436,271;49,98657
 807,82;12179,311;   86,872;24407,805;49,72029
 808,38;12127,171;   73,672;24367,037;49,61642
 808,95;12172,232;   62,972;24166,971;50,23756
 809,52;12169,593;   50,272;24162,004;50,26317
 810,08;12155,454;   55,172;23994,938;50,54470
 810,65;12170,614;   77,172;24169,672;50,19588
 811,21;12122,376;   69,972;24123,404;50,10679
 811,78;12140,937;   92,472;24337,539;49,69450
 812,35;12144,297;   64,972;24173,871;50,10318
 812,91;12170,758;   90,072;24239,705;50,02430
 813,48;12078,319;   68,172;24202,738;49,76326
 814,04;12049,479;   64,172;24088,373;49,88847
 814,61;11962,741;   77,572;24176,006;49,31926
 815,18;11896,702;   67,772;23892,539;49,64972
 815,74;11863,163;   69,772;23709,172;49,88871
 816,31;11889,523;   83,372;23614,406;50,17268
 816,87;11698,885;   43,272;23489,641;49,71180
 817,44;11644,346;   76,972;23452,273;49,48545
 818,00;11486,206;   43,272;23159,506;49,50172
 818,57;11531,067;   71,872;23076,340;49,81291
 819,14;11503,028;   82,872;22924,273;49,99762
 819,70;11446,089;   72,672;22792,707;50,05898
 820,27;11343,350;   62,972;22691,941;49,84928
 820,83;11232,011;   70,072;22541,373;49,67197
 821,40;11160,571;   98,072;22431,908;49,53246
 821,96;11113,832;   75,272;22315,541;49,63321
 822,53;11049,894;   70,973;22257,574;49,48446
 823,09;10994,254;   81,073;22073,309;49,62288
 823,66;10888,515;   68,173;21862,541;49,64742
 824,22;10834,876;   77,173;21851,674;49,40505
 824,79;10782,537;   75,473;21561,408;49,83290
 825,35;10692,298;   65,173;21648,041;49,23871
 825,92;10657,959;   75,173;21398,875;49,62922
 826,48;10659,220;   87,673;21501,309;49,36830
 827,05;10563,280;   89,573;21448,242;49,03727
 827,61;10482,741;   75,273;21249,076;49,15257
 828,18;10495,902;   60,873;21191,209;49,38412
 828,74;10502,663;   91,673;21053,543;49,66632
 829,31;10405,924;   83,373;21002,176;49,34580
 829,87;10259,984;   73,073;20733,709;49,30589
 830,44;10233,546;   85,173;20631,443;49,39277
 831,00;10220,906;   91,273;20673,977;49,21430
 831,57;10227,668;  101,573;20631,609;49,32332
 832,13;10004,528;   72,073;20323,344;49,04608
 832,69; 9955,989;   58,173;20309,477;48,87496
 833,26; 9972,351;   85,473;20322,711;48,85488
 833,82; 9857,111;   93,073;20197,744;48,56602
 834,39; 9852,972;   78,773;20137,477;48,72797
 834,95; 9836,033;   57,173;19959,410;49,13448
 835,52; 9823,693;   87,873;19851,744;49,26070
 836,08; 9777,154;   95,573;19951,877;48,75822
 836,64; 9671,115;   76,273;19800,711;48,64444
 837,21; 9621,276;   88,673;19552,443;48,97614
 837,77; 9614,438;   91,873;19491,777;49,08563
 838,34; 9529,198;   67,473;19470,012;48,76540
 838,90; 9500,459;   64,473;19306,045;49,03958
 839,46; 9494,820;   83,873;19312,479;48,94243
 840,03; 9504,881;   76,173;19300,811;49,04492
 840,59; 9443,242;   85,873;19175,645;49,01771
 841,16; 9374,803;  105,173;19156,578;48,65588
 841,72; 9347,663;   59,373;18965,512;49,12843
 842,28; 9271,024;   77,873;18857,246;48,95345
 842,85; 9288,686;   95,573;18812,578;49,11636
 843,41; 9304,846;  105,374;18740,813;49,36547
 843,97; 9217,807;   89,174;18686,846;49,08482
 844,54; 9175,768;  104,774;18624,979;48,97891
 845,10; 9175,129;   89,174;18523,713;49,28767
 845,67; 9120,189;   68,774;18413,445;49,34084
 846,23; 9089,751;   78,674;18361,080;49,28825
 846,79; 9027,611;   90,474;18265,613;49,17232
 847,36; 8851,572;   55,774;18179,047;48,53317
 847,92; 8862,533;   84,874;18034,680;48,90114
 848,48; 8775,994;   41,874;18039,213;48,53007
 849,04; 8901,555;   62,374;17949,447;49,41659
 849,61; 8802,516;   56,274;17918,580;48,96480
 850,17; 8757,276;   68,174;17819,514;48,94900
 850,73; 8674,938;   71,474;17764,848;48,62534
 851,30; 8628,898;   46,074;17669,881;48,70017
 851,86; 8594,960;   75,874;17597,914;48,61926
 852,42; 8607,320;   51,174;17568,348;48,84433
 852,99; 8595,881;   79,274;17583,082;48,65574
 853,55; 8659,942;   83,174;17542,514;49,12424
 854,11; 8535,003;   70,074;17432,049;48,75556
 854,67; 8587,864;   85,474;17420,881;49,04638
 855,24; 8462,625;   51,874;17213,414;49,00930
 855,80; 8492,786;   76,874;17244,848;49,02100
 856,36; 8420,246;   80,574;17175,881;48,78340
 856,92; 8319,207;   54,474;17027,215;48,69416
 857,49; 8415,269;   81,274;17048,248;49,11892
 858,05; 8307,229;   67,274;16968,482;48,75365
 858,61; 8315,290;   65,774;17003,316;48,70551
 859,17; 8312,251;   77,374;16904,250;48,93883
 859,74; 8271,612;   82,074;16836,883;48,87873
 860,30; 8224,873;   93,074;16663,016;49,07560
 860,86; 8201,733;   72,074;16692,350;48,91411
 861,42; 8156,794;   74,674;16545,883;49,06817
 861,99; 8110,255;   54,674;16506,717;48,96402
 862,55; 8030,816;   66,374;16393,051;48,78177
 863,11; 8071,977;   75,174;16437,283;48,87391
 863,67; 7959,238;   61,274;16290,117;48,66622
 864,23; 7919,599;   80,175;16199,351;48,63415
 864,80; 7913,360;   69,175;16081,384;48,98878
 865,36; 7911,421;   71,875;16120,817;48,84774
 865,92; 7878,481;   96,175;16088,751;48,66200
 866,48; 7817,643;   67,375;15987,384;48,68256
 867,04; 7787,003;   60,675;15891,418;48,80585
 867,60; 7734,564;   99,375;15884,451;48,36967
 868,17; 7707,925;   93,675;15884,685;48,21890
 868,73; 7651,786;   82,775;15672,618;48,55091
 869,29; 7634,647;   59,475;15470,151;49,15535
 869,85; 7639,208;  100,475;15369,685;49,37212
 870,41; 7512,969;   80,575;15293,418;48,85605
 870,97; 7466,729;   92,975;15232,252;48,70612
 871,54; 7431,891;   84,175;15178,686;48,67807
 872,10; 7336,551;   84,275;15055,419;48,44170
 872,66; 7273,212;   66,775;14910,652;48,54821
 873,22; 7213,173;   81,975;14890,586;48,15575
 873,78; 7165,734;   65,275;14742,419;48,37766
 874,34; 7160,995;   95,075;14662,652;48,50443
 874,90; 7191,095;  109,775;14536,053;49,08626
 875,46; 7137,795;   96,375;14412,952;49,18368
 876,03; 7037,995;   86,475;14363,353;48,69076
 876,59; 6929,395;   64,475;14153,253;48,72616
 877,15; 6935,595;  101,475;14166,853;48,58825
 877,71; 6865,795;   78,275;14064,652;48,52951
 878,27; 6810,895;   95,675;13910,553;48,60861
 878,83; 6820,095;  114,275;13971,753;48,39135
 879,39; 6780,995;   91,075;14082,753;47,81357
 879,95; 6783,095;   86,275;13964,253;48,25501
 880,51; 6758,695;   75,175;13927,253;48,24922
 881,07; 6763,995;   82,375;13978,753;48,08174
 881,63; 6819,095;   92,575;13971,253;48,46658
 882,19; 6861,895;   82,675;13921,553;48,98678
 882,75; 6910,595;   86,275;14019,553;48,97857
 883,31; 6881,095;   95,575;14187,853;48,15063
 883,88; 6856,095;   96,375;14174,353;48,01627
 884,44; 6878,995;   76,175;14175,753;48,24840
 885,00; 6947,095;  106,075;14266,952;48,30930
 885,56; 6938,695;  101,675;14299,452;48,15557
 886,12; 6956,795;  109,875;14421,152;47,84283
 886,68; 6962,995;   90,775;14436,753;47,90346
 887,24; 7047,795;  102,475;14574,952;47,98985
 887,80; 7085,795;   86,975;14671,753;47,98715
 888,36; 7140,995;  106,275;14715,652;48,15209
 888,92; 7148,895;   98,975;14773,353;48,04238
 889,48; 7222,995;   99,575;14973,853;47,89086
 890,04; 7296,995;   95,275;14803,053;48,96539
 890,60; 7318,495;  117,475;15014,652;48,33815
 891,16; 7313,895;   99,875;15075,853;48,17061
 891,72; 7377,995;  113,275;15058,452;48,60913
 892,28; 7310,395;  112,475;15126,053;47,94274
 892,84; 7270,195;   93,775;15039,853;48,01541
 893,39; 7351,395;  117,575;15112,952;48,24033
 893,95; 7286,195;  112,975;15044,753;48,03996
 894,51; 7219,995;   66,375;14891,253;48,25416
 895,07; 7299,395;  127,375;14906,353;48,52853
 895,63; 7150,395;   74,275;14689,952;48,41459
 896,19; 7050,995;   90,375;14601,952;47,96598
 896,75; 6999,395;  105,175;14460,152;48,02669
 897,31; 6911,195;   82,775;14295,853;48,04322
 897,87; 6786,795;   98,175;14146,853;47,61032
 898,43; 6742,395;   87,775;14075,753;47,57385
 898,99; 6687,295;  109,175;14002,753;47,34648
 899,55; 6651,895;  109,475;13940,652;47,30197
 900,11; 6623,195;  104,975;13747,553;47,77851
 900,67; 6540,795;   91,375;13658,652;47,53658
 901,22; 6486,295;  108,375;13601,952;47,26634
 901,78; 6429,995;   91,275;13560,053;47,06233
 902,34; 6357,595;  103,075;13451,152;46,85709
 902,90; 6280,195;   73,575;13350,652;46,74688
 903,46; 6273,895;   95,775;13236,353;47,01559
 904,02; 6184,395;   88,075;13091,553;46,88223
 904,58; 6138,295;   67,075;12918,152;47,24289
 905,14; 6132,895;   63,975;12874,553;47,37429
 905,70; 6092,595;   66,775;12696,053;47,71310
 906,25; 6055,995;   84,375;12708,452;47,30342
 906,81; 6029,995;   87,675;12732,152;46,99538
 907,37; 5989,795;   79,275;12616,152;47,14507
 907,93; 5926,995;   74,775;12588,152;46,76771
 908,49; 5941,395;  101,875;12497,652;47,10895
 909,05; 5878,795;   89,675;12425,553;46,92913
 909,60; 5862,395;   86,575;12340,452;47,13463
 910,16; 5732,195;   67,675;12291,853;46,33866
 910,72; 5758,995;  100,475;12207,753;46,73652
 911,28; 5669,895;   90,875;12156,053;46,24068
 911,84; 5614,095;   79,575;12106,753;46,01678
 912,39; 5588,395;   73,475;12049,353;46,05024
 912,95; 5607,095;  104,475;12001,452;46,25226
 913,51; 5509,395;   85,375;11945,253;45,73420
 914,07; 5450,595;   83,775;11813,452;45,75420
 914,63; 5390,795;   64,775;11748,053;45,58669
 915,18; 5339,895;   77,475;11617,853;45,60007
 915,74; 5295,095;   63,975;11632,652;45,21796
 916,30; 5235,195;   61,475;11588,553;44,88319
 916,86; 5217,895;   83,575;11514,652;44,91545
 917,42; 5235,395;   82,275;11425,152;45,43045
 917,97; 5173,995;   75,375;11265,452;45,56376
 918,53; 5121,895;   67,775;11196,253;45,41609
 919,09; 5125,895;   88,975;11223,753;45,23593
 919,65; 5060,395;   83,375;11083,452;45,24532
 920,20; 4980,195;   61,875;10983,053;45,03470
 920,76; 4936,595;   65,475;10849,452;45,16998
 921,32; 4872,395;   82,675;10770,952;44,81284
 921,87; 4850,395;   97,475;10670,253;44,95432
 922,43; 4759,795;   64,675;10561,353;44,72958
 922,99; 4672,195;   61,875;10406,753;44,56621
 923,55; 4703,695;   63,775;10357,353;45,07587
 924,10; 4613,695;   73,575;10282,853;44,47053
 924,66; 4554,395;   78,675;10170,152;44,35148
 925,22; 4477,795;   43,275;10093,952;44,12160
 925,77; 4448,295;   66,075; 9927,053;44,44001
 926,33; 4369,995;   90,375; 9903,253;43,61228
 926,89; 4300,495;   71,975; 9692,753;43,95196
 927,44; 4256,095;   52,175; 9580,553;44,12000
 928,00; 4154,295;   66,875; 9533,753;43,17601
 928,56; 4104,595;   80,375; 9372,253;43,30901
 929,12; 4079,195;   72,775; 9275,152;43,53679
 929,67; 3980,695;   67,575; 9091,053;43,36599
 930,23; 3895,195;   50,975; 8915,253;43,36755
 930,78; 3894,795;  100,675; 8842,553;43,40166
 931,34; 3755,095;   61,975; 8632,152;43,09269
 931,90; 3667,995;   61,675; 8494,353;42,76601
 932,45; 3561,095;   78,775; 8290,753;42,40537
 933,01; 3482,495;   52,975; 8024,453;43,02239
 933,57; 3339,395;   72,175; 7753,252;42,53596
 934,12; 3218,995;   70,475; 7399,553;42,95929
 934,68; 3039,795;   59,075; 7020,252;42,81919
 935,24; 2863,795;   67,875; 6614,752;42,70616
 935,79; 2707,495;   72,975; 6254,853;42,61683
 936,35; 2549,895;   91,375; 5812,252;42,97453
 936,90; 2341,595;   80,275; 5348,752;42,92170
 937,46; 2166,895;   72,775; 4956,953;42,87559
 938,02; 1997,195;   63,375; 4549,152;43,11003
 938,57; 1853,195;   73,175; 4265,053;42,46355
 939,13; 1739,295;   70,575; 3986,752;42,61094
 939,68; 1576,395;   57,375; 3713,452;41,54781
 940,24; 1528,295;   68,775; 3504,052;42,48623
 940,79; 1495,895;   91,875; 3391,052;42,55667
 941,35; 1413,095;   79,675; 3217,552;42,49433
 941,91; 1356,995;   71,375; 3122,252;42,13935
 942,46; 1327,395;   75,075; 3063,552;41,90495
 943,02; 1297,795;   65,375; 3050,752;41,28188
 943,57; 1255,195;   61,275; 2982,452;40,87119
 944,13; 1291,195;   67,375; 2974,452;42,09795
 944,68; 1282,295;   65,975; 3041,752;40,87403
 945,24; 1310,995;   82,275; 3060,052;41,26299
 945,79; 1293,995;   68,775; 3104,052;40,36600
 946,35; 1319,095;   51,775; 3194,752;40,32227
 946,90; 1372,695;   98,575; 3283,552;40,00405
 947,46; 1355,595;   52,175; 3311,052;39,99598
 948,01; 1369,295;   51,575; 3390,052;39,47069
 948,57; 1432,895;   86,775; 3552,952;38,83587
 949,12; 1445,995;   65,875; 3613,353;38,90426
 949,68; 1497,595;   76,275; 3732,653;38,87235
 950,23; 1504,695;   70,075; 3833,252;38,12257
 950,79; 1565,995;   75,775; 3933,452;38,62998
 951,34; 1607,195;   83,275; 4070,952;38,21573
 951,90; 1628,795;   57,475; 4140,853;38,48089
 952,45; 1700,895;   81,075; 4292,152;38,46569
 953,01; 1700,395;   65,975; 4364,252;38,02500
 953,56; 1766,095;   87,975; 4500,853;38,02779
 954,12; 1737,495;   42,075; 4567,553;37,46389
 954,67; 1785,495;   70,875; 4720,453;36,87690
 955,23; 1810,495;   61,975; 4804,553;36,86856
 955,78; 1820,795;   67,175; 4882,953;36,41406
 956,33; 1840,595;   58,575; 4947,252;36,45199
 956,89; 1857,295;   53,475; 5038,553;36,18439
 957,44; 1888,395;   53,675; 5170,752;35,85484
 958,00; 1896,795;   49,475; 5238,353;35,60153
 958,55; 1919,795;   70,475; 5313,953;35,26896
 959,10; 1921,295;   52,375; 5370,252;35,14410
 959,66; 1931,795;   74,275; 5488,752;34,30654
 960,21; 1955,395;   78,475; 5567,453;34,19435
 960,77; 1937,595;   54,275; 5606,152;33,92222
 961,32; 1958,195;   48,375; 5663,453;34,01235
 961,87; 1964,495;   79,775; 5738,752;33,30496
 962,43; 1931,195;   68,975; 5780,652;32,60373
 962,98; 1993,995;   76,175; 5828,652;33,33903
 963,54; 1928,395;   27,075; 5820,652;32,81772
 964,09; 1936,295;   56,275; 5873,953;32,31564
 964,64; 1953,295;   64,975; 5901,053;32,35598
 965,20; 1923,995;   44,375; 5966,652;31,73813
 965,75; 1917,295;   66,575; 5976,353;31,31624
 966,30; 1916,395;   75,275; 6068,553;30,71975
 966,86; 1908,095;   62,975; 6121,953;30,45266
 967,41; 1919,595;   81,075; 6084,453;30,62476
 967,96; 1911,895;   75,175; 6108,953;30,44063
 968,52; 1940,095;   81,775; 6126,353;30,74359
 969,07; 1917,595;   72,975; 6120,152;30,50382
 969,62; 1882,595;   77,175; 6134,953;29,80334
 970,18; 1882,395;   57,575; 6147,652;29,96382
 970,73; 1849,295;   66,475; 6203,553;29,04998
 971,28; 1858,295;   95,775; 6197,053;28,88772
 971,84; 1813,995;   55,075; 6118,752;29,00748
 972,39; 1807,395;   95,875; 6148,652;28,27661
 972,94; 1778,695;   54,975; 6140,652;28,32421
 973,49; 1784,395;   64,575; 6141,252;28,30198
 974,05; 1768,295;   64,375; 6178,053;27,87062
 974,60; 1756,595;   88,575; 6213,252;27,23441
 975,15; 1724,395;   77,675; 6231,553;26,75906
 975,71; 1682,895;   62,375; 6121,453;26,74533
 976,26; 1706,495;   77,575; 6110,252;27,00161
 976,81; 1667,095;   90,675; 6134,152;26,08465
 977,36; 1672,595;   84,775; 6156,953;26,14910
 977,92; 1649,195;   90,175; 6209,353;25,47761
 978,47; 1632,495;   77,175; 6060,252;25,99532
 979,02; 1601,095;   95,475; 6085,652;25,13481
 979,57; 1569,695;   86,775; 6058,453;24,83255
 980,13; 1539,095;   76,175; 6038,752;24,53503
 980,68; 1517,195;   77,075; 6010,553;24,27109
 981,23; 1525,795;   89,175; 6054,652;24,08223
 981,78; 1491,295;   82,075; 5974,152;23,91720
 982,33; 1476,695;   79,275; 5893,252;24,03552
 982,89; 1441,695;   94,375; 5938,152;23,05563
 983,44; 1424,695;   65,675; 5935,853;23,15126
 983,99; 1452,395;  104,775; 5949,453;23,05722
 984,54; 1404,695;   81,475; 5900,053;22,74130
 985,09; 1411,395;   87,275; 5873,752;22,88301
 985,65; 1385,595;   69,375; 5811,853;22,92077
 986,20; 1404,495;  106,575; 5791,152;22,83230
 986,75; 1369,695;   95,875; 5823,953;22,23818
 987,30; 1326,595;   97,175; 5726,053;21,84130
 987,85; 1320,995;   92,475; 5721,353;21,82531
 988,40; 1308,095;   96,675; 5693,953;21,64302
 988,96; 1297,895;  114,875; 5666,553;21,30923
 989,51; 1295,095;  108,875; 5644,053;21,43057
 990,06; 1275,695;  128,275; 5680,853;20,66464
 990,61; 1213,995;   93,575; 5569,053;20,46251
 991,16; 1232,495;  104,375; 5558,053;20,68549
 991,71; 1169,295;   79,875; 5505,853;20,07786
 992,26; 1175,395;   93,475; 5457,252;20,17086
 992,81; 1158,695;   75,075; 5427,053;20,24709
 993,37; 1159,095;  113,475; 5390,553;19,81438
 993,92; 1136,195;  108,375; 5368,953;19,53816
 994,47; 1149,495;  117,475; 5329,652;19,80017
 995,02; 1099,295;  118,475; 5313,252;18,88089
 995,57; 1068,395;   90,875; 5274,652;18,85729
 996,12; 1061,895;  133,575; 5247,553;18,15260
 996,67; 1050,595;  132,375; 5191,652;18,14923
 997,22; 1013,895;   99,875; 5128,652;18,17579
 997,77; 1026,795;  115,275; 5110,553;18,24763
 998,32;  996,395;  103,775; 5015,652;18,17269
 998,87;  996,695;  114,275; 5018,752;17,99213
 999,42;  965,395;  101,675; 4972,553;17,73233
 999,97;  926,095;  109,975; 4956,353;16,83979
1000,53;  941,795;  123,475; 4993,752;16,80233
1001,08;  898,895;   98,375; 4879,053;16,74491
1001,63;  927,495;  144,475; 4878,053;16,54182
1002,18;  841,995;   85,075; 4777,453;16,13084
1002,73;  902,695;  131,375; 4813,853;16,47248
1003,28;  872,395;  103,575; 4811,953;16,32877
1003,83;  869,795;  119,075; 4691,752;16,41751
1004,38;  885,795;  137,775; 4703,152;16,38463
1004,93;  834,795;  114,375; 4680,953;15,77593
1005,48;  821,395;  104,075; 4573,053;16,05110
1006,03;  790,395;  112,775; 4525,652;15,35551
1006,58;  798,195;  111,475; 4486,553;15,69618
1007,13;  752,595;   94,475; 4466,252;15,05383
1007,68;  767,795;  104,975; 4462,453;15,21109
1008,23;  775,395;  114,575; 4425,853;15,32771
1008,78;  749,095;  107,375; 4384,152;15,00476
1009,33;  759,695;  121,875; 4307,752;15,23743
1009,88;  703,895;   84,775; 4329,553;14,58545
1010,43;  720,595;  118,875; 4320,752;14,32026
1010,98;  708,795;  100,675; 4310,053;14,44679
1011,52;  691,795;   97,075; 4264,953;14,26913
1012,07;  711,895;  144,475; 4319,252;13,59162
1012,62;  681,895;  103,875; 4259,152;13,91050
1013,17;  656,095;   97,175; 4172,053;13,71624
1013,72;  640,795;   94,575; 4143,453;13,49065
1014,27;  646,995;  100,275; 4105,853;13,64897
1014,82;  606,195;   86,875; 4042,952;13,12714
1015,37;  588,295;   84,375; 3964,853;12,98603
1015,92;  602,395;  109,475; 3894,252;13,02375
1016,47;  562,695;   90,275; 3819,452;12,66821
1017,02;  540,995;   81,075; 3732,153;12,59683
1017,57;  560,795;   96,475; 3718,853;12,81810
1018,11;  532,395;   77,275; 3656,252;12,71648
1018,66;  555,395;  120,175; 3636,552;12,37694
1019,21;  538,395;  109,675; 3579,552;12,35548
1019,76;  502,195;   77,675; 3497,353;12,41404
1020,31;  504,595;   71,975; 3446,452;12,82036
1020,86;  497,895;   96,175; 3448,052;11,98492
1021,41;  477,095;   80,175; 3387,052;12,00286
1021,96;  478,895;   83,675; 3385,853;11,96847
1022,50;  498,295;  105,975; 3332,952;12,15751
1023,05;  466,095;   94,675; 3288,052;11,63095
1023,60;  458,095;   97,975; 3251,353;11,42014
1024,15;  448,495;   81,075; 3184,853;11,83783
1024,70;  475,095;   95,075; 3176,252;12,33360
1025,25;  427,695;   81,175; 3127,452;11,37520
1025,79;  446,295;  101,175; 3110,752;11,46739
1026,34;  422,095;   83,475; 3044,653;11,43532
1026,89;  449,495;  102,175; 3039,052;11,82617
1027,44;  422,695;   95,875; 2952,952;11,43896
1027,99;  418,595;   93,475; 2944,552;11,40341
1028,53;  392,695;   89,675; 2900,052;10,78218
1029,08;  419,895;  114,775; 2876,653;11,04756
1029,63;  413,395;  114,875; 2854,952;10,89458
1030,18;  379,095;   92,075; 2788,552;10,64426
1030,73;  373,395;   91,175; 2739,552;10,65634
1031,27;  356,195;   85,875; 2715,252;10,28076
1031,82;  357,995;   81,875; 2686,452;10,60134
1032,37;  374,195;   98,875; 2688,853;10,63021
1032,92;  380,495;  100,575; 2675,452;10,87120
1033,46;  344,095;   99,775; 2599,252; 9,77484
1034,01;  341,895;   78,375; 2582,952;10,52154
1034,56;  364,795;   98,875; 2559,252;10,80810
1035,11;  341,395;   92,375; 2523,552;10,24277
1035,65;  332,795;   87,575; 2478,052;10,25820
1036,20;  337,195;   99,375; 2454,452;10,09818
1036,75;  354,595;  118,675; 2446,353;10,13542
1037,29;  324,395;   90,275; 2398,252;10,14395
1037,84;  306,395;   78,375; 2347,252;10,04990
1038,39;  325,395;   91,075; 2329,952;10,46596
1038,94;  274,795;   73,075; 2277,153; 9,15213
1039,48;  305,595;   83,575; 2278,552;10,11491
1040,03;  302,495;  102,875; 2245,252; 9,31769
1040,58;  295,195;  101,175; 2194,552; 9,26828
1041,12;  299,795;   91,375; 2191,653; 9,92345
1041,67;  289,995;  101,075; 2166,752; 9,14567
1042,22;  302,395;  118,475; 2145,252; 9,07450
1042,76;  278,295;   99,275; 2118,452; 8,86599
1043,31;  281,795;   90,675; 2060,653; 9,70163
1043,86;  284,695;   98,875; 2044,252; 9,55187
1044,40;  281,395;   92,975; 2018,052; 9,78766
1044,95;  280,695;   94,175; 1988,552; 9,84598
1045,50;  252,895;   75,375; 1934,353; 9,54934
1046,04;  274,895;  114,375; 1930,453; 8,83883
1046,59;  248,095;   96,175; 1878,353; 8,52440
1047,13;  272,695;  121,075; 1879,453; 8,62272
1047,68;  286,295;  115,675; 1860,052; 9,78114
1048,23;  271,595;  118,775; 1866,752; 8,74268
1048,77;  263,195;   90,175; 1784,953;10,20901
1049,32;  254,795;  104,175; 1785,953; 8,95600
1049,86;  255,795;   92,675; 1760,552; 9,78009
1050,41;  234,595;   82,475; 1735,552; 9,20223
1050,96;  254,195;  100,875; 1698,652; 9,59583
1051,50;  239,395;  101,675; 1663,252; 8,81929
1052,05;  242,895;   94,675; 1664,052; 9,44451
1052,59;  220,995;   82,975; 1624,152; 8,95549
1053,14;  209,395;   84,475; 1582,652; 8,33813
1053,69;  221,895;   98,475; 1571,453; 8,37895
1054,23;  231,995;  104,575; 1569,052; 8,70071
1054,78;  225,495;  100,775; 1550,152; 8,60507
1055,32;  247,395;  123,075; 1550,453; 8,70968
1055,87;  203,695;   68,875; 1491,752; 9,47517
1056,41;  193,295;   78,775; 1469,552; 8,23424
1056,96;  216,095;   96,775; 1451,052; 8,81060
1057,50;  240,595;  113,375; 1470,853; 9,37179
1058,05;  194,495;   82,075; 1401,953; 8,51746
1058,59;  210,795;   95,875; 1396,552; 8,83540
1059,14;  216,195;  103,575; 1370,453; 8,88957
1059,68;  179,795;   75,975; 1329,353; 8,28322
1060,23;  239,095;  126,875; 1383,752; 8,92848
1060,77;  217,495;   97,375; 1317,052; 9,84850
1061,32;  225,895;  108,575; 1320,652; 9,67925
1061,86;  199,395;  111,175; 1289,752; 7,48530
1062,41;  212,995;   93,975; 1242,953;10,35878
1062,95;  208,595;  109,575; 1230,853; 8,83100
1063,50;  204,395;  111,075; 1230,052; 8,33976
1064,04;  182,295;   90,475; 1197,453; 8,29466
1064,59;  210,795;  114,775; 1210,052; 8,76673
1065,13;  200,595;  103,475; 1170,552; 9,10149
1065,68;  195,795;  107,275; 1161,353; 8,39786
1066,22;  207,195;  115,875; 1166,453; 8,69236
1066,76;  203,295;  130,175; 1145,252; 7,20339
1067,31;  191,295;   99,875; 1110,552; 9,04542
1067,85;  180,895;  100,975; 1090,252; 8,07862
1068,40;  188,795;  110,275; 1095,353; 7,97095
1068,94;  184,495;   99,175; 1079,353; 8,70454
1069,49;  176,295;   98,175; 1041,652; 8,28001
1070,03;  179,595;  111,175; 1034,353; 7,41136
1070,57;  168,895;   88,775; 1012,852; 8,67027
1071,12;  148,395;   75,875;  987,153; 7,95806
1071,66;  208,695;  131,775; 1039,953; 8,46971
1072,21;  183,895;  112,475; 1011,352; 7,94547
1072,75;  183,095;  104,475;  978,552; 8,99463
1073,29;  151,895;   77,075;  942,453; 8,64594
1073,84;  174,895;   95,975;  941,153; 9,33768
1074,38;  161,095;   93,875;  928,253; 8,05631
1074,92;  179,295;  107,275;  940,153; 8,64713
1075,47;  191,395;  112,775;  938,852; 9,51727
1076,01;  183,895;  121,775;  926,253; 7,72178
1076,56;  167,195;   97,275;  891,953; 8,79854
1077,10;  158,195;   86,075;  865,253; 9,25592
1077,64;  171,695;   97,875;  884,453; 9,38496
1078,19;  194,195;  123,175;  887,753; 9,28879
1078,73;  164,495;   98,775;  853,852; 8,70374
1079,27;  180,295;  121,075;  875,552; 7,84914
1079,81;  191,295;  121,375;  860,953; 9,45405
1080,36;  175,695;  105,975;  836,052; 9,54967
1080,90;  161,995;   96,375;  819,753; 9,07133
1081,44;  148,795;   82,475;  789,552; 9,37945
1081,99;  138,395;   70,375;  771,753; 9,69806
1082,53;  180,595;  113,075;  798,653; 9,84863
1083,07;  164,295;  104,175;  791,453; 8,74756
1083,62;  171,695;  101,275;  772,552;10,49045
1084,16;  170,195;   98,975;  782,453;10,42024
1084,70;  165,695;  107,475;  767,153; 8,82553
1085,24;  168,395;  108,775;  750,653; 9,28838
1085,79;  157,795;  109,175;  747,552; 7,61618
1086,33;  135,595;   99,075;  711,453; 5,96364
1086,87;  154,595;  102,075;  714,852; 8,57081
1087,41;  145,095;   84,475;  686,852;10,06346
1087,96;  172,795;  124,575;  732,552; 7,93121
1088,50;  160,095;  112,075;  696,953; 8,21027
1089,04;  182,795;  121,775;  715,153;10,28350
1089,58;  122,595;   82,375;  655,953; 7,01213
1090,13;  145,995;  102,975;  653,153; 7,81929
1090,67;  151,695;  101,775;  678,753; 8,65198
1091,21;  131,595;   92,075;  651,852; 7,05995
1091,75;  144,695;  106,875;  647,153; 7,00011
1092,29;  161,795;  105,875;  642,552;10,41967
1092,84;  147,495;  105,975;  628,352; 7,94827
1093,38;  166,095;  128,175;  662,753; 7,09345
1093,92;  157,495;  113,475;  640,052; 8,35964
1094,46;  165,995;  128,175;  638,852; 7,40585
1095,00;  145,295;   93,975;  602,052;10,10082
1095,54;  143,695;   89,975;  591,352;10,71448
1096,09;  150,795;  114,975;  597,352; 7,42572
1096,63;  168,795;  117,175;  598,453;10,72562
1097,17;  148,695;  102,575;  573,052; 9,80281
1097,71;  174,195;  122,875;  582,453;11,16678
1098,25;  146,095;  103,275;  553,653; 9,50758
1098,79;  152,195;  104,775;  568,753;10,22032
1099,33;  144,095;  111,975;  572,052; 6,98143
1099,88;  144,395;  110,775;  562,253; 7,44666
1100,42;  129,495;   83,275;  521,253;10,55305

