0103 ELITRO
Integration time [ms]:   8,000
Averaging Nr. [scans]: 10
Smoothing Nr. [pixels]: 0
Data measured with spectrometer [name]: 7314920SP
Wave   ;Sample   ;Dark     ;Reference;Reflectance
[nm]   ;[counts] ;[counts] ;[counts] ;[%]

 199,42;  114,745;   63,873;  150,055;59,02925
 200,02;  114,502;   92,669;  145,732;41,14532
 200,62;   79,240;   67,563;   88,793;55,00280
 201,22;  120,738;   86,969;  138,011;66,15972
 201,82;  105,554;   66,174;  141,790;52,07878
 202,42;  126,756;  101,668;  154,973;47,06553
 203,03;   67,629;   60,168;   91,775;23,60694
 203,63;   83,248;   69,967;  109,037;33,99146
 204,23;  107,319;   70,671;  129,903;61,87208
 204,83;  101,257;   74,567;  123,718;54,30157
 205,43;  101,745;   56,673;  123,555;67,39124
 206,03;   79,611;   50,167;   90,459;73,07832
 206,63;   77,785;   68,865;  100,007;28,64375
 207,24;  122,117;   74,675;  162,566;53,97838
 207,84;   68,466;   39,967;   83,699;65,16742
 208,44;   78,838;   50,669;   95,011;63,52721
 209,04;   57,930;   47,365;   85,066;28,02424
 209,64;  109,673;   69,972;  127,998;68,41947
 210,24;   81,357;   45,367;   97,218;69,40991
 210,84;   80,383;   51,469;  101,970;57,25485
 211,44;  113,665;   86,470;  122,908;74,63374
 212,05;   82,330;   60,865;   99,266;55,89769
 212,65;   88,329;   66,368;  112,975;47,12028
 213,25;  116,956;   93,768;  142,073;48,00391
 213,85;  105,812;   84,465;  114,904;70,12935
 214,45;   76,057;   53,367;  100,418;48,22382
 215,05;   65,483;   39,369;  100,070;43,02114
 215,65;   73,329;   55,169;  105,630;35,98771
 216,25;   64,557;   40,267;   82,518;57,48920
 216,85;   57,993;   34,069;   89,651;43,04199
 217,45;   77,029;   49,068;   97,375;57,88252
 218,05;   90,601;   58,270;  112,886;59,19671
 218,66;   47,947;   28,769;   75,692;40,87223
 219,26;   54,648;   26,567;   79,337;53,21294
 219,86;   69,428;   36,771;   81,584;72,87467
 220,46;   93,656;   54,270;  104,127;78,99753
 221,06;   88,719;   51,871;  115,903;57,54633
 221,66;   84,155;   43,471;  103,481;67,79511
 222,26;   84,873;   39,772;  102,398;72,01658
 222,86;   92,565;   67,268;  118,954;48,94481
 223,46;   70,857;   51,767;   88,918;51,38428
 224,06;   90,774;   64,971;  120,343;46,59844
 224,66;   85,692;   57,570;  105,805;58,30121
 225,26;   91,820;   48,169;  113,748;66,56101
 225,86;   84,809;   42,173;  112,376;60,73274
 226,46;   86,811;   49,968;  102,913;69,58683
 227,06;   58,692;   27,670;   87,705;51,67252
 227,66;   62,867;   37,665;   74,845;67,78280
 228,27;   58,756;   29,270;   96,227;44,03697
 228,87;  118,147;   89,170;  143,046;53,78372
 229,47;   70,018;   29,172;   92,357;64,64526
 230,07;   40,520;   11,169;   59,648;60,54176
 230,67;   62,893;   38,169;   84,651;53,18957
 231,27;   70,056;   27,670;   76,327;87,11139
 231,87;   78,893;   43,169;  100,751;62,03944
 232,47;  102,427;   43,775;  132,047;66,44399
 233,07;   69,440;   42,965;   75,547;81,25455
 233,67;   77,829;   53,768;   94,275;59,40035
 234,27;   41,211;    0,567;   53,259;77,13641
 234,87;   76,028;   34,771;  106,084;57,85391
 235,47;   46,120;   16,169;   74,148;51,65671
 236,07;   49,494;   30,266;   72,042;46,02536
 236,67;   58,875;   49,966;   85,180;25,29923
 237,27;   75,436;   28,873;  109,074;58,05824
 237,87;   73,192;   25,370;   99,805;64,24609
 238,47;   46,502;   14,269;   68,032;59,95358
 239,07;   72,828;   33,272;   95,738;63,32305
 239,67;  111,017;   43,477;  131,421;76,79915
 240,27;   83,209;   46,773;  119,176;50,32425
 240,87;   92,082;   50,773;  119,533;60,07614
 241,47;   52,722;   39,164;   76,131;36,67597
 242,07;   56,520;   39,968;   92,894;31,27393
 242,67;   32,691;  -11,027;   77,914;49,15353
 243,27;   37,957;    7,767;   46,418;78,10849
 243,87;   76,574;   48,671;  108,343;46,75977
 244,47;   68,919;   22,371;   99,703;60,19251
 245,07;   40,183;    2,669;   55,770;70,64702
 245,67;   60,329;   31,068;   85,575;53,68361
 246,27;   58,085;   34,965;   69,007;67,91660
 246,87;   46,765;   26,668;   63,154;55,08317
 247,46;   20,740;   19,663;   23,793;26,07901
 248,06;   42,401;   20,470;   69,786;44,47023
 248,66;   76,773;   31,072;  105,898;61,07643
 249,26;   47,694;   32,366;   70,742;39,94053
 249,86;   68,709;   42,873;  102,176;43,56662
 250,46;   57,072;   16,775;   93,507;52,51662
 251,06;   45,329;   22,168;   65,375;53,60549
 251,66;   48,583;   20,771;   64,724;63,27593
 252,26;   46,184;   38,866;   70,261;23,31026
 252,86;   60,583;   35,969;   89,070;46,35368
 253,46;    1,757;   -8,033;   22,118;32,46931
 254,06;   66,248;   31,766;   79,483;72,26447
 254,66;   60,345;   34,973;  100,155;38,92565
 255,26;   83,155;   39,073;  118,836;55,26606
 255,86;   48,022;   37,464;   55,631;58,11601
 256,46;   39,465;   19,870;   70,208;38,92721
 257,05;   59,137;   23,570;   59,565;98,81213
 257,65;   72,128;   38,071;   97,684;57,13076
 258,25;   74,618;   37,372;  101,457;58,11984
 258,85;   43,983;   15,669;   51,770;78,43073
 259,45;   44,993;    6,869;   42,951;105,65779
 260,05;   58,757;   46,667;   85,818;30,87999
 260,65;   56,184;   45,066;   83,561;28,88232
 261,25;   58,074;   29,371;   85,943;50,73617
 261,85;   41,710;   -0,129;   47,622;87,61886
 262,45;   78,183;   46,169;  109,270;50,73496
 263,04;   75,100;   53,073;  116,295;34,84073
 263,64;   61,693;   33,767;   77,097;64,44994
 264,24;   70,064;   37,671;   89,062;63,03267
 264,84;  107,463;   58,974;  138,671;60,84192
 265,44;   39,084;   26,368;   67,716;30,75422
 266,04;   61,357;   48,865;   71,464;55,27809
 266,64;   50,875;   39,866;   86,780;23,46606
 267,24;   57,475;   40,166;   68,980;60,07125
 267,84;   50,756;   24,668;   76,573;50,26164
 268,43;   72,775;   48,368;   95,935;51,31064
 269,03;   65,547;   46,969;   87,892;45,39862
 269,63;   73,239;   58,566;   92,402;43,36539
 270,23;   32,267;   10,765;   39,045;76,03140
 270,83;   66,084;   55,266;   83,161;38,78201
 271,43;   50,638;   23,967;   58,856;76,44598
 272,03;   79,584;   64,168;   99,116;44,11196
 272,62;   52,129;   23,269;   68,730;63,48288
 273,22;   42,747;   11,970;   61,046;62,71198
 273,82;   17,432;   17,460;   26,403;-0,31749
 274,42;   28,567;   25,164;   46,890;15,66459
 275,02;   43,294;   34,864;   60,388;33,02747
 275,62;   85,718;   31,972;  100,457;78,47869
 276,21;   55,310;   22,770;   69,267;69,98319
 276,81;   62,866;   46,767;   71,099;66,16395
 277,41;   55,601;   22,971;   96,341;44,47241
 278,01;   24,994;   21,364;   42,788;16,94289
 278,61;   73,438;   38,869;   83,811;76,91977
 279,20;   84,609;   65,473;  119,076;35,70017
 279,80;    3,241;    6,762;   11,539;-73,70634
 280,40;   45,494;   36,866;   79,742;20,12234
 281,00;   21,138;   -4,331;   33,311;67,66177
 281,60;   54,418;   20,774;   74,812;62,26014
 282,20;   54,665;   36,670;   70,108;53,81639
 282,79;   50,475;   29,568;   70,135;51,53681
 283,39;   17,939;   17,466;   44,702; 1,73672
 283,99;   29,240;   23,165;   34,347;54,32459
 284,59;   29,774;   16,869;   45,289;45,40795
 285,19;   43,711;   27,067;   57,759;54,23138
 285,78;   55,565;   23,270;   63,808;79,66604
 286,38;   47,485;   39,665;   59,207;40,01751
 286,98;   56,875;   35,168;   73,535;56,57713
 287,58;   38,919;    4,771;   61,403;60,29819
 288,17;   51,755;    8,973;   80,336;59,94965
 288,77;   60,299;   19,976;   92,504;55,59645
 289,37;   29,683;   11,269;   57,670;39,68505
 289,97;   57,440;   48,965;   66,647;47,92798
 290,57;   74,291;   46,672;   93,260;59,28483
 291,16;   85,584;   63,868;  102,616;56,04482
 291,76;   38,747;    5,570;   47,346;79,41537
 292,36;   48,548;   34,367;   58,137;59,65701
 292,96;   36,964;   -3,127;   60,117;63,39123
 293,55;   48,666;   24,267;   65,399;59,31889
 294,15;   46,210;   26,870;   62,567;54,17878
 294,75;   53,285;   42,065;   66,207;46,47590
 295,35;   28,584;   21,068;   52,016;24,28671
 295,94;   56,621;   42,967;   66,740;57,43485
 296,54;   43,511;   30,768;   70,613;31,98062
 297,14;   62,455;   29,971;   76,881;69,24716
 297,73;   11,221;   12,165;   40,085;-3,38068
 298,33;   45,748;   28,066;   57,583;59,90597
 298,93;   62,665;   41,968;   82,554;50,99695
 299,53;   53,082;   24,872;   69,079;63,81419
 300,12;   37,555;  -12,229;   59,481;69,42385
 300,72;   68,493;   41,567;   91,197;54,25365
 301,32;   63,628;   25,771;   99,584;51,28822
 301,92;   26,113;    3,664;   33,050;76,39227
 302,51;   39,302;   11,567;   49,978;72,20708
 303,11;   35,911;   14,667;   48,759;62,31581
 303,71;   44,202;   21,369;   82,132;37,57708
 304,30;   19,803;    5,466;   38,423;43,50183
 304,90;   23,448;   19,666;   44,283;15,36525
 305,50;   44,067;   18,565;   64,345;55,70467
 306,09;   41,794;   15,466;   49,042;78,41144
 306,69;   64,364;   34,171;   90,262;53,82886
 307,29;   21,187;   18,760;   33,144;16,86907
 307,88;   68,874;   43,269;   72,489;87,62857
 308,48;   26,056;    0,070;   49,727;52,33063
 309,08;    8,349;   -4,437;   11,774;78,87452
 309,68;   36,221;   22,365;   39,585;80,46401
 310,27;   38,229;   20,169;   49,830;60,88781
 310,87;   47,611;   23,468;   54,813;77,02269
 311,47;   66,157;   54,967;   92,918;29,48494
 312,06;   55,076;   47,865;   68,426;35,07062
 312,66;   75,384;   51,168;  100,016;49,57469
 313,26;   78,983;   48,571;   96,224;63,81900
 313,85;   55,911;   38,267;   65,959;63,71771
 314,45;   69,538;   42,969;   86,611;60,87992
 315,04;   69,476;   52,165;   81,826;58,36248
 315,64;   47,093;   21,267;   47,897;96,98229
 316,24;   62,456;   40,770;   85,627;48,34435
 316,83;   54,594;   40,366;   76,742;39,11254
 317,43;   48,438;   35,167;   68,156;40,22892
 318,03;   51,131;   39,063;   70,012;38,99232
 318,62;   79,150;   73,061;   94,820;27,98255
 319,22;   52,056;    7,668;   66,973;74,84783
 319,82;   66,584;   40,768;   93,516;48,94261
 320,41;   93,402;   59,069;   98,732;86,56102
 321,01;  107,367;   80,465;  115,945;75,82208
 321,60;   86,067;   81,164;  102,790;22,67291
 322,20;  106,445;   67,673;  132,855;59,48358
 322,80;   80,593;   54,567;   91,797;69,90653
 323,39;   68,749;   65,764;   94,828;10,26859
 323,99;   79,584;   61,766;  102,661;43,57070
 324,59;   72,931;   73,063;   97,512;-0,54164
 325,18;   78,402;   40,967;   92,178;73,10044
 325,78;   92,821;   76,365;  108,885;50,60264
 326,37;   81,729;   74,868;  108,075;20,66267
 326,97;   94,793;   63,267;  111,497;65,36629
 327,57;   52,040;   42,263;   76,493;28,56285
 328,16;   69,522;   60,864;   93,631;26,42303
 328,76;   89,521;   50,467;  110,140;65,44664
 329,35;  107,328;   56,871;  137,484;62,59207
 329,95;   71,965;   27,470;   91,308;69,69997
 330,54;   85,957;   52,167;   94,018;80,73811
 331,14;   57,266;   26,967;   82,599;54,46339
 331,74;   78,767;   54,165;   96,145;58,60316
 332,33;   70,356;   35,370;  108,127;48,08586
 332,93;   61,613;   43,764;   79,250;50,29772
 333,52;   65,939;   42,466;   93,102;46,35659
 334,12;  107,447;   72,069;  140,392;51,78122
 334,71;   71,694;   50,666;   87,942;56,41031
 335,31;   91,711;   63,267;  119,859;50,26274
 335,90;   31,968;   32,362;   53,836;-1,83753
 336,50;   51,985;   30,665;   77,207;45,80854
 337,10;   92,729;   38,769;  121,530;65,19974
 337,69;   58,985;   51,765;   93,707;17,21488
 338,29;   62,848;   30,467;  101,037;45,88418
 338,88;   56,465;   22,468;   99,854;43,93248
 339,48;   77,522;   57,862;  111,677;36,53323
 340,07;   75,530;   48,566;  107,321;45,89192
 340,67;   76,428;   31,171;  124,784;48,34519
 341,26;   80,494;   48,466;   98,942;63,45091
 341,86;  108,320;   61,469;  138,348;60,93998
 342,45;   97,774;   45,669;  142,689;53,70538
 343,05;   77,474;   27,269;  115,689;56,78012
 343,64;   84,775;   47,366;  122,480;49,80285
 344,24;   44,785;   28,765;   92,107;25,29167
 344,83;   82,140;   71,365;  121,747;21,38629
 345,43;   67,121;   29,667;  114,240;44,28602
 346,02;   72,993;   41,469;  124,351;38,03433
 346,62;   92,983;   40,971;  140,424;52,29784
 347,21;   74,121;   42,165;  131,985;35,57784
 347,81;   85,491;   26,172;  140,560;51,85826
 348,40;   51,222;   29,064;  100,731;30,91803
 349,00;   74,131;   49,163;  137,712;28,19646
 349,59;  115,847;   65,870;  177,846;44,63144
 350,19;   75,883;   32,571;  139,424;40,53407
 350,78;   81,611;   55,467;  140,759;30,65314
 351,38;   61,093;   15,869;  140,951;36,15518
 351,97;   69,421;   26,767;  136,040;39,03437
 352,57;   76,256;   42,570;  155,827;29,74283
 353,16;   62,749;   30,564;  134,328;31,01697
 353,76;   79,447;   38,770;  169,846;31,03274
 354,35;   62,020;   27,669;  160,148;25,92868
 354,95;  101,510;   43,970;  182,067;41,66658
 355,54;   91,156;   38,368;  163,973;42,02718
 356,14;   91,920;   40,069;  164,749;41,58683
 356,73;   65,122;   29,162;  145,176;30,99627
 357,32;   61,402;   13,769;  164,432;31,61559
 357,92;   77,837;   17,772;  181,419;36,70387
 358,51;  107,682;   43,372;  214,179;37,65085
 359,11;   89,291;   36,772;  212,360;29,91073
 359,70;   73,837;   28,470;  189,965;28,09195
 360,30;   89,941;   54,562;  188,039;26,50574
 360,89;   70,965;   31,168;  188,054;25,36714
 361,48;  107,210;   55,570;  216,467;32,09530
 362,08;   63,438;   19,867;  187,156;26,04539
 362,67;   78,840;   39,763;  192,693;25,55225
 363,27;  118,402;   60,767;  247,678;30,83569
 363,86;   97,567;   35,765;  215,745;34,33799
 364,46;  108,022;   44,664;  257,231;29,80614
 365,05;  122,787;   64,659;  254,989;30,54075
 365,64;  109,605;   50,960;  269,706;26,80975
 366,24;  136,815;   38,558;  309,432;36,27392
 366,83;  155,861;   43,255;  335,383;38,54683
 367,43;  158,020;   51,545;  352,843;35,33872
 368,02;  196,564;   34,646;  399,757;44,34773
 368,61;  243,622;   62,239;  475,425;43,89859
 369,21;  218,038;   32,419;  445,299;44,95708
 369,80;  268,024;   43,007;  526,947;46,49698
 370,39;  318,261;   62,006;  604,971;47,19554
 370,99;  328,195;   42,089;  615,416;49,90276
 371,58;  339,009;   22,974;  630,953;51,98133
 372,18;  374,176;   37,166;  701,603;50,72117
 372,77;  374,491;   42,449;  679,385;52,13110
 373,36;  395,638;   42,747;  690,836;54,45098
 373,96;  348,969;   35,135;  639,498;51,92801
 374,55;  348,175;   29,844;  621,406;53,81195
 375,14;  325,046;   42,849;  573,826;53,14669
 375,74;  316,379;   69,157;  543,276;52,14346
 376,33;  248,131;   45,964;  464,589;48,29312
 376,92;  223,117;   33,278;  447,997;45,77533
 377,52;  306,489;   86,103;  548,460;47,66580
 378,11;  228,817;   46,703;  457,203;44,36399
 378,71;  260,468;   73,011;  514,270;42,48234
 379,30;  280,021;   59,517;  553,928;44,59926
 379,89;  274,304;   59,813;  556,103;43,21887
 380,49;  285,893;   31,018;  568,185;47,44804
 381,08;  322,452;   70,306;  570,990;50,36030
 381,67;  289,733;   55,008;  555,483;46,90051
 382,26;  290,952;   41,706;  539,390;50,08117
 382,86;  289,299;   54,003;  516,041;50,92557
 383,45;  308,077;   50,412;  562,105;50,35529
 384,04;  291,286;   38,712;  553,886;49,02690
 384,64;  289,676;   49,014;  566,760;46,48274
 385,23;  309,843;   64,406;  560,509;49,47291
 385,82;  320,421;   59,615;  592,774;48,91714
 386,42;  368,682;   61,024;  659,022;51,44799
 387,01;  327,886;   55,414;  580,541;51,88685
 387,60;  329,606;   69,009;  590,140;50,00603
 388,20;  328,877;   37,712;  590,805;52,64296
 388,79;  394,629;   72,418;  665,563;54,32246
 389,38;  320,252;   32,106;  564,890;54,08307
 389,97;  368,330;   45,415;  640,955;54,22230
 390,57;  382,213;   71,114;  654,038;53,36859
 391,16;  398,513;   62,514;  655,838;56,62982
 391,75;  394,649;   52,713;  638,562;58,36590
 392,34;  435,892;   60,821;  696,694;58,98524
 392,94;  450,320;   44,718;  689,683;62,88749
 393,53;  432,603;   41,016;  666,612;62,59424
 394,12;  471,764;   53,023;  719,105;62,86625
 394,72;  479,095;   54,213;  706,122;65,17501
 395,31;  502,721;   42,115;  694,874;70,56300
 395,90;  536,127;   42,924;  732,881;71,48316
 396,49;  579,753;   58,028;  779,187;72,34534
 397,09;  572,966;   47,417;  749,188;74,88901
 397,68;  613,609;   44,025;  800,719;75,27268
 398,27;  640,444;   54,626;  809,652;77,58916
 398,86;  650,690;   43,125;  807,657;79,46892
 399,45;  698,707;   56,630;  844,037;81,54319
 400,05;  681,329;   23,820;  799,518;84,76352
 400,64;  729,211;   56,419;  831,001;86,85867
 401,23;  753,110;   53,920;  859,956;86,74433
 401,82;  791,410;   67,220;  868,256;90,40673
 402,42;  824,837;   62,921;  873,953;93,94403
 403,01;  866,409;   81,525;  912,919;94,40575
 403,60;  915,970;   68,532;  940,513;97,18541
 404,19;  918,018;   76,024;  931,900;98,37802
 404,78;  937,401;   57,522;  909,929;103,22281
 405,38;  990,597;   68,332;  984,210;100,69735
 405,97;  980,454;   63,226;  953,933;102,97749
 406,56; 1047,289;   71,528; 1004,366;104,60139
 407,15; 1066,353;   68,829;  989,442;108,35431
 407,74; 1130,270;   80,730; 1026,758;110,94175
 408,34; 1119,688;   50,933; 1018,629;110,44322
 408,93; 1147,334;   59,531; 1016,234;113,70326
 409,52; 1182,650;   51,435; 1041,359;114,27291
 410,11; 1233,324;   84,931; 1090,453;114,20869
 410,70; 1236,181;   54,727; 1027,230;121,48582
 411,29; 1223,299;   58,628; 1030,847;119,79509
 411,89; 1314,187;   60,535; 1093,938;121,31298
 412,48; 1296,344;   48,228; 1051,606;124,39135
 413,07; 1357,706;   65,033; 1101,446;124,72569
 413,66; 1393,996;   78,135; 1102,119;128,50406
 414,25; 1426,077;   63,337; 1142,311;126,29959
 414,84; 1408,834;   69,431; 1102,434;129,66104
 415,44; 1443,580;   91,530; 1155,939;127,02347
 416,03; 1464,195;   76,637; 1161,173;127,94023
 416,62; 1513,840;   76,138; 1168,687;131,59153
 417,21; 1533,133;   75,334; 1158,843;134,54421
 417,80; 1550,922;   65,037; 1162,871;135,34703
 418,39; 1560,685;   78,440; 1179,201;134,65638
 418,98; 1535,551;   55,634; 1143,405;136,05040
 419,58; 1530,769;   64,033; 1142,067;136,05660
 420,17; 1538,360;   52,735; 1164,540;133,62271
 420,76; 1607,895;   72,537; 1192,873;137,04441
 421,35; 1592,132;   60,236; 1155,197;139,90411
 421,94; 1632,585;   88,340; 1223,501;136,03751
 422,53; 1656,276;   61,540; 1195,320;140,65656
 423,12; 1649,076;   64,039; 1190,766;140,67628
 423,71; 1634,287;   60,835; 1162,138;142,87186
 424,30; 1674,759;   85,236; 1210,695;141,23334
 424,90; 1647,304;   39,438; 1163,809;143,00141
 425,49; 1692,040;   70,140; 1216,242;141,51446
 426,08; 1731,540;   80,240; 1209,641;146,21014
 426,67; 1678,377;   57,436; 1168,257;145,92284
 427,26; 1717,993;   60,343; 1230,391;141,67368
 427,85; 1713,549;   63,238; 1209,968;143,91453
 428,44; 1734,766;   68,442; 1218,093;144,94167
 429,03; 1778,484;   85,341; 1233,155;147,51022
 429,62; 1782,939;   78,941; 1240,296;146,72501
 430,21; 1796,211;   81,443; 1277,807;143,33160
 430,80; 1770,001;   70,445; 1235,381;145,89273
 431,39; 1775,902;   53,344; 1246,926;144,31830
 431,99; 1764,387;   78,535; 1206,838;149,41484
 432,58; 1811,376;   82,639; 1251,166;147,94161
 433,17; 1792,496;   69,735; 1238,319;147,42296
 433,76; 1876,437;   71,347; 1288,314;148,32699
 434,35; 1861,110;   88,245; 1292,462;147,22146
 434,94; 1865,027;   70,849; 1318,887;143,75989
 435,53; 1846,929;   78,643; 1278,669;147,35396
 436,12; 1861,056;   70,044; 1294,267;146,29790
 436,71; 1908,067;   87,740; 1303,239;149,75963
 437,30; 1898,848;   76,941; 1299,177;149,06346
 437,89; 1953,265;   76,245; 1320,802;150,81830
 438,48; 1928,648;   65,942; 1305,731;150,24375
 439,07; 1966,786;   95,238; 1347,147;149,49556
 439,66; 1999,564;   83,648; 1375,711;148,28347
 440,25; 2001,156;   85,844; 1390,567;146,79839
 440,84; 2000,954;   79,850; 1387,984;146,85830
 441,43; 2037,534;   78,054; 1440,985;143,76955
 442,02; 2028,036;   79,650; 1411,022;146,34417
 442,61; 2022,702;   93,344; 1397,226;147,97023
 443,20; 2089,409;   94,249; 1446,625;147,52998
 443,79; 2070,865;   74,546; 1412,957;149,15593
 444,38; 2090,600;   84,248; 1461,789;145,64732
 444,97; 2082,938;   84,146; 1466,359;144,60804
 445,56; 2121,174;  101,846; 1477,038;146,83973
 446,15; 2129,754;   81,651; 1522,539;142,14172
 446,74; 2081,747;   58,644; 1462,286;144,13243
 447,33; 2138,464;   82,646; 1538,357;141,22440
 447,92; 2140,063;   78,151; 1570,720;138,14517
 448,51; 2148,783;   89,746; 1586,019;137,61106
 449,10; 2209,347;   92,045; 1608,840;139,59049
 449,69; 2222,927;   73,950; 1627,741;138,30536
 450,28; 2245,519;   66,948; 1608,251;141,34597
 450,87; 2280,228;   78,647; 1656,333;139,54498
 451,46; 2288,291;   96,048; 1702,208;136,48967
 452,05; 2295,754;   70,950; 1715,384;135,29296
 452,64; 2356,281;   70,850; 1725,182;138,14830
 453,23; 2426,781;  113,752; 1794,936;137,58329
 453,82; 2463,717;   83,451; 1800,660;138,61247
 454,40; 2468,681;   65,450; 1786,682;139,62275
 454,99; 2545,280;  101,253; 1871,891;138,03090
 455,58; 2540,546;   69,747; 1832,095;140,19930
 456,17; 2593,508;   63,852; 1873,634;139,77684
 456,76; 2651,663;   67,751; 1918,820;139,59026
 457,35; 2727,100;   78,348; 1930,490;143,01025
 457,94; 2793,762;   66,954; 1978,929;142,61735
 458,53; 2823,272;   67,350; 2010,101;141,85670
 459,12; 2969,497;   82,657; 2111,116;142,31690
 459,71; 2962,009;   58,148; 2060,071;145,05362
 460,30; 3055,564;   84,448; 2087,511;148,32863
 460,89; 3127,963;   57,551; 2129,920;148,15953
 461,48; 3216,962;   75,954; 2173,829;149,72332
 462,06; 3247,445;   68,050; 2187,303;150,02429
 462,65; 3264,682;   48,249; 2176,527;151,12838
 463,24; 3421,988;   87,456; 2288,680;151,48533
 463,83; 3431,645;   54,450; 2229,803;155,24810
 464,42; 3538,727;   88,349; 2333,687;153,66853
 465,01; 3574,581;   73,050; 2336,482;154,70010
 465,60; 3647,036;   64,050; 2384,322;154,42093
 466,19; 3715,762;   73,354; 2462,829;152,43550
 466,77; 3746,254;   81,551; 2462,939;153,88937
 467,36; 3780,651;   69,457; 2459,256;155,29313
 467,95; 3861,299;   79,551; 2466,098;158,46105
 468,54; 3896,043;   71,954; 2513,866;156,60224
 469,13; 3952,335;   69,452; 2535,977;157,42323
 469,72; 3999,216;   67,555; 2582,723;156,31800
 470,31; 4073,807;   87,855; 2629,242;156,84156
 470,90; 4093,199;   76,750; 2652,044;155,96081
 471,48; 4092,842;   32,057; 2671,875;153,82822
 472,07; 4145,492;  125,747; 2686,454;156,97792
 472,66; 4186,644;   67,853; 2748,412;153,65417
 473,25; 4184,454;   68,351; 2723,339;155,03282
 473,84; 4204,680;   55,955; 2766,545;153,05615
 474,43; 4229,333;   55,459; 2843,049;149,73055
 475,01; 4259,789;   69,254; 2885,926;148,77610
 475,60; 4247,570;   49,755; 2882,364;148,19607
 476,19; 4278,515;   74,158; 2956,932;145,84411
 476,78; 4271,651;   71,057; 2964,456;145,17852
 477,37; 4240,970;   59,355; 2945,364;144,89266
 477,95; 4262,897;   75,656; 3018,661;142,27773
 478,54; 4231,080;   63,253; 3023,691;140,78415
 479,13; 4181,180;   56,253; 3070,291;136,85720
 479,72; 4215,252;   81,154; 3090,147;137,39141
 480,31; 4188,124;   63,459; 3167,468;132,88186
 480,89; 4153,189;   60,254; 3171,026;131,57296
 481,48; 4183,041;   46,260; 3214,084;130,58746
 482,07; 4157,843;   61,654; 3233,866;129,12721
 482,66; 4150,826;   52,853; 3253,650;128,02976
 483,25; 4170,941;   78,960; 3319,884;126,25971
 483,83; 4139,934;   59,954; 3325,385;124,94460
 484,42; 4143,862;   54,354; 3355,129;123,89539
 485,01; 4206,424;   65,958; 3400,413;124,17218
 485,60; 4230,767;   73,764; 3490,590;121,66270
 486,18; 4238,697;   66,956; 3490,761;121,84516
 486,77; 4281,480;   67,252; 3519,736;122,06365
 487,36; 4357,013;   58,464; 3561,750;122,70048
 487,95; 4359,768;   59,161; 3640,781;120,07434
 488,53; 4407,923;   54,461; 3642,522;121,33187
 489,12; 4475,085;   50,563; 3722,252;120,50372
 489,71; 4467,932;   38,062; 3680,357;121,62302
 490,30; 4568,432;   61,460; 3742,503;122,43736
 490,88; 4622,414;   87,561; 3859,141;120,23747
 491,47; 4713,731;   60,663; 3867,512;122,22886
 492,06; 4705,404;   62,563; 3920,615;120,34160
 492,65; 4727,404;   59,161; 3947,060;120,07110
 493,23; 4840,896;   54,860; 3982,825;121,84519
 493,82; 4863,735;   65,853; 4018,031;121,39843
 494,41; 4865,495;   51,361; 4066,179;119,90915
 494,99; 4934,479;   73,655; 4126,945;119,92294
 495,58; 5006,432;   86,060; 4224,403;118,89715
 496,17; 4998,388;   56,356; 4198,681;119,30577
 496,76; 5038,998;   65,356; 4276,761;118,09933
 497,34; 5028,088;   54,557; 4305,235;117,00560
 497,93; 5006,242;   66,057; 4350,675;115,30047
 498,52; 5032,814;   60,059; 4454,387;113,16304
 499,10; 5015,777;   75,862; 4533,217;110,82615
 499,69; 5010,305;   55,360; 4537,006;110,56084
 500,28; 4942,423;   37,959; 4592,068;107,69317
 500,86; 4971,741;   62,862; 4698,539;105,89347
 501,45; 4913,641;   53,462; 4730,438;103,91711
 502,04; 4924,031;   53,362; 4813,958;102,31218
 502,62; 4888,688;   70,956; 4856,181;100,67933
 503,21; 4847,179;   57,856; 4939,699;98,10481
 503,80; 4829,522;   69,662; 5015,577;96,23822
 504,38; 4773,596;   58,460; 5081,425;93,87157
 504,97; 4723,422;   49,962; 5122,776;92,12757
 505,56; 4656,787;   70,859; 5194,989;89,49671
 506,14; 4624,158;   64,064; 5263,709;87,70009
 506,73; 4503,285;   23,565; 5292,507;85,02125
 507,32; 4489,467;   62,865; 5376,045;83,31361
 507,90; 4461,741;   70,860; 5443,284;81,72998
 508,49; 4402,930;   58,865; 5500,366;79,83211
 509,08; 4429,322;   67,264; 5571,931;79,24290
 509,66; 4390,987;   69,960; 5677,644;77,05547
 510,25; 4355,759;   63,561; 5737,400;75,64891
 510,83; 4353,485;   45,165; 5855,607;74,14789
 511,42; 4394,411;   61,968; 5895,913;74,26266
 512,01; 4370,049;   59,164; 5980,328;72,80468
 512,59; 4375,222;   46,562; 6041,676;72,20313
 513,18; 4418,095;   59,961; 6114,379;71,98271
 513,77; 4434,306;   42,257; 6171,797;71,65382
 514,35; 4464,458;   37,763; 6190,255;71,94964
 514,94; 4571,677;   58,662; 6323,517;72,03702
 515,52; 4589,193;   48,166; 6358,342;71,96356
 516,11; 4717,640;   80,665; 6474,047;72,52773
 516,69; 4682,269;   41,959; 6446,727;72,45086
 517,28; 4719,469;   83,358; 6541,973;71,78182
 517,87; 4800,479;   45,558; 6604,054;72,50017
 518,45; 4843,260;   74,858; 6626,192;72,78521
 519,04; 4892,596;   54,258; 6707,970;72,71637
 519,62; 4992,204;   55,863; 6774,114;73,47658
 520,21; 5021,639;   24,466; 6828,002;73,44965
 520,79; 5108,829;   52,068; 7000,875;72,77165
 521,38; 5135,077;   52,960; 6995,363;73,20401
 521,97; 5207,266;   43,068; 7141,554;72,75069
 522,55; 5257,242;   67,759; 7195,230;72,80960
 523,14; 5263,187;   26,759; 7180,289;73,20062
 523,72; 5382,923;   77,561; 7383,422;72,61789
 524,31; 5380,385;   71,665; 7406,107;72,38069
 524,89; 5437,284;   48,468; 7526,815;72,05891
 525,48; 5445,475;   21,666; 7603,580;71,53614
 526,06; 5458,749;   56,264; 7633,128;71,30238
 526,65; 5518,792;   72,370; 7803,105;70,45154
 527,23; 5465,413;   46,262; 7840,596;69,52680
 527,82; 5519,302;   37,967; 7905,978;69,66609
 528,41; 5557,630;   67,366; 8041,021;68,85505
 528,99; 5556,230;   66,365; 8108,167;68,26661
 529,58; 5507,968;   42,562; 8168,736;67,25681
 530,16; 5553,595;   49,461; 8315,379;66,58830
 530,75; 5600,503;   73,964; 8417,069;66,24080
 531,33; 5530,275;   45,566; 8440,980;65,32982
 531,92; 5503,086;   48,560; 8567,344;64,02940
 532,50; 5671,210;   87,770; 8706,468;64,78288
 533,09; 5622,412;   65,665; 8807,204;63,56715
 533,67; 5607,451;   63,458; 8952,011;62,37227
 534,26; 5587,650;   65,760; 9007,665;61,75295
 534,84; 5681,004;   68,461; 9127,061;61,95818
 535,42; 5663,803;   61,564; 9205,969;61,26412
 536,01; 5729,304;   79,263; 9330,215;61,07524
 536,59; 5761,139;   43,366; 9482,202;60,57710
 537,18; 5833,705;   77,360; 9568,605;60,64900
 537,76; 5979,146;   56,972; 9764,700;61,00474
 538,35; 6096,820;   59,368; 9892,694;61,39786
 538,93; 6153,849;   72,664; 9941,828;61,61803
 539,52; 6297,392;   57,370;10111,405;62,06485
 540,10; 6488,729;   63,269;10309,029;62,71335
 540,69; 6609,676;   68,763;10444,071;63,04307
 541,27; 6851,177;   58,262;10514,917;64,96260
 541,85; 7064,248;   47,366;10658,783;66,12578
 542,44; 7331,441;   56,460;10765,484;67,93319
 543,02; 7603,029;   80,369;10952,729;69,19068
 543,61; 7886,357;   77,067;11102,218;70,83159
 544,19; 8140,703;   55,066;11264,023;72,13549
 544,78; 8361,484;   62,766;11296,562;73,87279
 545,36; 8709,538;   77,469;11521,011;75,43180
 545,94; 8917,604;   54,564;11563,069;77,01295
 546,53; 9146,155;   52,771;11724,882;77,90694
 547,11; 9433,356;   90,668;11879,873;79,24782
 547,70; 9601,405;   75,860;11954,706;80,18915
 548,28; 9779,330;   47,965;12093,066;80,79106
 548,86;10023,030;   81,365;12327,767;81,18030
 549,45;10118,766;   33,768;12364,953;81,78450
 550,03;10317,548;   76,467;12507,537;82,38294
 550,62;10470,294;   63,566;12662,842;82,59783
 551,20;10653,457;   61,467;12808,418;83,09430
 551,78;10760,013;   61,164;12952,850;82,99030
 552,37;10793,203;   55,864;13112,469;82,23684
 552,95;10894,939;   56,765;13214,547;82,37083
 553,54;11054,185;   49,965;13393,207;82,47036
 554,12;11203,793;   67,167;13498,797;82,91344
 554,70;11368,656;   67,568;13736,973;82,67433
 555,29;11430,321;   61,965;13856,285;82,41331
 555,87;11507,901;   60,170;13987,786;82,19448
 556,45;11598,031;   57,162;14154,058;81,86816
 557,04;11706,966;   43,667;14376,600;81,37413
 557,62;11834,066;   68,867;14525,499;81,38271
 558,20;11943,101;   42,671;14799,940;80,64113
 558,79;12098,529;  100,368;14905,875;81,03850
 559,37;12136,957;   49,867;15000,418;80,84712
 559,95;12277,647;   46,669;15169,691;80,87655
 560,54;12402,811;   71,768;15324,613;80,84421
 561,12;12420,984;   50,866;15485,562;80,14488
 561,70;12594,992;   50,369;15679,551;80,26411
 562,29;12750,720;   61,768;15810,994;80,56873
 562,87;12827,865;   73,168;16023,953;79,96282
 563,45;12974,165;   71,068;16194,754;80,02573
 564,04;12996,813;   54,362;16227,195;80,02588
 564,62;13111,401;   37,769;16438,332;79,71453
 565,20;13268,940;   59,962;16715,838;79,30522
 565,78;13441,876;   70,765;16797,326;79,93939
 566,37;13532,948;   71,066;17011,283;79,46700
 566,95;13686,729;   52,969;17124,330;79,86334
 567,53;13838,331;   67,262;17308,857;79,87120
 568,12;13834,330;   62,265;17367,766;79,58201
 568,70;14091,594;   85,264;17565,889;80,12488
 569,28;14289,893;   61,069;17745,252;80,46074
 569,86;14276,712;   67,767;17910,758;79,63320
 570,45;14501,374;   78,569;18124,689;79,92191
 571,03;14505,086;   53,962;18259,898;79,37589
 571,61;14724,083;   46,571;18424,824;79,86348
 572,19;14724,049;   54,263;18395,773;79,98134
 572,78;14927,229;   70,668;18668,975;79,88126
 573,36;15028,003;   84,264;18797,668;79,85580
 573,94;15149,713;   44,064;18892,750;80,14166
 574,52;15269,123;   54,559;19030,768;80,17705
 575,11;15298,722;   37,264;19159,830;79,80863
 575,69;15396,275;   53,566;19268,680;79,84709
 576,27;15398,168;   47,161;19391,381;79,35707
 576,85;15586,304;   43,264;19549,668;79,68173
 577,44;15686,132;   30,262;19814,158;79,13441
 578,02;15727,714;   32,159;19753,887;79,58509
 578,60;15928,167;   50,464;20073,791;79,29603
 579,18;15987,086;   51,963;20160,752;79,24457
 579,76;15963,349;   40,264;20300,129;78,59423
 580,35;16160,465;   60,170;20436,707;79,01389
 580,93;16332,538;   59,667;20641,557;79,06403
 581,51;16375,110;   24,770;20697,168;79,09262
 582,09;16395,959;   58,663;20755,756;78,93522
 582,67;16488,557;   49,567;20971,318;78,57368
 583,26;16637,012;   28,568;21227,014;78,34746
 583,84;16714,658;   14,164;21413,709;78,04135
 584,42;16875,295;   48,064;21513,287;78,39299
 585,00;16995,176;   81,366;21772,180;77,97683
 585,58;17091,467;   25,167;21912,299;77,97413
 586,17;17152,422;   46,761;21948,521;78,10176
 586,75;17155,439;    6,666;22026,902;77,87734
 587,33;17323,902;   47,767;22191,678;78,01754
 587,91;17382,840;   74,866;22390,201;77,56090
 588,49;17466,230;   63,962;22349,758;78,08682
 589,07;17389,783;   45,468;22403,215;77,57631
 589,65;17295,121;   28,267;22444,439;77,02856
 590,24;17414,486;   42,562;22447,799;77,53511
 590,82;17397,705;   28,261;22484,160;77,34914
 591,40;17454,059;   41,464;22520,209;77,46249
 591,98;17425,369;   45,759;22558,227;77,19993
 592,56;17435,104;   61,161;22699,961;76,74410
 593,14;17575,770;   43,359;22728,928;77,28442
 593,72;17623,285;   29,765;22889,107;76,96424
 594,30;17581,613;   36,759;22797,486;77,08389
 594,89;17583,248;   41,364;22862,428;76,86707
 595,47;17655,322;   38,961;22922,623;76,98226
 596,05;17682,766;   30,267;23003,799;76,83842
 596,63;17737,967;   31,167;23056,199;76,90239
 597,21;17827,494;   36,766;23145,441;76,98723
 597,79;17835,920;   35,467;23166,039;76,95639
 598,37;17937,619;   36,669;23222,748;77,20559
 598,95;17936,939;   50,766;23305,301;76,91478
 599,53;17922,807;   46,757;23207,996;77,18089
 600,11;18021,139;   48,665;23341,947;77,15733
 600,70;17953,830;   57,363;23315,111;76,94841
 601,28;18015,258;   38,564;23424,809;76,86866
 601,86;17940,840;   61,766;23355,102;76,75618
 602,44;17989,004;   23,661;23449,660;76,68976
 603,02;18055,543;   38,656;23576,521;76,54427
 603,60;18094,914;   54,858;23663,232;76,41380
 604,18;18073,895;   69,263;23594,734;76,53250
 604,76;18127,059;   59,263;23642,154;76,61400
 605,34;17962,158;   27,565;23530,764;76,30703
 605,92;17932,449;   59,561;23453,719;76,39894
 606,50;17950,586;   17,662;23498,998;76,37097
 607,08;17912,375;   31,666;23394,881;76,53360
 607,66;17929,693;   39,266;23561,643;76,05706
 608,24;17796,012;   46,067;23522,059;75,60892
 608,82;17880,021;   26,164;23532,031;75,95490
 609,40;17706,330;   46,466;23471,021;75,39039
 609,98;17598,350;   18,864;23505,928;74,84752
 610,56;17622,678;   43,861;23497,662;74,95082
 611,14;17495,121;   30,765;23481,086;74,47385
 611,72;17386,730;   42,665;23572,467;73,71106
 612,30;17301,912;   24,962;23468,496;73,69601
 612,88;17193,842;   60,659;23517,730;73,04059
 613,46;17015,686;   21,862;23505,697;72,36392
 614,04;16887,355;   30,068;23461,873;71,94191
 614,62;16645,568;   41,561;23489,982;70,81077
 615,20;16513,584;   52,768;23402,416;70,49706
 615,78;16355,528;   25,569;23463,430;69,67342
 616,36;16108,612;   41,364;23400,150;68,78460
 616,94;15856,794;    7,666;23272,242;68,12558
 617,52;15525,639;   24,067;23373,656;66,38905
 618,10;15373,478;   63,559;23336,107;65,78531
 618,68;15109,349;   17,966;23253,184;64,95047
 619,26;14810,774;   39,268;23398,834;63,23536
 619,84;14420,995;   18,963;23277,133;61,92247
 620,42;14233,585;   31,165;23313,506;61,00083
 621,00;13944,185;   28,865;23209,607;60,02966
 621,58;13682,604;   38,760;23216,406;58,86639
 622,16;13380,737;   49,270;23335,164;57,25126
 622,74;13157,493;   47,066;23327,742;56,31463
 623,32;12941,103;   42,166;23291,223;55,48155
 623,90;12795,729;   66,971;23311,484;54,76027
 624,48;12589,286;   32,662;23196,598;54,20765
 625,05;12520,286;   34,562;23105,098;54,11978
 625,63;12495,986;   52,962;23188,799;53,78247
 626,21;12502,513;   38,262;23117,596;54,00611
 626,79;12632,257;   53,967;23219,719;54,29692
 627,37;12591,577;   28,162;23090,717;54,47538
 627,95;12868,384;   72,768;23200,215;55,32654
 628,53;12985,985;   49,365;23176,607;55,93672
 629,11;13108,133;   48,259;23043,449;56,79394
 629,69;13419,602;   53,369;23256,932;57,60423
 630,27;13571,995;   80,763;23105,434;58,59468
 630,84;13621,986;   43,862;23021,197;59,09356
 631,42;13861,639;   54,367;23319,656;59,34709
 632,00;14050,623;   45,459;23125,768;60,68014
 632,58;14078,677;   50,263;23105,172;60,84784
 633,16;14184,792;   49,870;23096,906;61,33076
 633,74;14193,694;   56,264;23018,488;61,56821
 634,32;14146,914;   45,661;23007,842;61,41077
 634,90;14298,146;   51,970;23195,746;61,55511
 635,47;14223,687;   38,860;23035,645;61,68178
 636,05;14086,514;   37,461;22989,342;61,21090
 636,63;13992,585;   45,965;23104,807;60,48274
 637,21;13882,948;   67,464;23150,529;59,85117
 637,79;13858,212;   71,465;23192,904;59,62755
 638,37;13595,361;   54,055;23070,883;58,83220
 638,94;13409,621;   33,265;23100,686;57,98809
 639,52;13338,421;   41,665;23195,285;57,42841
 640,10;13201,146;   64,264;23215,900;56,74278
 640,68;13012,037;   54,164;23175,334;56,04333
 641,26;12807,327;   35,864;23250,268;55,01525
 641,84;12698,317;   39,164;23235,002;54,57511
 642,41;12605,508;   28,264;23192,936;54,29494
 642,99;12608,098;   48,464;23145,568;54,37752
 643,57;12499,288;   22,064;23158,402;53,92912
 644,15;12415,078;   27,064;23178,035;53,50970
 644,73;12514,868;   37,564;23277,568;53,68891
 645,30;12442,758;   55,264;23230,303;53,45188
 645,88;12508,349;   44,964;23362,635;53,45038
 646,46;12613,339;   59,264;23447,568;53,67672
 647,04;12587,028;   51,864;23367,902;53,76198
 647,61;12574,019;   46,564;23396,336;53,65129
 648,19;12684,709;   61,664;23433,369;54,00994
 648,77;12717,999;   26,264;23442,002;54,20173
 649,35;12681,189;   51,064;23590,137;53,65600
 649,92;12827,279;   42,464;23596,070;54,27965
 650,50;12728,270;   30,064;23551,104;53,98658
 651,08;12743,760;   39,964;23450,537;54,26521
 651,66;12726,250;   21,864;23534,770;54,03154
 652,23;12715,439;   39,064;23561,004;53,89171
 652,81;12742,229;   36,464;23644,137;53,82049
 653,39;12754,820;   56,164;23647,170;53,82838
 653,97;12766,710;   37,065;23882,504;53,38398
 654,54;12672,000;   23,565;23823,137;53,14564
 655,12;12749,391;   30,965;23831,971;53,43651
 655,70;12708,581;   42,065;23962,805;52,95203
 656,28;12765,070;   32,765;23947,037;53,24145
 656,85;12774,961;   44,065;24051,070;53,02992
 657,43;12727,451;   -1,035;23831,305;53,40846
 658,01;12910,642;   21,465;24078,539;53,57749
 658,58;13039,932;   55,165;24234,371;53,70220
 659,16;13038,621;   51,965;24154,105;53,88175
 659,74;13177,512;   59,465;24338,039;54,03137
 660,32;13312,602;   71,665;24327,672;54,58828
 660,89;13324,992;   34,265;24347,305;54,66502
 661,47;13433,682;   51,665;24464,939;54,81451
 662,05;13592,772;   25,365;24587,373;55,23737
 662,62;13652,862;   59,665;24584,006;55,42737
 663,20;13783,252;   80,665;24740,139;55,56723
 663,78;13842,442;   47,965;24902,773;55,50024
 664,35;13940,133;   52,465;24921,006;55,84432
 664,93;13949,022;   64,465;25123,539;55,40730
 665,51;13885,613;   49,565;25170,973;55,07672
 666,08;13859,003;   30,165;25185,707;54,97333
 666,66;14003,793;   47,465;25667,539;54,47419
 667,23;14003,184;   51,765;25732,773;54,32582
 667,81;13964,073;   65,865;25889,307;53,82012
 668,39;13965,264;   43,265;26047,141;53,53817
 668,96;13989,554;   54,665;26309,074;53,07637
 669,54;13934,144;   38,765;26408,408;52,69460
 670,12;14038,134;   51,165;26808,740;52,27293
 670,69;14123,725;   64,165;26950,674;52,29225
 671,27;14172,814;   25,565;27096,008;52,26087
 671,84;14130,505;   40,665;27105,240;52,06008
 672,42;14235,895;   66,265;27253,875;52,11797
 673,00;14340,185;   57,165;27531,408;51,98694
 673,57;14234,975;   59,965;27276,441;52,08246
 674,15;14400,265;   64,065;27613,475;52,03814
 674,72;14389,355;   58,565;27536,209;52,15436
 675,30;14562,146;   69,466;27513,541;52,80805
 675,88;14615,735;   36,266;27573,176;52,94519
 676,45;14842,126;   59,466;27677,309;53,52576
 677,03;14827,416;   67,866;27525,043;53,75480
 677,60;14954,605;   41,466;27770,576;53,78153
 678,18;15118,096;   59,466;27877,510;54,13260
 678,76;15166,686;   40,766;27809,143;54,47175
 679,33;15279,876;   57,666;27813,176;54,84392
 679,91;15224,566;   44,266;27813,311;54,66627
 680,48;15283,557;   28,766;27740,242;55,04864
 681,06;15305,047;   50,866;27735,176;55,10046
 681,63;15263,236;   37,566;27736,209;54,96901
 682,21;15341,026;   67,966;27797,543;55,07859
 682,78;15150,917;   20,566;27459,576;55,14175
 683,36;15158,707;   46,966;27565,510;54,91476
 683,93;15010,897;   30,466;27450,645;54,63287
 684,51;14943,688;   26,166;27477,277;54,34214
 685,08;15128,378;   38,966;27733,711;54,48475
 685,66;15054,867;   53,066;27694,045;54,27377
 686,24;15065,258;   33,766;27796,578;54,14254
 686,81;15088,647;   57,666;27899,910;53,98624
 687,39;15010,738;   38,866;27807,844;53,91582
 687,96;15176,628;   54,166;27850,479;54,40456
 688,54;15237,019;   30,866;27984,811;54,39716
 689,11;15248,208;   26,966;28043,545;54,32941
 689,69;15316,599;   29,666;28019,279;54,61645
 690,26;15577,688;   59,466;28289,313;54,97098
 690,84;15541,479;   50,066;28239,846;54,95400
 691,41;15655,469;   35,966;28403,879;55,06046
 691,98;15806,560;   31,466;28427,912;55,55306
 692,56;15924,649;   32,866;28437,445;55,94796
 693,13;16154,939;   64,866;28655,080;56,27825
 693,71;16299,529;   24,466;28657,912;56,83934
 694,28;16425,320;   41,966;28715,945;57,13666
 694,86;16476,010;   47,266;28928,879;56,88305
 695,43;16607,301;   61,366;29100,912;56,97725
 696,01;16668,590;   36,266;29145,547;57,13753
 696,58;16716,480;   42,167;29083,879;57,41505
 697,16;16725,871;   38,067;29126,414;57,36938
 697,73;16826,660;   63,467;29338,246;57,26155
 698,30;16857,852;   51,867;29223,980;57,60976
 698,88;16794,941;   40,467;29558,613;56,75991
 699,45;16874,730;   35,367;29765,848;56,64007
 700,03;16979,820;   56,067;29750,980;56,99210
 700,60;16911,811;   56,267;29850,613;56,57296
 701,18;16995,502;   61,867;29963,947;56,63029
 701,75;17053,092;   74,367;30094,682;56,55745
 702,32;16949,482;   50,367;29901,914;56,61052
 702,90;17019,672;   52,467;30254,148;56,17967
 703,47;17103,361;   51,367;30428,881;56,13361
 704,05;17206,852;   67,767;30546,715;56,23253
 704,62;17193,941;   39,867;30587,848;56,15453
 705,19;17314,932;   43,667;30586,982;56,54679
 705,77;17496,322;   29,967;30618,314;57,10134
 706,34;17636,713;   61,667;30627,049;57,49984
 706,91;17748,303;   46,367;30673,883;57,79749
 707,49;17995,594;   57,267;30976,316;58,01707
 708,06;18177,383;   66,367;31089,049;58,37992
 708,64;18298,572;   25,767;31093,582;58,81587
 709,21;18468,264;   58,167;31179,316;59,15622
 709,78;18678,854;   41,367;31281,150;59,65946
 710,36;18812,643;   61,667;31419,684;59,79643
 710,93;19063,434;   50,567;31562,416;60,33561
 711,50;19205,824;   44,467;31506,049;60,90399
 712,08;19444,914;   76,567;31925,383;60,81340
 712,65;19389,904;   73,667;31775,916;60,93018
 713,22;19429,094;   69,067;31900,250;60,82095
 713,80;19539,285;   84,167;31966,883;61,02089
 714,37;19512,475;   55,767;31827,018;61,23998
 714,94;19487,965;   53,967;31727,551;61,35712
 715,52;19479,955;   47,867;31732,984;61,32875
 716,09;19593,145;   65,467;31891,918;61,35675
 716,66;19408,535;   73,467;31935,051;60,68458
 717,23;19374,725;   66,867;31908,484;60,63718
 717,81;19359,715;   50,168;31812,018;60,79478
 718,38;19274,305;   47,468;31671,252;60,79866
 718,95;19113,096;   59,068;31618,984;60,37414
 719,53;19190,385;   56,568;31661,418;60,54076
 720,10;19049,775;   59,968;31481,252;60,43613
 720,67;19001,666;   35,768;31355,984;60,55481
 721,24;19013,557;   59,468;31256,020;60,75700
 721,82;18969,646;   49,968;31236,053;60,66705
 722,39;19140,736;   64,068;31235,885;61,19845
 722,96;19218,426;   64,968;31261,420;61,39627
 723,53;19241,016;   88,268;31151,953;61,65639
 724,11;19470,307;   61,568;31207,486;62,31551
 724,68;19548,697;   71,568;31242,020;62,48587
 725,25;19751,588;   72,768;31399,953;62,81707
 725,82;20052,678;   96,068;31564,387;63,41810
 726,40;20245,066;   62,668;31714,820;63,76312
 726,97;20502,158;   62,168;31875,354;64,25006
 727,54;20677,148;   46,968;31801,486;64,96770
 728,11;20872,438;   49,568;32045,820;65,07909
 728,69;20911,127;   39,568;31938,953;65,42935
 729,26;21088,518;   53,568;32105,088;65,62856
 729,83;21241,008;   53,268;32264,621;65,77724
 730,40;21307,098;   66,768;32291,754;65,91261
 730,97;21514,188;   44,268;32590,588;65,96727
 731,55;21706,479;   41,468;32755,820;66,22479
 732,12;21811,869;   86,268;32841,656;66,32680
 732,69;21607,758;   66,968;32889,988;65,62708
 733,26;21619,549;   55,168;32930,520;65,59437
 733,83;21850,439;   41,168;32979,055;66,21333
 734,41;21907,029;   65,468;32991,590;66,33506
 734,98;21664,920;   51,368;33155,621;65,28935
 735,55;21795,209;   43,168;33183,656;65,63585
 736,12;21856,000;   65,968;33377,289;65,41329
 736,69;21895,490;   76,968;33377,922;65,51921
 737,26;21862,879;   57,468;33552,254;65,10091
 737,84;21847,869;   70,768;33487,188;65,16886
 738,41;21895,359;   63,168;33492,422;65,30864
 738,98;21937,650;   63,569;33375,055;65,66528
 739,55;21967,541;   49,669;33377,789;65,76390
 740,12;22134,131;   62,969;33678,023;65,65856
 740,69;22159,521;   70,569;33575,656;65,92716
 741,26;22241,410;   56,269;33557,391;66,22209
 741,83;22370,900;   53,869;33719,523;66,29021
 742,41;22521,191;   56,169;33833,055;66,51005
 742,98;22848,682;   91,469;33874,590;67,36267
 743,55;23012,072;   53,569;33836,824;67,95823
 744,12;23076,561;   50,469;33859,855;68,10562
 744,69;23306,752;   59,569;33848,492;68,80120
 745,26;23457,242;   42,169;33677,723;69,61406
 745,83;23665,031;   58,769;33854,355;69,85013
 746,40;23782,822;   57,969;33844,789;70,21925
 746,97;23779,012;   44,769;33828,125;70,25425
 747,55;23988,602;   62,269;33966,957;70,56939
 748,12;24206,092;   57,869;33910,191;71,33402
 748,69;24311,982;   68,769;33877,625;71,70670
 749,26;24240,273;   65,069;33958,559;71,32699
 749,83;24322,863;   42,569;33911,992;71,68795
 750,40;24420,553;   89,669;34158,824;71,41616
 750,97;24350,043;   96,269;34144,160;71,23429
 751,54;24254,033;   40,569;33980,793;71,34150
 752,11;24187,424;   52,969;33874,727;71,35778
 752,68;24258,213;   87,869;33912,859;71,45706
 753,25;24039,803;   60,269;33774,594;71,12565
 753,82;24162,494;   65,069;33810,527;71,40939
 754,39;24198,084;   75,169;33727,160;71,68347
 754,96;24079,873;   60,069;33616,395;71,58055
 755,53;24083,965;   29,469;33796,527;71,23657
 756,10;23887,154;   64,169;33720,961;70,78210
 756,67;23887,244;   73,369;33813,395;70,58049
 757,24;23833,234;   72,769;33740,426;70,57356
 757,81;23796,225;   16,469;33677,762;70,64421
 758,38;23974,615;   54,569;33822,695;70,83617
 758,95;23963,305;   79,469;33743,426;70,94780
 759,52;23956,695;   57,469;33615,859;71,21684
 760,09;23935,385;   68,570;33306,992;71,80490
 760,66;23822,775;   59,570;33309,727;71,46795
 761,23;23801,566;   91,070;33353,961;71,28213
 761,80;23817,955;   56,270;33295,793;71,48624
 762,37;24034,746;   68,970;33167,727;72,40688
 762,94;24173,035;   70,970;33187,461;72,77965
 763,51;24171,727;   36,070;32949,793;73,33007
 764,08;24255,615;   66,270;32998,527;73,45183
 764,65;24191,207;   69,570;32798,961;73,70023
 765,22;24478,596;   54,670;32804,496;74,57727
 765,79;24420,887;   77,370;32691,928;74,64003
 766,36;24539,076;   73,170;32743,063;74,88824
 766,93;24519,967;   68,970;32551,295;75,27477
 767,50;24685,057;   89,470;32828,328;75,12659
 768,07;24688,348;   63,870;32699,262;75,45329
 768,64;24681,236;   86,470;32572,596;75,70852
 769,21;24419,227;   57,970;32359,729;75,41774
 769,78;24489,418;   78,770;32244,963;75,88914
 770,34;24311,107;   45,570;32031,195;75,86388
 770,91;24293,098;   58,470;31921,430;76,05893
 771,48;24187,688;   62,370;31836,863;75,92668
 772,05;24081,379;   66,470;31610,697;76,13092
 772,62;23791,369;   42,670;31443,029;75,63193
 773,19;23925,959;   59,370;31579,764;75,71793
 773,76;23731,248;   71,070;31506,297;75,26645
 774,33;23736,838;   74,170;31447,330;75,42328
 774,90;23432,328;   52,870;31206,064;75,04674
 775,47;23375,318;   59,970;30957,498;75,46024
 776,03;23405,309;   73,470;30984,330;75,48104
 776,60;23319,898;   55,970;30757,863;75,77360
 777,17;23249,090;   65,470;30698,098;75,68277
 777,74;23066,279;   30,870;30522,031;75,54783
 778,31;23095,770;   68,970;30582,064;75,46530
 778,88;22923,859;   30,470;30366,898;75,46501
 779,45;22823,850;   75,770;30358,131;75,11990
 780,01;22783,939;   58,370;30299,664;75,14748
 780,58;22818,330;   60,570;30177,998;75,56342
 781,15;22789,020;   38,771;29979,432;75,98446
 781,72;22776,010;   66,771;29962,266;75,96208
 782,29;22617,801;   51,771;29667,100;76,19713
 782,86;22518,691;   55,571;29617,732;75,98606
 783,42;22562,381;   56,171;29598,166;76,18378
 783,99;22480,271;   66,671;29482,100;76,19675
 784,56;22398,762;   55,171;29320,232;76,34903
 785,13;22325,451;   40,271;29247,266;76,30083
 785,70;22360,141;   49,071;29060,299;76,90495
 786,26;22200,631;   51,671;28910,732;76,74872
 786,83;22188,721;   84,371;28889,166;76,73844
 787,40;22097,111;   57,171;28783,500;76,72383
 787,97;21951,701;   43,971;28581,133;76,76913
 788,54;21900,191;   70,371;28515,268;76,74424
 789,10;21821,582;   57,971;28344,400;76,94011
 789,67;21574,672;   70,371;28245,334;76,32415
 790,24;21594,162;   51,071;28193,768;76,54949
 790,81;21486,553;   88,271;27914,400;76,89996
 791,37;21407,143;   73,671;27872,135;76,74335
 791,94;21279,232;   70,771;27886,367;76,24665
 792,51;21171,123;   46,271;27539,201;76,83740
 793,08;21057,113;   69,771;27555,234;76,35797
 793,64;20918,303;   71,271;27455,168;76,12880
 794,21;20993,094;   69,671;27250,602;76,97832
 794,78;20902,584;   53,071;27147,035;76,95261
 795,35;20694,873;   73,471;27007,969;76,56130
 795,91;20562,463;   48,071;26789,301;76,71447
 796,48;20475,854;   55,771;26710,734;76,60893
 797,05;20428,943;   57,671;26624,369;76,67973
 797,62;20334,635;   41,971;26600,701;76,40675
 798,18;20272,324;   57,471;26410,736;76,70720
 798,75;20274,414;   56,571;26279,770;77,09907
 799,32;20233,305;   60,771;26209,102;77,14654
 799,88;20197,295;   55,971;26051,535;77,47985
 800,45;20131,285;   33,971;25945,270;77,56197
 801,02;20077,775;   65,271;25880,104;77,52328
 801,58;19963,266;   90,872;25660,436;77,71894
 802,15;19927,055;   72,872;25615,270;77,73030
 802,72;19891,545;   66,172;25404,703;78,24200
 803,28;19848,836;   49,172;25288,938;78,44631
 803,85;19770,426;   41,972;25144,871;78,59034
 804,42;19680,516;   77,772;24948,004;78,82011
 804,98;19669,506;  100,672;24935,537;78,79581
 805,55;19491,797;   56,972;24702,371;78,85782
 806,12;19361,986;   83,572;24611,004;78,59940
 806,68;19249,176;   66,472;24493,738;78,52988
 807,25;19224,367;   74,972;24436,271;78,60580
 807,82;19157,557;   86,872;24407,805;78,41264
 808,38;19082,447;   73,672;24367,037;78,24678
 808,95;19073,637;   62,972;24166,971;78,86934
 809,52;18910,326;   50,272;24162,004;78,21941
 810,08;18884,717;   55,172;23994,938;78,65384
 810,65;18822,908;   77,172;24169,672;77,80735
 811,21;18828,396;   69,972;24123,404;77,98648
 811,78;18956,088;   92,472;24337,539;77,80393
 812,35;18702,078;   64,972;24173,871;77,30385
 812,91;18749,668;   90,072;24239,705;77,26658
 813,48;18777,957;   68,172;24202,738;77,52277
 814,04;18709,748;   64,172;24088,373;77,61164
 814,61;18629,639;   77,572;24176,006;76,98453
 815,18;18424,729;   67,772;23892,539;77,04989
 815,74;18451,018;   69,772;23709,172;77,75682
 816,31;18323,309;   83,372;23614,406;77,51439
 816,87;18253,600;   43,272;23489,641;77,66801
 817,44;18202,988;   76,972;23452,273;77,54345
 818,00;18057,379;   43,272;23159,506;77,92838
 818,57;17962,969;   71,872;23076,340;77,77227
 819,14;17797,859;   82,872;22924,273;77,55648
 819,70;17714,850;   72,672;22792,707;77,65031
 820,27;17668,340;   62,972;22691,941;77,80013
 820,83;17564,129;   70,072;22541,373;77,85066
 821,40;17397,221;   98,072;22431,908;77,45713
 821,96;17315,811;   75,272;22315,541;77,51947
 822,53;17313,600;   70,973;22257,574;77,71640
 823,09;17252,689;   81,073;22073,309;78,08036
 823,66;17019,980;   68,173;21862,541;77,78068
 824,22;16968,371;   77,173;21851,674;77,57330
 824,79;16912,660;   75,473;21561,408;78,36376
 825,35;16900,451;   65,173;21648,041;78,00297
 825,92;16699,141;   75,173;21398,875;77,96005
 826,48;16625,830;   87,673;21501,309;77,23190
 827,05;16419,820;   89,573;21448,242;76,45723
 827,61;16343,911;   75,273;21249,076;76,83380
 828,18;16188,302;   60,873;21191,209;76,32358
 828,74;16088,991;   91,673;21053,543;76,31627
 829,31;16120,082;   83,373;21002,176;76,66170
 829,87;16013,872;   73,073;20733,709;77,15541
 830,44;15864,262;   85,173;20631,443;76,79782
 831,00;15878,652;   91,273;20673,977;76,70217
 831,57;15787,042;  101,573;20631,609;76,40254
 832,13;15667,732;   72,073;20323,344;77,01077
 832,69;15600,723;   58,173;20309,477;76,74839
 833,26;15541,313;   85,473;20322,711;76,37327
 833,82;15389,103;   93,073;20197,744;76,08197
 834,39;15256,693;   78,773;20137,477;75,66750
 834,95;15240,983;   57,173;19959,410;76,29198
 835,52;15158,673;   87,873;19851,744;76,25429
 836,08;15198,863;   95,573;19951,877;76,06295
 836,64;15123,354;   76,273;19800,711;76,28649
 837,21;14996,644;   88,673;19552,443;76,59344
 837,77;14975,834;   91,873;19491,777;76,72183
 838,34;14873,424;   67,473;19470,012;76,30935
 838,90;14819,114;   64,473;19306,045;76,68106
 839,46;14821,204;   83,873;19312,479;76,64274
 840,03;14870,494;   76,173;19300,811;76,95501
 840,59;14738,484;   85,873;19175,645;76,75635
 841,16;14690,074;  105,173;19156,578;76,55551
 841,72;14666,165;   59,373;18965,512;77,25952
 842,28;14758,255;   77,873;18857,246;78,17291
 842,85;14720,045;   95,573;18812,578;78,13468
 843,41;14555,235;  105,374;18740,813;77,53969
 843,97;14445,125;   89,174;18686,846;77,19220
 844,54;14387,315;  104,774;18624,979;77,11870
 845,10;14273,405;   89,174;18523,713;76,94378
 845,67;14239,896;   68,774;18413,445;77,24925
 846,23;14181,086;   78,674;18361,080;77,13652
 846,79;14102,176;   90,474;18265,613;77,09268
 847,36;13910,366;   55,774;18179,047;76,44641
 847,92;13991,156;   84,874;18034,680;77,47316
 848,48;13945,847;   41,874;18039,213;77,25571
 849,04;13827,137;   62,374;17949,447;76,95369
 849,61;13824,427;   56,274;17918,580;77,07937
 850,17;13726,717;   68,174;17819,514;76,94373
 850,73;13624,106;   71,474;17764,848;76,59722
 851,30;13426,396;   46,074;17669,881;75,92186
 851,86;13394,387;   75,874;17597,914;76,01006
 852,42;13392,777;   51,174;17568,348;76,16299
 852,99;13400,567;   79,274;17583,082;76,10512
 853,55;13401,758;   83,174;17542,514;76,28343
 854,11;13310,048;   70,074;17432,049;76,25846
 854,67;13303,438;   85,474;17420,881;76,24836
 855,24;13235,928;   51,874;17213,414;76,82326
 855,80;13212,318;   76,874;17244,848;76,51133
 856,36;13160,408;   80,574;17175,881;76,51126
 856,92;13072,298;   54,474;17027,215;76,69842
 857,49;13028,889;   81,274;17048,248;76,31069
 858,05;12979,379;   67,274;16968,482;76,39752
 858,61;12973,269;   65,774;17003,316;76,20642
 859,17;12913,159;   77,374;16904,250;76,28145
 859,74;12783,149;   82,074;16836,883;75,80555
 860,30;12706,639;   93,074;16663,016;76,12317
 860,86;12669,930;   72,074;16692,350;75,79811
 861,42;12697,720;   74,674;16545,883;76,63703
 861,99;12630,510;   54,674;16506,717;76,43936
 862,55;12481,600;   66,374;16393,051;76,04258
 863,11;12576,790;   75,174;16437,283;76,40589
 863,67;12421,680;   61,274;16290,117;76,16320
 864,23;12395,870;   80,175;16199,351;76,40400
 864,80;12278,160;   69,175;16081,384;76,24798
 865,36;12333,551;   71,875;16120,817;76,40177
 865,92;12283,040;   96,175;16088,751;76,20327
 866,48;12151,631;   67,375;15987,384;75,90609
 867,04;12040,320;   60,675;15891,418;75,67330
 867,60;11996,911;   99,375;15884,451;75,37205
 868,17;11933,701;   93,675;15884,685;74,97954
 868,73;11817,291;   82,775;15672,618;75,27026
 869,29;11726,182;   59,475;15470,151;75,70535
 869,85;11703,672;  100,475;15369,685;75,99082
 870,41;11619,762;   80,575;15293,418;75,85161
 870,97;11609,452;   92,975;15232,252;76,07019
 871,54;11484,042;   84,175;15178,686;75,52326
 872,10;11434,832;   84,275;15055,419;75,81623
 872,66;11264,722;   66,775;14910,652;75,43815
 873,22;11201,813;   81,975;14890,586;75,09035
 873,78;11042,303;   65,275;14742,419;74,78994
 874,34;10973,293;   95,075;14662,652;74,67417
 874,90;11013,692;  109,775;14536,053;75,58372
 875,46;10888,492;   96,375;14412,952;75,38197
 876,03;10809,992;   86,475;14363,353;75,11108
 876,59;10699,492;   64,475;14153,253;75,48573
 877,15;10703,393;  101,475;14166,853;75,37599
 877,71;10633,293;   78,275;14064,652;75,46642
 878,27;10487,593;   95,675;13910,553;75,22265
 878,83;10565,893;  114,275;13971,753;75,42222
 879,39;10467,393;   91,075;14082,753;74,16064
 879,95;10527,893;   86,275;13964,253;75,23875
 880,51;10444,893;   75,175;13927,253;74,86038
 881,07;10471,593;   82,375;13978,753;74,76206
 881,63;10504,293;   92,575;13971,253;75,01952
 882,19;10507,992;   82,675;13921,553;75,33355
 882,75;10589,093;   86,275;14019,553;75,37938
 883,31;10589,293;   95,575;14187,853;74,46432
 883,88;10605,593;   96,375;14174,353;74,65005
 884,44;10537,692;   76,175;14175,753;74,19738
 885,00;10611,692;  106,075;14266,952;74,18762
 885,56;10604,393;  101,675;14299,452;73,97438
 886,12;10710,692;  109,875;14421,152;74,07317
 886,68;10721,393;   90,775;14436,753;74,10173
 887,24;10800,593;  102,475;14574,952;73,92043
 887,80;10769,192;   86,975;14671,753;73,24224
 888,36;10947,793;  106,275;14715,652;74,20931
 888,92;10976,293;   98,975;14773,353;74,12456
 889,48;11165,793;   99,575;14973,853;74,39836
 890,04;11059,593;   95,275;14803,053;74,54775
 890,60;11180,593;  117,475;15014,652;74,26318
 891,16;11173,793;   99,875;15075,853;73,94454
 891,72;11201,192;  113,275;15058,452;74,19061
 892,28;11233,393;  112,475;15126,053;74,07240
 892,84;11130,893;   93,775;15039,853;73,84625
 893,39;11097,293;  117,575;15112,952;73,22069
 893,95;11030,293;  112,975;15044,753;73,11466
 894,51;10959,992;   66,375;14891,253;73,48200
 895,07;10992,793;  127,375;14906,353;73,51942
 895,63;10757,692;   74,275;14689,952;73,09560
 896,19;10740,692;   90,375;14601,952;73,39187
 896,75;10628,093;  105,175;14460,152;73,30501
 897,31;10527,293;   82,775;14295,853;73,48527
 897,87;10485,293;   98,175;14146,853;73,93662
 898,43;10393,692;   87,775;14075,753;73,67696
 898,99;10333,192;  109,175;14002,753;73,58808
 899,55;10155,093;  109,475;13940,652;72,63024
 900,11;10121,593;  104,975;13747,553;73,42174
 900,67; 9958,293;   91,375;13658,652;72,72585
 901,22; 9853,793;  108,375;13601,952;72,22264
 901,78; 9784,692;   91,275;13560,053;71,96954
 902,34; 9734,492;  103,075;13451,152;72,15584
 902,90; 9659,192;   73,575;13350,652;72,19674
 903,46; 9595,093;   95,775;13236,353;72,28996
 904,02; 9477,893;   88,075;13091,553;72,21005
 904,58; 9432,492;   67,075;12918,152;72,87651
 905,14; 9293,192;   63,975;12874,553;72,04372
 905,70; 9159,393;   66,775;12696,053;71,99634
 906,25; 9179,793;   84,375;12708,452;72,04818
 906,81; 9095,393;   87,675;12732,152;71,23835
 907,37; 8969,192;   79,275;12616,152;70,91014
 907,93; 8923,692;   74,775;12588,152;70,71566
 908,49; 8813,192;  101,875;12497,652;70,27649
 909,05; 8801,593;   89,675;12425,553;70,62260
 909,60; 8783,293;   86,575;12340,452;70,97115
 910,16; 8639,492;   67,675;12291,853;70,12183
 910,72; 8587,093;  100,475;12207,753;70,09518
 911,28; 8512,992;   90,875;12156,053;69,80516
 911,84; 8504,492;   79,575;12106,753;70,04899
 912,39; 8488,393;   73,475;12049,353;70,26556
 912,95; 8447,793;  104,475;12001,452;70,12973
 913,51; 8291,593;   85,375;11945,253;69,19310
 914,07; 8216,393;   83,775;11813,452;69,33369
 914,63; 8235,293;   64,775;11748,053;69,93344
 915,18; 8081,692;   77,475;11617,853;69,35837
 915,74; 8043,893;   63,975;11632,652;68,97865
 916,30; 7980,692;   61,475;11588,553;68,70100
 916,86; 7880,792;   83,575;11514,652;68,21070
 917,42; 7876,192;   82,275;11425,152;68,71200
 917,97; 7800,192;   75,375;11265,452;69,03274
 918,53; 7710,792;   67,775;11196,253;68,67981
 919,09; 7670,692;   88,975;11223,753;68,09042
 919,65; 7523,493;   83,375;11083,452;67,63696
 920,20; 7487,192;   61,875;10983,053;67,99008
 920,76; 7377,893;   65,475;10849,452;67,80817
 921,32; 7355,692;   82,675;10770,952;68,04668
 921,87; 7311,893;   97,475;10670,253;68,23578
 922,43; 7148,393;   64,675;10561,353;67,48533
 922,99; 7005,192;   61,875;10406,753;67,11841
 923,55; 6919,993;   63,775;10357,353;66,60675
 924,10; 6864,893;   73,575;10282,853;66,52104
 924,66; 6812,192;   78,675;10170,152;66,72479
 925,22; 6672,692;   43,275;10093,952;65,95991
 925,77; 6631,592;   66,075; 9927,053;66,58079
 926,33; 6550,292;   90,375; 9903,253;65,83102
 926,89; 6399,592;   71,975; 9692,753;65,77033
 927,44; 6320,993;   52,175; 9580,553;65,79103
 928,00; 6263,993;   66,875; 9533,753;65,46105
 928,56; 6187,493;   80,375; 9372,253;65,72533
 929,12; 6058,792;   72,775; 9275,152;65,04860
 929,67; 5919,192;   67,575; 9091,053;64,84880
 930,23; 5804,592;   50,975; 8915,253;64,90791
 930,78; 5788,092;  100,675; 8842,553;65,05945
 931,34; 5601,792;   61,975; 8632,152;64,64064
 931,90; 5483,792;   61,675; 8494,353;64,29888
 932,45; 5370,292;   78,775; 8290,753;64,43658
 933,01; 5209,493;   52,975; 8024,453;64,68710
 933,57; 5004,292;   72,175; 7753,252;64,21127
 934,12; 4793,592;   70,475; 7399,553;64,44354
 934,68; 4530,192;   59,075; 7020,252;64,22933
 935,24; 4234,993;   67,875; 6614,752;63,65046
 935,79; 4052,992;   72,975; 6254,853;64,38202
 936,35; 3761,192;   91,375; 5812,252;64,14781
 936,90; 3463,292;   80,275; 5348,752;64,21243
 937,46; 3191,792;   72,775; 4956,953;63,85962
 938,02; 2908,792;   63,375; 4549,152;63,43198
 938,57; 2732,992;   73,175; 4265,053;63,45169
 939,13; 2510,792;   70,575; 3986,752;62,31121
 939,68; 2358,893;   57,375; 3713,452;62,95046
 940,24; 2230,192;   68,775; 3504,052;62,91828
 940,79; 2167,192;   91,875; 3391,052;62,90408
 941,35; 2064,292;   79,675; 3217,552;63,24713
 941,91; 1987,292;   71,375; 3122,252;62,79890
 942,46; 1920,993;   75,075; 3063,552;61,76783
 943,02; 1895,392;   65,375; 3050,752;61,29937
 943,57; 1853,093;   61,275; 2982,452;61,33888
 944,13; 1855,892;   67,375; 2974,452;61,52287
 944,68; 1866,093;   65,975; 3041,752;60,49234
 945,24; 1880,193;   82,275; 3060,052;60,37783
 945,79; 1900,392;   68,775; 3104,052;60,34432
 946,35; 1935,392;   51,775; 3194,752;59,93099
 946,90; 1978,392;   98,575; 3283,552;59,02137
 947,46; 1967,593;   52,175; 3311,052;58,77538
 948,01; 2015,493;   51,575; 3390,052;58,82674
 948,57; 2078,692;   86,775; 3552,952;57,46727
 949,12; 2103,192;   65,875; 3613,353;57,43003
 949,68; 2184,093;   76,275; 3732,653;57,64770
 950,23; 2223,893;   70,075; 3833,252;57,23402
 950,79; 2237,792;   75,775; 3933,452;56,04454
 951,34; 2293,292;   83,275; 4070,952;55,42117
 951,90; 2331,393;   57,475; 4140,853;55,68717
 952,45; 2384,093;   81,075; 4292,152;54,68951
 953,01; 2421,492;   65,975; 4364,252;54,80143
 953,56; 2493,893;   87,975; 4500,853;54,52038
 954,12; 2469,792;   42,075; 4567,553;53,64555
 954,67; 2556,692;   70,875; 4720,453;53,46329
 955,23; 2583,192;   61,975; 4804,553;53,16133
 955,78; 2626,492;   67,175; 4882,953;53,14443
 956,33; 2593,593;   58,575; 4947,252;51,85487
 956,89; 2668,593;   53,475; 5038,553;52,45891
 957,44; 2708,792;   53,675; 5170,752;51,88738
 958,00; 2711,593;   49,475; 5238,353;51,30430
 958,55; 2763,593;   70,475; 5313,953;51,36129
 959,10; 2729,093;   52,375; 5370,252;50,33432
 959,66; 2740,492;   74,275; 5488,752;49,24238
 960,21; 2769,393;   78,475; 5567,453;49,02402
 960,77; 2761,992;   54,275; 5606,152;48,77120
 961,32; 2742,492;   48,375; 5663,453;47,98006
 961,87; 2775,893;   79,775; 5738,752;47,64319
 962,43; 2743,492;   68,975; 5780,652;46,82543
 962,98; 2761,893;   76,175; 5828,652;46,68802
 963,54; 2702,893;   27,075; 5820,652;46,18593
 964,09; 2698,792;   56,275; 5873,953;45,42221
 964,64; 2708,792;   64,975; 5901,053;45,30127
 965,20; 2681,692;   44,375; 5966,652;44,53215
 965,75; 2680,792;   66,575; 5976,353;44,23546
 966,30; 2677,992;   75,275; 6068,553;43,42728
 966,86; 2652,492;   62,975; 6121,953;42,73852
 967,41; 2647,192;   81,075; 6084,453;42,74456
 967,96; 2638,792;   75,175; 6108,953;42,48777
 968,52; 2627,393;   81,775; 6126,353;42,11407
 969,07; 2577,292;   72,975; 6120,152;41,41300
 969,62; 2569,393;   77,175; 6134,953;41,14079
 970,18; 2538,093;   57,575; 6147,652;40,73048
 970,73; 2552,692;   66,475; 6203,553;40,51142
 971,28; 2556,792;   95,775; 6197,053;40,33610
 971,84; 2488,192;   55,075; 6118,752;40,12610
 972,39; 2479,492;   95,875; 6148,652;39,38056
 972,94; 2436,593;   54,975; 6140,652;39,13480
 973,49; 2390,893;   64,575; 6141,252;38,28272
 974,05; 2388,992;   64,375; 6178,053;38,02322
 974,60; 2379,992;   88,575; 6213,252;37,41287
 975,15; 2360,893;   77,675; 6231,553;37,10210
 975,71; 2301,492;   62,375; 6121,453;36,95476
 976,26; 2282,393;   77,575; 6110,252;36,54791
 976,81; 2271,792;   90,675; 6134,152;36,09044
 977,36; 2218,492;   84,775; 6156,953;35,13925
 977,92; 2206,893;   90,175; 6209,353;34,59154
 978,47; 2180,492;   77,175; 6060,252;35,15444
 979,02; 2146,492;   95,475; 6085,652;34,23968
 979,57; 2125,692;   86,775; 6058,453;34,14313
 980,13; 2062,692;   76,175; 6038,752;33,31642
 980,68; 2049,992;   77,075; 6010,553;33,25061
 981,23; 2000,993;   89,175; 6054,652;32,04802
 981,78; 1977,892;   82,075; 5974,152;32,17571
 982,33; 1922,193;   79,275; 5893,252;31,69805
 982,89; 1908,892;   94,375; 5938,152;31,05042
 983,44; 1902,892;   65,675; 5935,853;31,29748
 983,99; 1885,392;  104,775; 5949,453;30,46562
 984,54; 1812,693;   81,475; 5900,053;29,75328
 985,09; 1812,292;   87,275; 5873,752;29,81118
 985,65; 1772,792;   69,375; 5811,853;29,66346
 986,20; 1757,593;  106,575; 5791,152;29,04380
 986,75; 1748,093;   95,875; 5823,953;28,84419
 987,30; 1717,693;   97,175; 5726,053;28,78935
 987,85; 1659,792;   92,475; 5721,353;27,84423
 988,40; 1676,892;   96,675; 5693,953;28,23189
 988,96; 1627,593;  114,875; 5666,553;27,24793
 989,51; 1625,693;  108,875; 5644,053;27,40323
 990,06; 1620,792;  128,275; 5680,853;26,87972
 990,61; 1544,792;   93,575; 5569,053;26,50394
 991,16; 1544,493;  104,375; 5558,053;26,40636
 991,71; 1496,892;   79,875; 5505,853;26,11543
 992,26; 1469,292;   93,475; 5457,252;25,65016
 992,81; 1455,993;   75,075; 5427,053;25,80200
 993,37; 1457,193;  113,475; 5390,553;25,46329
 993,92; 1416,693;  108,375; 5368,953;24,87023
 994,47; 1417,892;  117,475; 5329,652;24,94960
 995,02; 1390,593;  118,475; 5313,252;24,48839
 995,57; 1341,892;   90,875; 5274,652;24,13332
 996,12; 1352,892;  133,575; 5247,553;23,84284
 996,67; 1328,892;  132,375; 5191,652;23,64997
 997,22; 1289,493;   99,875; 5128,652;23,65620
 997,77; 1286,693;  115,275; 5110,553;23,45050
 998,32; 1252,593;  103,775; 5015,652;23,38856
 998,87; 1232,093;  114,275; 5018,752;22,79178
 999,42; 1211,792;  101,675; 4972,553;22,79091
 999,97; 1166,292;  109,975; 4956,353;21,79602
1000,53; 1175,892;  123,475; 4993,752;21,60898
1001,08; 1108,792;   98,375; 4879,053;21,13544
1001,63; 1123,593;  144,475; 4878,053;20,68451
1002,18; 1056,392;   85,075; 4777,453;20,69990
1002,73; 1072,493;  131,375; 4813,853;20,09871
1003,28; 1037,493;  103,575; 4811,953;19,83523
1003,83; 1041,593;  119,075; 4691,752;20,17456
1004,38; 1042,392;  137,775; 4703,152;19,81474
1004,93; 1007,992;  114,375; 4680,953;19,56865
1005,48;  974,792;  104,075; 4573,053;19,48359
1006,03;  955,893;  112,775; 4525,652;19,10585
1006,58;  930,193;  111,475; 4486,553;18,71321
1007,13;  917,893;   94,475; 4466,252;18,83485
1007,68;  926,292;  104,975; 4462,453;18,84846
1008,23;  912,292;  114,575; 4425,853;18,50304
1008,78;  882,792;  107,375; 4384,152;18,13088
1009,33;  881,693;  121,875; 4307,752;18,15193
1009,88;  849,893;   84,775; 4329,553;18,02491
1010,43;  859,593;  118,875; 4320,752;17,62825
1010,98;  832,492;  100,675; 4310,053;17,38541
1011,52;  811,792;   97,075; 4264,953;17,14824
1012,07;  866,992;  144,475; 4319,252;17,30673
1012,62;  799,093;  103,875; 4259,152;16,73095
1013,17;  793,093;   97,175; 4172,053;17,07824
1013,72;  777,193;   94,575; 4143,453;16,85943
1014,27;  776,992;  100,275; 4105,853;16,89438
1014,82;  736,792;   86,875; 4042,952;16,42833
1015,37;  715,792;   84,375; 3964,853;16,27164
1015,92;  747,893;  109,475; 3894,252;16,86803
1016,47;  689,393;   90,275; 3819,452;16,06567
1017,02;  659,593;   81,075; 3732,153;15,84512
1017,57;  669,693;   96,475; 3718,853;15,82434
1018,11;  639,193;   77,275; 3656,252;15,70050
1018,66;  643,492;  120,175; 3636,552;14,88229
1019,21;  624,193;  109,675; 3579,552;14,82812
1019,76;  583,093;   77,675; 3497,353;14,77968
1020,31;  583,992;   71,975; 3446,452;15,17324
1020,86;  593,792;   96,175; 3448,052;14,84593
1021,41;  545,893;   80,175; 3387,052;14,08330
1021,96;  568,893;   83,675; 3385,853;14,69387
1022,50;  576,893;  105,975; 3332,952;14,59315
1023,05;  547,492;   94,675; 3288,052;14,17989
1023,60;  542,193;   97,975; 3251,353;14,08704
1024,15;  508,492;   81,075; 3184,853;13,77088
1024,70;  535,093;   95,075; 3176,252;14,28082
1025,25;  501,193;   81,175; 3127,452;13,78789
1025,79;  531,693;  101,175; 3110,752;14,30492
1026,34;  508,992;   83,475; 3044,653;14,36987
1026,89;  498,992;  102,175; 3039,052;13,51154
1027,44;  490,693;   95,875; 2952,952;13,81893
1027,99;  481,392;   93,475; 2944,552;13,60600
1028,53;  461,092;   89,675; 2900,052;13,21593
1029,08;  478,092;  114,775; 2876,653;13,15473
1029,63;  479,092;  114,875; 2854,952;13,29223
1030,18;  464,892;   92,075; 2788,552;13,82609
1030,73;  435,592;   91,175; 2739,552;13,00485
1031,27;  432,992;   85,875; 2715,252;13,20151
1031,82;  443,193;   81,875; 2686,452;13,87240
1032,37;  436,592;   98,875; 2688,853;13,03940
1032,92;  434,693;  100,575; 2675,452;12,97606
1033,46;  428,492;   99,775; 2599,252;13,15145
1034,01;  408,992;   78,375; 2582,952;13,20053
1034,56;  408,793;   98,875; 2559,252;12,59634
1035,11;  399,092;   92,375; 2523,552;12,61601
1035,65;  408,992;   87,575; 2478,052;13,44574
1036,20;  384,693;   99,375; 2454,452;12,11499
1036,75;  396,092;  118,675; 2446,353;11,91821
1037,29;  380,492;   90,275; 2398,252;12,57454
1037,84;  343,092;   78,375; 2347,252;11,66733
1038,39;  361,193;   91,075; 2329,952;12,06486
1038,94;  336,092;   73,075; 2277,153;11,93322
1039,48;  355,092;   83,575; 2278,552;12,36994
1040,03;  358,693;  102,875; 2245,252;11,94082
1040,58;  337,392;  101,175; 2194,552;11,28404
1041,12;  342,092;   91,375; 2191,653;11,93735
1041,67;  341,392;  101,075; 2166,752;11,63383
1042,22;  351,892;  118,475; 2145,252;11,51668
1042,76;  318,193;   99,275; 2118,452;10,84192
1043,31;  338,793;   90,675; 2060,653;12,59494
1043,86;  333,793;   98,875; 2044,252;12,07568
1044,40;  326,293;   92,975; 2018,052;12,11990
1044,95;  319,392;   94,175; 1988,552;11,88873
1045,50;  294,392;   75,375; 1934,353;11,78161
1046,04;  320,693;  114,375; 1930,453;11,36061
1046,59;  295,793;   96,175; 1878,353;11,20076
1047,13;  321,092;  121,075; 1879,453;11,37512
1047,68;  317,892;  115,675; 1860,052;11,59253
1048,23;  309,793;  118,775; 1866,752;10,92792
1048,77;  290,092;   90,175; 1784,953;11,79609
1049,32;  297,392;  104,175; 1785,953;11,48888
1049,86;  291,492;   92,675; 1760,552;11,92039
1050,41;  271,392;   82,475; 1735,552;11,42823
1050,96;  288,293;  100,875; 1698,652;11,72989
1051,50;  282,492;  101,675; 1663,252;11,57916
1052,05;  282,992;   94,675; 1664,052;11,99950
1052,59;  270,193;   82,975; 1624,152;12,14769
1053,14;  248,092;   84,475; 1582,652;10,92110
1053,69;  263,392;   98,475; 1571,453;11,19620
1054,23;  277,592;  104,575; 1569,052;11,81428
1054,78;  272,793;  100,775; 1550,152;11,86837
1055,32;  280,892;  123,075; 1550,453;11,05646
1055,87;  240,393;   68,875; 1491,752;12,05427
1056,41;  246,592;   78,775; 1469,552;12,06645
1056,96;  249,292;   96,775; 1451,052;11,26191
1057,50;  268,892;  113,375; 1470,853;11,45636
1058,05;  213,292;   82,075; 1401,953; 9,94164
1058,59;  240,893;   95,875; 1396,552;11,14938
1059,14;  254,393;  103,575; 1370,453;11,90466
1059,68;  215,693;   75,975; 1329,353;11,14728
1060,23;  268,492;  126,875; 1383,752;11,26741
1060,77;  242,893;   97,375; 1317,052;11,93082
1061,32;  248,792;  108,575; 1320,652;11,56836
1061,86;  234,592;  111,175; 1289,752;10,47173
1062,41;  245,193;   93,975; 1242,953;13,16105
1062,95;  231,393;  109,575; 1230,853;10,86417
1063,50;  239,693;  111,075; 1230,052;11,49420
1064,04;  210,693;   90,475; 1197,453;10,85998
1064,59;  220,792;  114,775; 1210,052; 9,67951
1065,13;  225,092;  103,475; 1170,552;11,39725
1065,68;  224,092;  107,275; 1161,353;11,08244
1066,22;  251,693;  115,875; 1166,453;12,92789
1066,76;  239,193;  130,175; 1145,252;10,73982
1067,31;  214,992;   99,875; 1110,552;11,39013
1067,85;  221,492;  100,975; 1090,252;12,18238
1068,40;  215,693;  110,275; 1095,353;10,70144
1068,94;  208,292;   99,175; 1079,353;11,13242
1069,49;  202,592;   98,175; 1041,652;11,06730
1070,03;  222,792;  111,175; 1034,353;12,09058
1070,57;  200,893;   88,775; 1012,852;12,13291
1071,12;  194,792;   75,875;  987,153;13,04954
1071,66;  241,693;  131,775; 1039,953;12,10309
1072,21;  218,292;  112,475; 1011,352;11,77218
1072,75;  209,592;  104,475;  978,552;12,02611
1073,29;  188,193;   77,075;  942,453;12,84035
1073,84;  195,592;   95,975;  941,153;11,78658
1074,38;  192,792;   93,875;  928,253;11,85524
1074,92;  208,492;  107,275;  940,153;12,15275
1075,47;  206,792;  112,775;  938,852;11,38120
1076,01;  214,992;  121,775;  926,253;11,58733
1076,56;  192,292;   97,275;  891,953;11,95674
1077,10;  163,492;   86,075;  865,253; 9,93580
1077,64;  199,492;   97,875;  884,453;12,91894
1078,19;  212,992;  123,175;  887,753;11,74734
1078,73;  197,193;   98,775;  853,852;13,03409
1079,27;  204,792;  121,075;  875,552;11,09609
1079,81;  214,693;  121,375;  860,953;12,61768
1080,36;  192,992;  105,975;  836,052;11,91894
1080,90;  184,393;   96,375;  819,753;12,16758
1081,44;  179,193;   82,475;  789,552;13,67849
1081,99;  155,592;   70,375;  771,753;12,15002
1082,53;  190,893;  113,075;  798,653;11,35065
1083,07;  188,492;  104,175;  791,453;12,26833
1083,62;  188,992;  101,275;  772,552;13,06725
1084,16;  191,693;   98,975;  782,453;13,56555
1084,70;  194,693;  107,475;  767,153;13,22123
1085,24;  188,792;  108,775;  750,653;12,46616
1085,79;  172,592;  109,175;  747,552; 9,93417
1086,33;  165,092;   99,075;  711,453;10,78052
1086,87;  179,792;  102,075;  714,852;12,68283
1087,41;  172,693;   84,475;  686,852;14,64489
1087,96;  202,492;  124,575;  732,552;12,81585
1088,50;  168,893;  112,075;  696,953; 9,71443
1089,04;  188,992;  121,775;  715,153;11,32795
1089,58;  157,792;   82,375;  655,953;13,14861
1090,13;  159,592;  102,975;  653,153;10,29077
1090,67;  178,592;  101,775;  678,753;13,31378
1091,21;  153,792;   92,075;  651,852;11,02536
1091,75;  171,193;  106,875;  647,153;11,90453
1092,29;  181,292;  105,875;  642,552;14,05267
1092,84;  170,292;  105,975;  628,352;12,31246
1093,38;  200,992;  128,175;  662,753;13,62150
1093,92;  186,893;  113,475;  640,052;13,94239
1094,46;  187,992;  128,175;  638,852;11,71336
1095,00;  171,592;   93,975;  602,052;15,27671
1095,54;  163,292;   89,975;  591,352;14,62321
1096,09;  179,492;  114,975;  597,352;13,37490
1096,63;  182,893;  117,175;  598,453;13,65480
1097,17;  160,492;  102,575;  573,052;12,31036
1097,71;  192,193;  122,875;  582,453;15,08288
1098,25;  152,893;  103,275;  553,653;11,01687
1098,79;  176,292;  104,775;  568,753;15,41400
1099,33;  175,393;  111,975;  572,052;13,78409
1099,88;  171,492;  110,775;  562,253;13,44862
1100,42;  143,193;   83,275;  521,253;13,68050

