0159 elitro
Integration time [ms]:   8,000
Averaging Nr. [scans]: 10
Smoothing Nr. [pixels]: 0
Data measured with spectrometer [name]: 7314920SP
Wave   ;Sample   ;Dark     ;Reference;Reflectance
[nm]   ;[counts] ;[counts] ;[counts] ;[%]

 199,42;  117,184;   63,873;  150,055;61,85862
 200,02;  111,397;   92,669;  145,732;35,29372
 200,62;   74,638;   67,563;   88,793;33,32776
 201,22;  115,098;   86,969;  138,011;55,11096
 201,82;   99,289;   66,174;  141,790;43,79375
 202,42;  128,229;  101,668;  154,973;49,82905
 203,03;   74,893;   60,168;   91,775;46,58808
 203,63;   88,824;   69,967;  109,037;48,26398
 204,23;   91,808;   70,671;  129,903;35,68442
 204,83;   91,589;   74,567;  123,718;34,63278
 205,43;  103,584;   56,673;  123,555;70,13998
 206,03;   63,222;   50,167;   90,459;32,40182
 206,63;   77,346;   68,865;  100,007;27,23349
 207,24;  118,027;   74,675;  162,566;49,32503
 207,84;   69,655;   39,967;   83,699;67,88577
 208,44;   72,098;   50,669;   95,011;48,32824
 209,04;   59,813;   47,365;   85,066;33,01786
 209,64;  100,580;   69,972;  127,998;52,74913
 210,24;   69,989;   45,367;   97,218;47,48670
 210,84;   83,166;   51,469;  101,970;62,76445
 211,44;  105,935;   86,470;  122,908;53,41950
 212,05;   73,813;   60,865;   99,266;33,71802
 212,65;   87,193;   66,368;  112,975;44,68234
 213,25;  115,729;   93,768;  142,073;45,46390
 213,85;   99,682;   84,465;  114,904;49,99116
 214,45;   73,089;   53,367;  100,418;41,91695
 215,05;   58,566;   39,369;  100,070;31,62495
 215,65;   79,533;   55,169;  105,630;48,28307
 216,25;   55,489;   40,267;   82,518;36,02838
 216,85;   51,331;   34,069;   89,651;31,05736
 217,45;   70,793;   49,068;   97,375;44,97298
 218,05;   92,537;   58,270;  112,886;62,74046
 218,66;   46,364;   28,769;   75,692;37,49820
 219,26;   53,724;   26,567;   79,337;51,46246
 219,86;   62,873;   36,771;   81,584;58,24686
 220,46;   76,869;   54,270;  104,127;45,32851
 221,06;   77,608;   51,871;  115,903;40,19333
 221,66;   81,309;   43,471;  103,481;63,05279
 222,26;   67,280;   39,772;  102,398;43,92452
 222,86;   99,795;   67,268;  118,954;62,93198
 223,46;   63,189;   51,767;   88,918;30,74578
 224,06;   91,040;   64,971;  120,343;47,08003
 224,66;   81,271;   57,570;  105,805;49,13611
 225,26;   76,668;   48,169;  113,748;43,45606
 225,86;   76,282;   42,173;  112,376;48,58636
 226,46;   73,362;   49,968;  102,913;44,18530
 227,06;   44,371;   27,670;   87,705;27,81851
 227,66;   50,915;   37,665;   74,845;35,63689
 228,27;   57,269;   29,270;   96,227;41,81704
 228,87;  115,604;   89,170;  143,046;49,06423
 229,47;   68,848;   29,172;   92,357;62,79208
 230,07;   28,068;   11,169;   59,648;34,85644
 230,67;   65,831;   38,169;   84,651;59,51172
 231,27;   63,069;   27,670;   76,327;72,75295
 231,87;   71,131;   43,169;  100,751;48,56076
 232,47;   97,193;   43,775;  132,047;60,51505
 233,07;   57,078;   42,965;   75,547;43,31719
 233,67;   72,993;   53,768;   94,275;47,46115
 234,27;   29,622;    0,567;   53,259;55,14189
 234,87;   69,473;   34,771;  106,084;48,66180
 235,47;   49,368;   16,169;   74,148;57,25874
 236,07;   43,551;   30,266;   72,042;31,80107
 236,67;   59,720;   49,966;   85,180;27,69906
 237,27;   64,618;   28,873;  109,074;44,56969
 237,87;   63,171;   25,370;   99,805;50,78364
 238,47;   43,297;   14,269;   68,032;53,99218
 239,07;   58,013;   33,272;   95,738;39,60675
 239,67;   82,567;   43,477;  131,421;44,44965
 240,27;   77,482;   46,773;  119,176;42,41416
 240,87;   80,186;   50,773;  119,533;42,77532
 241,47;   52,308;   39,164;   76,131;35,55572
 242,07;   51,128;   39,968;   92,894;21,08515
 242,67;   35,751;  -11,027;   77,914;52,59432
 243,27;   31,889;    7,767;   46,418;62,41052
 243,87;   75,140;   48,671;  108,343;44,35779
 244,47;   67,608;   22,371;   99,703;58,49662
 245,07;   32,366;    2,669;   55,770;55,92488
 245,67;   51,093;   31,068;   85,575;36,73864
 246,27;   54,646;   34,965;   69,007;57,81387
 246,87;   42,095;   26,668;   63,154;42,28174
 247,46;   15,338;   19,663;   23,793;-104,71335
 248,06;   38,137;   20,470;   69,786;35,82296
 248,66;   63,280;   31,072;  105,898;43,04408
 249,26;   46,351;   32,366;   70,742;36,44256
 249,86;   65,582;   42,873;  102,176;38,29342
 250,46;   46,960;   16,775;   93,507;39,33852
 251,06;   30,093;   22,168;   65,375;18,34241
 251,66;   35,006;   20,771;   64,724;32,38660
 252,26;   39,686;   38,866;   70,261; 2,61067
 252,86;   48,666;   35,969;   89,070;23,91040
 253,46;   10,589;   -8,033;   22,118;61,76343
 254,06;   50,984;   31,766;   79,483;40,27536
 254,66;   55,384;   34,973;  100,155;31,31369
 255,26;   68,049;   39,073;  118,836;36,32828
 255,86;   38,508;   37,464;   55,631; 5,74659
 256,46;   37,935;   19,870;   70,208;35,88753
 257,05;   53,638;   23,570;   59,565;83,53500
 257,65;   63,773;   38,071;   97,684;43,11509
 258,25;   65,648;   37,372;  101,457;44,12132
 258,85;   39,666;   15,669;   51,770;66,47095
 259,45;   31,031;    6,869;   42,951;66,96473
 260,05;   59,289;   46,667;   85,818;32,24021
 260,65;   54,486;   45,066;   83,561;24,46965
 261,25;   50,640;   29,371;   85,943;37,59672
 261,85;   18,742;   -0,129;   47,622;39,51957
 262,45;   57,366;   46,169;  109,270;17,74402
 263,04;   89,017;   53,073;  116,295;56,85279
 263,64;   46,691;   33,767;   77,097;29,82705
 264,24;   68,175;   37,671;   89,062;59,35579
 264,84;   94,355;   58,974;  138,671;44,39399
 265,44;   40,126;   26,368;   67,716;33,27398
 266,04;   58,049;   48,865;   71,464;40,63986
 266,64;   57,420;   39,866;   86,780;37,41733
 267,24;   49,520;   40,166;   68,980;32,46323
 267,84;   53,929;   24,668;   76,573;56,37497
 268,43;   63,860;   48,368;   95,935;32,56983
 269,03;   74,164;   46,969;   87,892;66,45484
 269,63;   67,718;   58,566;   92,402;27,04974
 270,23;   20,615;   10,765;   39,045;34,82953
 270,83;   65,386;   55,266;   83,161;36,27741
 271,43;   45,858;   23,967;   58,856;62,74528
 272,03;   74,926;   64,168;   99,116;30,78323
 272,62;   45,033;   23,269;   68,730;47,87425
 273,22;   39,504;   11,970;   61,046;56,10452
 273,82;   19,493;   17,460;   26,403;22,72998
 274,42;   28,675;   25,164;   46,890;16,16048
 275,02;   38,711;   34,864;   60,388;15,07174
 275,62;   73,648;   31,972;  100,457;60,85299
 276,21;   43,002;   22,770;   69,267;43,51252
 276,81;   47,455;   46,767;   71,099; 2,82818
 277,41;   50,177;   22,971;   96,341;37,07968
 278,01;   25,011;   21,364;   42,788;17,02259
 278,61;   72,198;   38,869;   83,811;74,16183
 279,20;   80,682;   65,473;  119,076;28,37379
 279,80;    1,699;    6,762;   11,539;-105,98868
 280,40;   54,351;   36,866;   79,742;40,78081
 281,00;   14,098;   -4,331;   33,311;48,96049
 281,60;   35,888;   20,774;   74,812;27,96859
 282,20;   61,935;   36,670;   70,108;75,55748
 282,79;   43,960;   29,568;   70,135;35,47834
 283,39;   23,318;   17,466;   44,702;21,48823
 283,99;   20,978;   23,165;   34,347;-19,54820
 284,59;   40,100;   16,869;   45,289;81,74241
 285,19;   41,322;   27,067;   57,759;46,44650
 285,78;   37,135;   23,270;   63,808;34,20265
 286,38;   38,846;   39,665;   59,207;-4,19043
 286,98;   40,560;   35,168;   73,535;14,05490
 287,58;   26,708;    4,771;   61,403;38,73534
 288,17;   49,149;    8,973;   80,336;56,29883
 288,77;   57,897;   19,976;   92,504;52,28408
 289,37;   44,666;   11,269;   57,670;71,97406
 289,97;   52,278;   48,965;   66,647;18,74113
 290,57;   66,511;   46,672;   93,260;42,58472
 291,16;   79,326;   63,868;  102,616;39,89399
 291,76;   22,904;    5,570;   47,346;41,49232
 292,36;   33,724;   34,367;   58,137;-2,70627
 292,96;   23,215;   -3,127;   60,117;41,65160
 293,55;   39,255;   24,267;   65,399;36,43872
 294,15;   42,202;   26,870;   62,567;42,95044
 294,75;   42,146;   42,065;   66,207; 0,33594
 295,35;   26,726;   21,068;   52,016;18,28270
 295,94;   38,488;   42,967;   66,740;-18,84041
 296,54;   33,562;   30,768;   70,613; 7,01176
 297,14;   57,709;   29,971;   76,881;59,13021
 297,73;   21,148;   12,165;   40,085;32,17204
 298,33;   49,084;   28,066;   57,583;71,20703
 298,93;   41,895;   41,968;   82,554;-0,18063
 299,53;   51,146;   24,872;   69,079;59,43357
 300,12;   25,209;  -12,229;   59,481;52,20748
 300,72;   68,191;   41,567;   91,197;53,64542
 301,32;   60,173;   25,771;   99,584;46,60723
 301,92;   26,442;    3,664;   33,050;77,51393
 302,51;   27,457;   11,567;   49,978;41,36769
 303,11;   35,522;   14,667;   48,759;61,17381
 303,71;   43,597;   21,369;   82,132;36,58132
 304,30;   18,417;    5,466;   38,423;39,29605
 304,90;   26,684;   19,666;   44,283;28,50955
 305,50;   36,515;   18,565;   64,345;39,20884
 306,09;   34,351;   15,466;   49,042;56,24589
 306,69;   61,275;   34,171;   90,262;48,32070
 307,29;   12,326;   18,760;   33,144;-44,73516
 307,88;   62,000;   43,269;   72,489;64,10382
 308,48;   20,769;    0,070;   49,727;41,68483
 309,08;    4,304;   -4,437;   11,774;53,92063
 309,68;   31,948;   22,365;   39,585;55,64678
 310,27;   34,933;   20,169;   49,830;49,77624
 310,87;   44,162;   23,468;   54,813;66,01993
 311,47;   68,089;   54,967;   92,918;34,57711
 312,06;   60,680;   47,865;   68,426;62,32888
 312,66;   71,126;   51,168;  100,016;40,85760
 313,26;   71,606;   48,571;   96,224;48,33848
 313,85;   62,922;   38,267;   65,959;89,03440
 314,45;   54,598;   42,969;   86,611;26,64776
 315,04;   69,680;   52,165;   81,826;59,05209
 315,64;   46,691;   21,267;   47,897;95,47320
 316,24;   66,469;   40,770;   85,627;57,29189
 316,83;   66,551;   40,366;   76,742;71,98444
 317,43;   49,458;   35,167;   68,156;43,32091
 318,03;   50,373;   39,063;   70,012;36,54355
 318,62;   88,264;   73,061;   94,820;69,87074
 319,22;   42,029;    7,668;   66,973;57,94021
 319,82;   59,726;   40,768;   93,516;35,94093
 320,41;   82,997;   59,069;   98,732;60,32771
 321,01;   97,715;   80,465;  115,945;48,61850
 321,60;   77,775;   81,164;  102,790;-15,66982
 322,20;   92,684;   67,673;  132,855;38,37090
 322,80;   74,391;   54,567;   91,797;53,24799
 323,39;   59,644;   65,764;   94,828;-21,05797
 323,99;   74,186;   61,766;  102,661;30,36947
 324,59;   67,673;   73,063;   97,512;-22,04740
 325,18;   76,457;   40,967;   92,178;69,30123
 325,78;   94,248;   76,365;  108,885;54,98887
 326,37;   78,993;   74,868;  108,075;12,42276
 326,97;   81,191;   63,267;  111,497;37,16382
 327,57;   51,538;   42,263;   76,493;27,09750
 328,16;   75,508;   60,864;   93,631;44,69086
 328,76;   76,788;   50,467;  110,140;44,10866
 329,35;   95,973;   56,871;  137,484;48,50606
 329,95;   73,635;   27,470;   91,308;72,31575
 330,54;   70,389;   52,167;   94,018;43,54098
 331,14;   51,955;   26,967;   82,599;44,91647
 331,74;   76,615;   54,165;   96,145;53,47752
 332,33;   71,069;   35,370;  108,127;49,06666
 332,93;   58,942;   43,764;   79,250;42,77253
 333,52;   76,718;   42,466;   93,102;67,64486
 334,12;  104,264;   72,069;  140,392;47,12219
 334,71;   53,751;   50,666;   87,942; 8,27692
 335,31;   84,622;   63,267;  119,859;37,73563
 335,90;   44,335;   32,362;   53,836;55,75466
 336,50;   52,346;   30,665;   77,207;46,58376
 337,10;   72,033;   38,769;  121,530;40,19292
 337,69;   62,646;   51,765;   93,707;25,94310
 338,29;   61,424;   30,467;  101,037;43,86671
 338,88;   56,295;   22,468;   99,854;43,71194
 339,48;   76,168;   57,862;  111,677;34,01595
 340,07;   67,553;   48,566;  107,321;32,31543
 340,67;   71,073;   31,171;  124,784;42,62464
 341,26;   68,351;   48,466;   98,942;39,39532
 341,86;   95,568;   61,469;  138,348;44,35288
 342,45;   86,500;   45,669;  142,689;42,08520
 343,05;   78,400;   27,269;  115,689;57,82754
 343,64;   70,620;   47,366;  122,480;30,95821
 344,24;   51,346;   28,765;   92,107;35,64939
 344,83;   78,878;   71,365;  121,747;14,91374
 345,43;   59,488;   29,667;  114,240;35,26063
 346,02;   71,631;   41,469;  124,351;36,39184
 346,62;   87,006;   40,971;  140,424;46,28795
 347,21;   73,548;   42,165;  131,985;34,93924
 347,81;   71,111;   26,172;  140,560;39,28679
 348,40;   56,308;   29,064;  100,731;38,01453
 349,00;   73,973;   49,163;  137,712;28,01819
 349,59;  105,304;   65,870;  177,846;35,21631
 350,19;   65,906;   32,571;  139,424;31,19696
 350,78;   73,922;   55,467;  140,759;21,63782
 351,38;   64,631;   15,869;  140,951;38,98425
 351,97;   57,688;   26,767;  136,040;28,29700
 352,57;   74,769;   42,570;  155,827;28,43042
 353,16;   52,344;   30,564;  134,328;20,98962
 353,76;   91,604;   38,770;  169,846;40,30778
 354,35;   57,468;   27,669;  160,148;22,49266
 354,95;   83,302;   43,970;  182,067;28,48152
 355,54;   82,129;   38,368;  163,973;34,84037
 356,14;   73,068;   40,069;  164,749;26,46641
 356,73;   63,668;   29,162;  145,176;29,74242
 357,32;   63,897;   13,769;  164,432;33,27156
 357,92;   73,078;   17,772;  181,419;33,79616
 358,51;   94,646;   43,372;  214,179;30,01852
 359,11;   89,111;   36,772;  212,360;29,80806
 359,70;   68,738;   28,470;  189,965;24,93461
 360,30;   92,599;   54,562;  188,039;28,49700
 360,89;   68,495;   31,168;  188,054;23,79232
 361,48;  108,702;   55,570;  216,467;33,02243
 362,08;   62,858;   19,867;  187,156;25,69869
 362,67;   65,138;   39,763;  192,693;16,59286
 363,27;  102,657;   60,767;  247,678;22,41156
 363,86;   71,615;   35,765;  215,745;19,91873
 364,46;  107,008;   44,664;  257,231;29,32906
 365,05;  117,786;   64,659;  254,989;27,91305
 365,64;  125,157;   50,960;  269,706;33,91925
 366,24;  129,382;   38,558;  309,432;33,53001
 366,83;  165,669;   43,255;  335,383;41,90436
 367,43;  165,822;   51,545;  352,843;37,92841
 368,02;  178,730;   34,646;  399,757;39,46293
 368,61;  233,362;   62,239;  475,425;41,41558
 369,21;  189,808;   32,419;  445,299;38,11972
 369,80;  251,017;   43,007;  526,947;42,98263
 370,39;  289,979;   62,006;  604,971;41,98668
 370,99;  274,935;   42,089;  615,416;40,61323
 371,58;  275,801;   22,974;  630,953;41,58485
 372,18;  308,099;   37,166;  701,603;40,77639
 372,77;  312,625;   42,449;  679,385;42,41799
 373,36;  352,412;   42,747;  690,836;47,78129
 373,96;  292,228;   35,135;  639,498;42,53953
 374,55;  312,034;   29,844;  621,406;47,70254
 375,14;  281,457;   42,849;  573,826;44,93763
 375,74;  294,859;   69,157;  543,276;47,60453
 376,33;  229,192;   45,964;  464,589;43,76900
 376,92;  212,186;   33,278;  447,997;43,13967
 377,52;  302,735;   86,103;  548,460;46,85386
 378,11;  234,632;   46,703;  457,203;45,78048
 378,71;  255,604;   73,011;  514,270;41,38005
 379,30;  276,397;   59,517;  553,928;43,86633
 379,89;  277,146;   59,813;  556,103;43,79156
 380,49;  288,801;   31,018;  568,185;47,98931
 381,08;  310,413;   70,306;  570,990;47,95586
 381,67;  300,723;   55,008;  555,483;49,09630
 382,26;  286,913;   41,706;  539,390;49,26969
 382,86;  288,601;   54,003;  516,041;50,77454
 383,45;  311,010;   50,412;  562,105;50,92846
 384,04;  314,375;   38,712;  553,886;53,50871
 384,64;  308,450;   49,014;  566,760;50,10872
 385,23;  321,248;   64,406;  560,509;51,77185
 385,82;  339,657;   59,615;  592,774;52,52503
 386,42;  374,895;   61,024;  659,022;52,48702
 387,01;  354,915;   55,414;  580,541;57,03411
 387,60;  358,126;   69,009;  590,140;55,47885
 388,20;  342,210;   37,712;  590,805;55,05356
 388,79;  406,002;   72,418;  665,563;56,23989
 389,38;  354,213;   32,106;  564,890;60,45739
 389,97;  392,722;   45,415;  640,955;58,31809
 390,57;  418,852;   71,114;  654,038;59,65397
 391,16;  408,652;   62,514;  655,838;58,33866
 391,75;  420,713;   52,713;  638,562;62,81484
 392,34;  452,881;   60,821;  696,694;61,65694
 392,94;  448,737;   44,718;  689,683;62,64202
 393,53;  457,426;   41,016;  666,612;66,56218
 394,12;  477,424;   53,023;  719,105;63,71604
 394,72;  495,381;   54,213;  706,122;67,67319
 395,31;  500,557;   42,115;  694,874;70,23145
 395,90;  518,962;   42,924;  732,881;68,99536
 396,49;  568,579;   58,028;  779,187;70,79584
 397,09;  540,964;   47,417;  749,188;70,32886
 397,68;  590,232;   44,025;  800,719;72,18328
 398,27;  607,373;   54,626;  809,652;73,20903
 398,86;  616,101;   43,125;  807,657;74,94461
 399,45;  658,791;   56,630;  844,037;76,47399
 400,05;  621,442;   23,820;  799,518;77,04320
 400,64;  657,372;   56,419;  831,001;77,58407
 401,23;  660,912;   53,920;  859,956;75,30577
 401,82;  724,812;   67,220;  868,256;82,09263
 402,42;  721,648;   62,921;  873,953;81,22079
 403,01;  760,732;   81,525;  912,919;81,69490
 403,60;  776,730;   68,532;  940,513;81,21714
 404,19;  800,697;   76,024;  931,900;84,67030
 404,78;  771,486;   57,522;  909,929;83,75857
 405,38;  840,266;   68,332;  984,210;84,28348
 405,97;  831,839;   63,226;  953,933;86,29244
 406,56;  858,281;   71,528; 1004,366;84,33969
 407,15;  869,519;   68,829;  989,442;86,97357
 407,74;  902,390;   80,730; 1026,758;86,85360
 408,34;  896,201;   50,933; 1018,629;87,34846
 408,93;  922,928;   59,531; 1016,234;90,24709
 409,52;  934,679;   51,435; 1041,359;89,22335
 410,11;  973,462;   84,931; 1090,453;88,36518
 410,70;  976,775;   54,727; 1027,230;94,81182
 411,29;  990,046;   58,628; 1030,847;95,80332
 411,89; 1036,781;   60,535; 1093,938;94,46902
 412,48; 1014,313;   48,228; 1051,606;96,28325
 413,07; 1071,171;   65,033; 1101,446;97,07894
 413,66; 1083,446;   78,135; 1102,119;98,17644
 414,25; 1088,655;   63,337; 1142,311;95,02712
 414,84; 1095,428;   69,431; 1102,434;99,32175
 415,44; 1132,255;   91,530; 1155,939;97,77491
 416,03; 1143,286;   76,637; 1161,173;98,35069
 416,62; 1159,893;   76,138; 1168,687;99,19510
 417,21; 1169,908;   75,334; 1158,843;101,02120
 417,80; 1171,922;   65,037; 1162,871;100,82450
 418,39; 1178,901;   78,440; 1179,201;99,97270
 418,98; 1187,139;   55,634; 1143,405;104,02049
 419,58; 1184,570;   64,033; 1142,067;103,94261
 420,17; 1192,744;   52,735; 1164,540;102,53675
 420,76; 1235,286;   72,537; 1192,873;103,78571
 421,35; 1217,648;   60,236; 1155,197;105,70345
 421,94; 1246,301;   88,340; 1223,501;102,00848
 422,53; 1237,635;   61,540; 1195,320;103,73221
 423,12; 1230,295;   64,039; 1190,766;103,50834
 423,71; 1236,880;   60,835; 1162,138;106,78675
 424,30; 1265,284;   85,236; 1210,695;104,85041
 424,90; 1203,191;   39,438; 1163,809;103,50265
 425,49; 1264,233;   70,140; 1216,242;104,18737
 426,08; 1268,933;   80,240; 1209,641;105,24984
 426,67; 1224,015;   57,436; 1168,257;105,01955
 427,26; 1281,946;   60,343; 1230,391;104,40623
 427,85; 1274,559;   63,238; 1209,968;105,63259
 428,44; 1272,010;   68,442; 1218,093;104,68978
 429,03; 1324,141;   85,341; 1233,155;107,92682
 429,62; 1316,273;   78,941; 1240,296;106,54213
 430,21; 1324,017;   81,443; 1277,807;103,86249
 430,80; 1316,491;   70,445; 1235,381;106,96268
 431,39; 1312,851;   53,344; 1246,926;105,52329
 431,99; 1307,980;   78,535; 1206,838;108,96415
 432,58; 1342,495;   82,639; 1251,166;107,81577
 433,17; 1336,346;   69,735; 1238,319;108,38854
 433,76; 1386,933;   71,347; 1288,314;108,10372
 434,35; 1384,457;   88,245; 1292,462;107,63942
 434,94; 1400,608;   70,849; 1318,887;106,54793
 435,53; 1400,848;   78,643; 1278,669;110,18131
 436,12; 1392,084;   70,044; 1294,267;107,99016
 436,71; 1418,570;   87,740; 1303,239;109,48833
 437,30; 1466,039;   76,941; 1299,177;113,65217
 437,89; 1435,690;   76,245; 1320,802;109,23119
 438,48; 1465,179;   65,942; 1305,731;112,86084
 439,07; 1487,060;   95,238; 1347,147;111,17604
 439,66; 1517,770;   83,648; 1375,711;110,99471
 440,25; 1514,084;   85,844; 1390,567;109,46694
 440,84; 1543,044;   79,850; 1387,984;111,85349
 441,43; 1571,933;   78,054; 1440,985;109,60780
 442,02; 1572,613;   79,650; 1411,022;112,13716
 442,61; 1592,551;   93,344; 1397,226;114,98027
 443,20; 1601,477;   94,249; 1446,625;111,45036
 443,79; 1602,329;   74,546; 1412,957;114,14909
 444,38; 1663,171;   84,248; 1461,789;114,61894
 444,97; 1685,593;   84,146; 1466,359;115,86108
 445,56; 1701,695;  101,846; 1477,038;116,33644
 446,15; 1723,884;   81,651; 1522,539;113,97369
 446,74; 1696,219;   58,644; 1462,286;116,66614
 447,33; 1788,329;   82,646; 1538,357;117,17189
 447,92; 1798,949;   78,151; 1570,720;115,29107
 448,51; 1822,660;   89,746; 1586,019;115,81541
 449,10; 1859,559;   92,045; 1608,840;116,52949
 449,69; 1886,148;   73,950; 1627,741;116,63070
 450,28; 1911,802;   66,948; 1608,251;119,69442
 450,87; 1907,068;   78,647; 1656,333;115,89260
 451,46; 1996,006;   96,048; 1702,208;118,29191
 452,05; 2034,244;   70,950; 1715,384;119,39022
 452,64; 2061,281;   70,850; 1725,182;120,31628
 453,23; 2126,320;  113,752; 1794,936;119,71135
 453,82; 2144,482;   83,451; 1800,660;120,02213
 454,40; 2147,281;   65,450; 1786,682;120,95003
 454,99; 2249,460;  101,253; 1871,891;121,32395
 455,58; 2224,599;   69,747; 1832,095;122,27166
 456,17; 2286,657;   63,852; 1873,634;122,82171
 456,76; 2339,550;   67,751; 1918,820;122,72901
 457,35; 2379,471;   78,348; 1930,490;124,24124
 457,94; 2428,429;   66,954; 1978,929;123,50977
 458,53; 2465,115;   67,350; 2010,101;123,42113
 459,12; 2547,011;   82,657; 2111,116;121,48899
 459,71; 2529,237;   58,148; 2060,071;123,43578
 460,30; 2589,770;   84,448; 2087,511;125,07452
 460,89; 2615,350;   57,551; 2129,920;123,42391
 461,48; 2696,329;   75,954; 2173,829;124,90619
 462,06; 2691,779;   68,050; 2187,303;123,80438
 462,65; 2722,740;   48,249; 2176,527;125,66455
 463,24; 2852,106;   87,456; 2288,680;125,59599
 463,83; 2857,979;   54,450; 2229,803;128,87692
 464,42; 2881,808;   88,349; 2333,687;124,41149
 465,01; 2932,980;   73,050; 2336,482;126,35372
 465,60; 2965,613;   64,050; 2384,322;125,05270
 466,19; 2999,729;   73,354; 2462,829;122,46941
 466,77; 3057,384;   81,551; 2462,939;124,96214
 467,36; 3067,444;   69,457; 2459,256;125,44932
 467,95; 3102,551;   79,551; 2466,098;126,66835
 468,54; 3134,499;   71,954; 2513,866;125,41582
 469,13; 3205,053;   69,452; 2535,977;127,12627
 469,72; 3217,602;   67,555; 2582,723;125,24200
 470,31; 3274,037;   87,855; 2629,242;125,37174
 470,90; 3302,911;   76,750; 2652,044;125,27352
 471,48; 3264,678;   32,057; 2671,875;122,45621
 472,07; 3383,966;  125,747; 2686,454;127,23903
 472,66; 3408,859;   67,853; 2748,412;124,63838
 473,25; 3400,284;   68,351; 2723,339;125,49711
 473,84; 3409,600;   55,955; 2766,545;123,72381
 474,43; 3484,453;   55,459; 2843,049;123,00928
 475,01; 3527,366;   69,254; 2885,926;122,77297
 475,60; 3524,435;   49,755; 2882,364;122,66712
 476,19; 3597,082;   74,158; 2956,932;122,20604
 476,78; 3641,844;   71,057; 2964,456;123,41148
 477,37; 3603,835;   59,355; 2945,364;122,81597
 477,95; 3709,471;   75,656; 3018,661;123,47293
 478,54; 3676,660;   63,253; 3023,691;122,05653
 479,13; 3703,260;   56,253; 3070,291;121,00073
 479,72; 3715,964;   81,154; 3090,147;120,79821
 480,31; 3762,988;   63,459; 3167,468;119,18551
 480,89; 3800,666;   60,254; 3171,026;120,24062
 481,48; 3775,559;   46,260; 3214,084;117,72429
 482,07; 3811,398;   61,654; 3233,866;118,20597
 482,66; 3787,128;   52,853; 3253,650;116,66702
 483,25; 3866,858;   78,960; 3319,884;116,87711
 483,83; 3872,633;   59,954; 3325,385;116,75882
 484,42; 3858,229;   54,354; 3355,129;115,24190
 485,01; 3931,148;   65,958; 3400,413;115,91667
 485,60; 3904,075;   73,764; 3490,590;112,10142
 486,18; 3882,871;   66,956; 3490,761;111,45246
 486,77; 3907,220;   67,252; 3519,736;111,22334
 487,36; 3951,442;   58,464; 3561,750;111,12362
 487,95; 3944,195;   59,161; 3640,781;108,47140
 488,53; 3971,228;   54,461; 3642,522;109,16108
 489,12; 3944,306;   50,563; 3722,252;106,04771
 489,71; 3916,933;   38,062; 3680,357;106,49524
 490,30; 3972,193;   61,460; 3742,503;106,23981
 490,88; 3977,662;   87,561; 3859,141;103,14248
 491,47; 3951,973;   60,663; 3867,512;102,21866
 492,06; 3971,437;   62,563; 3920,615;101,31730
 492,65; 4004,897;   59,161; 3947,060;101,48761
 493,23; 3989,491;   54,860; 3982,825;100,16972
 493,82; 3973,693;   65,853; 4018,031;98,87814
 494,41; 3972,231;   51,361; 4066,179;97,65997
 494,99; 3992,200;   73,655; 4126,945;96,67568
 495,58; 4028,193;   86,060; 4224,403;95,25873
 496,17; 3989,606;   56,356; 4198,681;94,95271
 496,76; 4029,271;   65,356; 4276,761;94,12334
 497,34; 3994,546;   54,557; 4305,235;92,69084
 497,93; 4004,878;   66,057; 4350,675;91,92934
 498,52; 3996,722;   60,059; 4454,387;89,58511
 499,10; 4032,900;   75,862; 4533,217;88,77549
 499,69; 4008,557;   55,360; 4537,006;88,20859
 500,28; 4010,888;   37,959; 4592,068;87,23833
 500,86; 4043,499;   62,862; 4698,539;85,86959
 501,45; 4047,099;   53,462; 4730,438;85,38928
 502,04; 4034,333;   53,362; 4813,958;83,62338
 502,62; 4109,906;   70,956; 4856,181;84,40460
 503,21; 4042,540;   57,856; 4939,699;81,62254
 503,80; 4116,768;   69,662; 5015,577;81,82724
 504,38; 4104,491;   58,460; 5081,425;80,55066
 504,97; 4073,768;   49,962; 5122,776;79,32097
 505,56; 4082,686;   70,859; 5194,989;78,29283
 506,14; 4134,009;   64,064; 5263,709;78,27352
 506,73; 4055,046;   23,565; 5292,507;76,51405
 507,32; 4101,415;   62,865; 5376,045;76,01004
 507,90; 4129,858;   70,860; 5443,284;75,55246
 508,49; 4129,213;   58,865; 5500,366;74,80193
 509,08; 4144,607;   67,264; 5571,931;74,07066
 509,66; 4104,326;   69,960; 5677,644;71,94353
 510,25; 4160,229;   63,561; 5737,400;72,20276
 510,83; 4203,346;   45,165; 5855,607;71,56393
 511,42; 4195,662;   61,968; 5895,913;70,85590
 512,01; 4156,144;   59,164; 5980,328;69,19214
 512,59; 4187,468;   46,562; 6041,676;69,07134
 513,18; 4196,431;   59,961; 6114,379;68,32151
 513,77; 4178,977;   42,257; 6171,797;67,48826
 514,35; 4168,870;   37,763; 6190,255;67,14526
 514,94; 4237,300;   58,662; 6323,517;66,69968
 515,52; 4221,051;   48,166; 6358,342;66,12946
 516,11; 4279,479;   80,665; 6474,047;65,67437
 516,69; 4200,155;   41,959; 6446,727;64,92344
 517,28; 4244,215;   83,358; 6541,973;64,42337
 517,87; 4214,780;   45,558; 6604,054;63,56980
 518,45; 4199,250;   74,858; 6626,192;62,95499
 519,04; 4224,151;   54,258; 6707,970;62,67018
 519,62; 4229,337;   55,863; 6774,114;62,12143
 520,21; 4212,918;   24,466; 6828,002;61,56288
 520,79; 4281,693;   52,068; 7000,875;60,86836
 521,38; 4319,160;   52,960; 6995,363;61,45135
 521,97; 4331,695;   43,068; 7141,554;60,41608
 522,55; 4353,519;   67,759; 7195,230;60,13016
 523,14; 4351,686;   26,759; 7180,289;60,45864
 523,72; 4444,528;   77,561; 7383,422;59,77348
 524,31; 4416,246;   71,665; 7406,107;59,23533
 524,89; 4481,526;   48,468; 7526,815;59,27858
 525,48; 4554,220;   21,666; 7603,580;59,78113
 526,06; 4534,544;   56,264; 7633,128;59,10466
 526,65; 4624,771;   72,370; 7803,105;58,88703
 527,23; 4606,002;   46,262; 7840,596;58,50070
 527,82; 4713,157;   37,967; 7905,978;59,42023
 528,41; 4823,053;   67,366; 8041,021;59,64250
 528,99; 4830,213;   66,365; 8108,167;59,23857
 529,58; 4888,335;   42,562; 8168,736;59,63167
 530,16; 4999,331;   49,461; 8315,379;59,88288
 530,75; 5077,477;   73,964; 8417,069;59,97182
 531,33; 5107,120;   45,566; 8440,980;60,28951
 531,92; 5230,326;   48,560; 8567,344;60,82753
 532,50; 5368,302;   87,770; 8706,468;61,26833
 533,09; 5446,382;   65,665; 8807,204;61,55343
 533,67; 5570,484;   63,458; 8952,011;61,95638
 534,26; 5607,424;   65,760; 9007,665;61,97409
 534,84; 5711,896;   68,461; 9127,061;62,29920
 535,42; 5811,077;   61,564; 9205,969;62,87465
 536,01; 5973,537;   79,263; 9330,215;63,71532
 536,59; 6055,619;   43,366; 9482,202;63,69697
 537,18; 6193,557;   77,360; 9568,605;64,44040
 537,76; 6285,844;   56,972; 9764,700;64,16405
 538,35; 6486,027;   59,368; 9892,694;65,35590
 538,93; 6570,844;   72,664; 9941,828;65,84326
 539,52; 6701,871;   57,370;10111,405;66,08790
 540,10; 6843,833;   63,269;10309,029;66,17922
 540,69; 6939,740;   68,763;10444,071;66,22432
 541,27; 7022,500;   58,262;10514,917;66,60102
 541,85; 7197,484;   47,366;10658,783;67,38137
 542,44; 7265,258;   56,460;10765,484;67,31517
 543,02; 7440,333;   80,369;10952,729;67,69426
 543,61; 7593,889;   77,067;11102,218;68,17886
 544,19; 7654,717;   55,066;11264,023;67,79980
 544,78; 7753,286;   62,766;11296,562;68,45878
 545,36; 7935,698;   77,469;11521,011;68,66956
 545,94; 7969,077;   54,564;11563,069;68,77099
 546,53; 8093,009;   52,771;11724,882;68,88418
 547,11; 8246,930;   90,668;11879,873;69,18415
 547,70; 8300,856;   75,860;11954,706;69,24070
 548,28; 8417,313;   47,965;12093,066;69,48342
 548,86; 8515,913;   81,365;12327,767;68,87369
 549,45; 8622,595;   33,768;12364,953;69,65127
 550,03; 8693,523;   76,467;12507,537;69,31870
 550,62; 8808,352;   63,566;12662,842;69,40705
 551,20; 8901,090;   61,467;12808,418;69,34696
 551,78; 8995,342;   61,164;12952,850;69,30186
 552,37; 9082,177;   55,864;13112,469;69,13216
 552,95; 9198,479;   56,765;13214,547;69,47762
 553,54; 9288,046;   49,965;13393,207;69,23416
 554,12; 9391,091;   67,167;13498,797;69,41766
 554,70; 9540,629;   67,568;13736,973;69,30120
 555,29; 9606,348;   61,965;13856,285;69,19067
 555,87; 9678,037;   60,170;13987,786;69,05609
 556,45; 9807,133;   57,162;14154,058;69,16396
 557,04; 9892,655;   43,667;14376,600;68,71579
 557,62;10059,255;   68,867;14525,499;69,10592
 558,20;10139,977;   42,671;14799,940;68,42259
 558,79;10232,593;  100,368;14905,875;68,43551
 559,37;10280,390;   49,867;15000,418;68,42907
 559,95;10382,864;   46,669;15169,691;68,34742
 560,54;10429,962;   71,768;15324,613;67,90991
 561,12;10598,485;   50,866;15485,562;68,33707
 561,70;10705,631;   50,369;15679,551;68,17543
 562,29;10819,928;   61,768;15810,994;68,30913
 562,87;10995,095;   73,168;16023,953;68,47266
 563,45;11021,795;   71,068;16194,754;67,91702
 564,04;11044,302;   54,362;16227,195;67,95309
 564,62;11233,196;   37,769;16438,332;68,26246
 565,20;11280,299;   59,962;16715,838;67,36564
 565,78;11431,480;   70,765;16797,326;67,92021
 566,37;11498,984;   71,066;17011,283;67,46028
 566,95;11586,533;   52,969;17124,330;67,56089
 567,53;11690,533;   67,262;17308,857;67,41413
 568,12;11764,913;   62,265;17367,766;67,62386
 568,70;11896,411;   85,264;17565,889;67,56708
 569,28;11975,231;   61,069;17745,252;67,37186
 569,86;11975,322;   67,767;17910,758;66,73520
 570,45;12166,400;   78,569;18124,689;66,98299
 571,03;12201,466;   53,962;18259,898;66,72276
 571,61;12298,306;   46,571;18424,824;66,66431
 572,19;12282,604;   54,263;18395,773;66,67030
 572,78;12404,793;   70,668;18668,975;66,31854
 573,36;12603,377;   84,264;18797,668;66,89918
 573,94;12604,842;   44,064;18892,750;66,64007
 574,52;12671,487;   54,559;19030,768;66,48814
 575,11;12706,508;   37,264;19159,830;66,25284
 575,69;12805,420;   53,566;19268,680;66,36367
 576,27;12847,695;   47,161;19391,381;66,17240
 576,85;12939,877;   43,264;19549,668;66,11476
 577,44;13095,433;   30,262;19814,158;66,03942
 578,02;13032,322;   32,159;19753,887;65,91797
 578,60;13223,375;   50,464;20073,791;65,78782
 579,18;13345,206;   51,963;20160,752;66,10663
 579,76;13396,144;   40,264;20300,129;65,92285
 580,35;13401,835;   60,170;20436,707;65,47563
 580,93;13587,358;   59,667;20641,557;65,72619
 581,51;13651,202;   24,770;20697,168;65,91607
 582,09;13686,069;   58,663;20755,756;65,84213
 582,67;13798,090;   49,567;20971,318;65,71402
 583,26;13827,662;   28,568;21227,014;65,09484
 583,84;14020,810;   14,164;21413,709;65,45301
 584,42;14156,711;   48,064;21513,287;65,72793
 585,00;14287,120;   81,366;21772,180;65,49203
 585,58;14313,255;   25,167;21912,299;65,28077
 586,17;14329,827;   46,761;21948,521;65,21424
 586,75;14407,118;    6,666;22026,902;65,39645
 587,33;14497,356;   47,767;22191,678;65,25311
 587,91;14629,219;   74,866;22390,201;65,22130
 588,49;14628,433;   63,962;22349,758;65,35315
 589,07;14660,226;   45,468;22403,215;65,36776
 589,65;14648,388;   28,267;22444,439;65,22131
 590,24;14674,166;   42,562;22447,799;65,30439
 590,82;14658,097;   28,261;22484,160;65,14919
 591,40;14688,510;   41,464;22520,209;65,15954
 591,98;14652,755;   45,759;22558,227;64,88403
 592,56;14744,997;   61,161;22699,961;64,86137
 593,14;14760,555;   43,359;22728,928;64,87470
 593,72;14822,146;   29,765;22889,107;64,71044
 594,30;14782,822;   36,759;22797,486;64,78731
 594,89;14805,344;   41,364;22862,428;64,69453
 595,47;14760,327;   38,961;22922,623;64,33134
 596,05;14805,755;   30,267;23003,799;64,31527
 596,63;14906,354;   31,167;23056,199;64,60442
 597,21;14813,251;   36,766;23145,441;63,94345
 597,79;14741,287;   35,467;23166,039;63,57742
 598,37;14797,268;   36,669;23222,748;63,66147
 598,95;14838,019;   50,766;23305,301;63,58868
 599,53;14709,577;   46,757;23207,996;63,30758
 600,11;14830,979;   48,665;23341,947;63,46170
 600,70;14726,173;   57,363;23315,111;63,07064
 601,28;14715,010;   38,564;23424,809;62,75674
 601,86;14725,618;   61,766;23355,102;62,95299
 602,44;14674,097;   23,661;23449,660;62,53921
 603,02;14676,639;   38,656;23576,521;62,18908
 603,60;14752,482;   54,858;23663,232;62,25598
 604,18;14643,472;   69,263;23594,734;61,95076
 604,76;14525,869;   59,263;23642,154;61,34365
 605,34;14340,249;   27,565;23530,764;60,89675
 605,92;14311,464;   59,561;23453,719;60,92078
 606,50;14267,966;   17,662;23498,998;60,68779
 607,08;14100,320;   31,666;23394,881;60,21712
 607,66;14150,251;   39,266;23561,643;59,98962
 608,24;13970,022;   46,067;23522,059;59,31147
 608,82;13928,708;   26,164;23532,031;59,14500
 609,40;13755,153;   46,466;23471,021;58,52272
 609,98;13568,244;   18,864;23505,928;57,68869
 610,56;13529,061;   43,861;23497,662;57,49686
 611,14;13400,048;   30,765;23481,086;57,01109
 611,72;13316,913;   42,665;23572,467;56,41462
 612,30;13112,202;   24,962;23468,496;55,82452
 612,88;13001,919;   60,659;23517,730;55,16997
 613,46;12853,565;   21,862;23505,697;54,64058
 614,04;12708,229;   30,068;23461,873;54,10664
 614,62;12653,495;   41,561;23489,982;53,78586
 615,20;12492,426;   52,768;23402,416;53,27557
 615,78;12374,033;   25,569;23463,430;52,68597
 616,36;12269,042;   41,364;23400,150;52,34723
 616,94;12107,852;    7,666;23272,242;52,01120
 617,52;11970,958;   24,067;23373,656;51,16531
 618,10;12010,120;   63,559;23336,107;51,33327
 618,68;11885,284;   17,966;23253,184;51,07470
 619,26;11736,460;   39,268;23398,834;50,07453
 619,84;11640,671;   18,963;23277,133;49,96828
 620,42;11596,046;   31,165;23313,506;49,67233
 621,00;11514,046;   28,865;23209,607;49,54622
 621,58;11424,257;   38,760;23216,406;49,12275
 622,16;11434,938;   49,270;23335,164;48,89513
 622,74;11331,852;   47,066;23327,742;48,47276
 623,32;11332,917;   42,166;23291,223;48,56434
 623,90;11336,073;   66,971;23311,484;48,48070
 624,48;11296,065;   32,662;23196,598;48,62474
 625,05;11246,866;   34,562;23105,098;48,60010
 625,63;11354,166;   52,962;23188,799;48,84718
 626,21;11291,002;   38,262;23117,596;48,75678
 626,79;11370,489;   53,967;23219,719;48,85023
 627,37;11346,301;   28,162;23090,717;49,07582
 627,95;11393,326;   72,768;23200,215;48,94859
 628,53;11341,945;   49,365;23176,607;48,82805
 629,11;11275,253;   48,259;23043,449;48,82323
 629,69;11344,396;   53,369;23256,932;48,66075
 630,27;11310,472;   80,763;23105,434;48,77251
 630,84;11261,166;   43,862;23021,197;48,81900
 631,42;11258,259;   54,367;23319,656;48,15711
 632,00;11183,487;   45,459;23125,768;48,25771
 632,58;11169,740;   50,263;23105,172;48,23041
 633,16;11223,071;   49,870;23096,906;48,47999
 633,74;11130,611;   56,264;23018,488;48,22855
 634,32;11082,462;   45,661;23007,842;48,06513
 634,90;11042,304;   51,970;23195,746;47,48721
 635,47;10986,926;   38,860;23035,645;47,60694
 636,05;10951,162;   37,461;22989,342;47,55036
 636,63;10908,346;   45,965;23104,807;47,10723
 637,21;10912,644;   67,464;23150,529;46,98327
 637,79;10905,382;   71,465;23192,904;46,85658
 638,37;10778,170;   54,055;23070,883;46,59250
 638,94;10823,748;   33,265;23100,686;46,77802
 639,52;10805,947;   41,665;23195,285;46,49071
 640,10;10765,171;   64,264;23215,900;46,22095
 640,68;10703,645;   54,164;23175,334;46,05944
 641,26;10719,219;   35,864;23250,268;46,02037
 641,84;10646,394;   39,164;23235,002;45,72902
 642,41;10576,768;   28,264;23192,936;45,53703
 642,99;10587,442;   48,464;23145,568;45,62900
 643,57;10483,217;   22,064;23158,402;45,21525
 644,15;10464,091;   27,064;23178,035;45,08246
 644,73;10493,265;   37,564;23277,568;44,99010
 645,30;10438,039;   55,264;23230,303;44,80154
 645,88;10365,414;   44,964;23362,635;44,26021
 646,46;10413,788;   59,264;23447,568;44,27223
 647,04;10401,563;   51,864;23367,902;44,38875
 647,61;10390,937;   46,564;23396,336;44,30181
 648,19;10376,312;   61,664;23433,369;44,13305
 648,77;10403,785;   26,264;23442,002;44,31857
 649,35;10449,260;   51,064;23590,137;44,17419
 649,92;10445,734;   42,464;23596,070;44,16848
 650,50;10339,208;   30,064;23551,104;43,82946
 651,08;10412,883;   39,964;23450,537;44,30869
 651,66;10437,157;   21,864;23534,770;44,29607
 652,23;10480,432;   39,064;23561,004;44,38991
 652,81;10567,306;   36,464;23644,137;44,60771
 653,39;10623,580;   56,164;23647,170;44,79426
 653,97;10563,754;   37,065;23882,504;44,14550
 654,54;10565,429;   23,565;23823,137;44,29434
 655,12;10651,803;   30,965;23831,971;44,62348
 655,70;10699,978;   42,065;23962,805;44,55511
 656,28;10719,651;   32,765;23947,037;44,68832
 656,85;10738,626;   44,065;24051,070;44,54767
 657,43;10680,601;   -1,035;23831,305;44,81992
 658,01;10718,274;   21,465;24078,539;44,46430
 658,58;10772,849;   55,165;24234,371;44,32604
 659,16;10739,323;   51,965;24154,105;44,34195
 659,74;10792,598;   59,465;24338,039;44,20825
 660,32;10767,872;   71,665;24327,672;44,09715
 660,89;10686,546;   34,265;24347,305;43,81304
 661,47;10796,921;   51,665;24464,939;44,01399
 662,05;10779,895;   25,365;24587,373;43,78522
 662,62;10796,669;   59,665;24584,006;43,78101
 663,20;10854,144;   80,665;24740,139;43,68900
 663,78;10905,418;   47,965;24902,773;43,68351
 664,35;10844,893;   52,465;24921,006;43,39791
 664,93;10929,366;   64,465;25123,539;43,35715
 665,51;10973,641;   49,565;25170,973;43,48513
 666,08;10991,915;   30,165;25185,707;43,57588
 666,66;11149,489;   47,465;25667,539;43,33330
 667,23;11121,363;   51,765;25732,773;43,10422
 667,81;11205,338;   65,865;25889,307;43,13706
 668,39;11275,013;   43,265;26047,141;43,19259
 668,96;11478,687;   54,665;26309,074;43,51277
 669,54;11490,562;   38,765;26408,408;43,42795
 670,12;11615,636;   51,165;26808,740;43,21943
 670,69;11717,710;   64,165;26950,674;43,34347
 671,27;11786,584;   25,565;27096,008;43,44598
 671,84;11742,958;   40,665;27105,240;43,23841
 672,42;11881,833;   66,265;27253,875;43,45938
 673,00;11949,207;   57,165;27531,408;43,28433
 673,57;11907,881;   59,965;27276,441;43,53214
 674,15;12016,655;   64,065;27613,475;43,38601
 674,72;11924,630;   58,565;27536,209;43,18443
 675,30;11965,004;   69,466;27513,541;43,34465
 675,88;11965,979;   36,266;27573,176;43,32263
 676,45;11994,553;   59,466;27677,309;43,21513
 677,03;11988,127;   67,866;27525,043;43,41401
 677,60;12004,002;   41,466;27770,576;43,14071
 678,18;12022,076;   59,466;27877,510;43,00306
 678,76;11971,950;   40,766;27809,143;42,96681
 679,33;12021,524;   57,666;27813,176;43,10445
 679,91;11994,199;   44,266;27813,311;43,03329
 680,48;12027,573;   28,766;27740,242;43,29906
 681,06;12028,147;   50,866;27735,176;43,26379
 681,63;11970,822;   37,566;27736,209;43,08246
 682,21;12037,196;   67,966;27797,543;43,16413
 682,78;11902,070;   20,566;27459,576;43,30151
 683,36;11967,345;   46,966;27565,510;43,31762
 683,93;11917,419;   30,466;27450,645;43,35111
 684,51;11989,193;   26,166;27477,277;43,57939
 685,08;12092,268;   38,966;27733,711;43,52198
 685,66;12091,643;   53,066;27694,045;43,55337
 686,24;12120,017;   33,766;27796,578;43,53396
 686,81;12231,391;   57,666;27899,910;43,72393
 687,39;12234,065;   38,866;27807,844;43,91663
 687,96;12364,039;   54,166;27850,479;44,28599
 688,54;12467,714;   30,866;27984,811;44,49049
 689,11;12423,188;   26,966;28043,545;44,24602
 689,69;12469,662;   29,666;28019,279;44,44504
 690,26;12645,437;   59,466;28289,313;44,58391
 690,84;12616,811;   50,066;28239,846;44,57908
 691,41;12672,785;   35,966;28403,879;44,54617
 691,98;12712,560;   31,466;28427,912;44,65733
 692,56;12720,034;   32,866;28437,445;44,66592
 693,13;12831,208;   64,866;28655,080;44,65284
 693,71;12890,883;   24,466;28657,912;44,93492
 694,28;12922,357;   41,966;28715,945;44,92014
 694,86;13010,432;   47,266;28928,879;44,88380
 695,43;13010,806;   61,366;29100,912;44,59243
 696,01;13101,479;   36,266;29145,547;44,88333
 696,58;13045,854;   42,167;29083,879;44,77590
 697,16;13104,229;   38,067;29126,414;44,91889
 697,73;13305,303;   63,467;29338,246;45,23292
 698,30;13194,677;   51,867;29223,980;45,05265
 698,88;13241,752;   40,467;29558,613;44,72261
 699,45;13247,726;   35,367;29765,848;44,44045
 700,03;13375,101;   56,067;29750,980;44,85291
 700,60;13336,975;   56,267;29850,613;44,57459
 701,18;13482,549;   61,867;29963,947;44,88210
 701,75;13574,224;   74,367;30094,682;44,96907
 702,32;13544,197;   50,367;29901,914;45,20312
 702,90;13602,771;   52,467;30254,148;44,86606
 703,47;13702,146;   51,367;30428,881;44,93712
 704,05;13772,921;   67,767;30546,715;44,96597
 704,62;13858,795;   39,867;30587,848;45,23680
 705,19;13966,369;   43,667;30586,982;45,58347
 705,77;13965,043;   29,967;30618,314;45,55681
 706,34;14093,618;   61,667;30627,049;45,90799
 706,91;14125,492;   46,367;30673,883;45,96888
 707,49;14205,066;   57,267;30976,316;45,75755
 708,06;14357,240;   66,367;31089,049;46,06589
 708,64;14378,515;   25,767;31093,582;46,19812
 709,21;14509,289;   58,167;31179,316;46,43505
 709,78;14526,563;   41,367;31281,150;46,36779
 710,36;14621,838;   61,667;31419,684;46,43205
 710,93;14798,513;   50,567;31562,416;46,80127
 711,50;14792,687;   44,467;31506,049;46,87692
 712,08;15087,461;   76,567;31925,383;47,13172
 712,65;15108,136;   73,667;31775,916;47,42398
 713,22;15073,409;   69,067;31900,250;47,13724
 713,80;15228,484;   84,167;31966,883;47,50009
 714,37;15149,858;   55,767;31827,018;47,50865
 714,94;15255,232;   53,967;31727,551;47,99351
 715,52;15215,707;   47,867;31732,984;47,87055
 716,09;15263,481;   65,467;31891,918;47,75278
 716,66;15381,955;   73,467;31935,051;48,04685
 717,23;15268,330;   66,867;31908,484;47,74086
 717,81;15335,604;   50,168;31812,018;48,12515
 718,38;15300,578;   47,468;31671,252;48,23303
 718,95;15303,153;   59,068;31618,984;48,30205
 719,53;15352,527;   56,568;31661,418;48,39751
 720,10;15354,901;   59,968;31481,252;48,67698
 720,67;15333,376;   35,768;31355,984;48,84260
 721,24;15299,050;   59,468;31256,020;48,85021
 721,82;15252,324;   49,968;31236,053;48,74724
 722,39;15345,299;   64,068;31235,885;49,02259
 722,96;15452,373;   64,968;31261,420;49,32422
 723,53;15400,348;   88,268;31151,953;49,29254
 724,11;15629,521;   61,568;31207,486;49,98393
 724,68;15564,296;   71,568;31242,020;49,70325
 725,25;15585,771;   72,768;31399,953;49,51930
 725,82;15834,145;   96,068;31564,387;50,01245
 726,40;15883,520;   62,668;31714,820;49,98349
 726,97;15955,693;   62,168;31875,354;49,95892
 727,54;16085,468;   46,968;31801,486;50,50777
 728,11;16145,742;   49,568;32045,820;50,30644
 728,69;16181,616;   39,568;31938,953;50,60301
 729,26;16430,791;   53,568;32105,088;51,09656
 729,83;16474,564;   53,268;32264,621;50,97984
 730,40;16506,539;   66,768;32291,754;51,01560
 730,97;16693,314;   44,268;32590,588;51,15493
 731,55;16813,787;   41,468;32755,820;51,26899
 732,12;16926,162;   86,268;32841,656;51,41107
 732,69;16920,438;   66,968;32889,988;51,34649
 733,26;16942,211;   55,168;32930,520;51,36688
 733,83;17107,785;   41,168;32979,055;51,81455
 734,41;17224,959;   65,468;32991,590;52,11513
 734,98;17251,135;   51,368;33155,621;51,95637
 735,55;17322,809;   43,168;33183,656;52,14057
 736,12;17452,783;   65,968;33377,289;52,19491
 736,69;17514,057;   76,968;33377,922;52,36213
 737,26;17599,031;   57,468;33552,254;52,37103
 737,84;17592,805;   70,768;33487,188;52,43541
 738,41;17790,680;   63,168;33492,422;53,02993
 738,98;17742,154;   63,569;33375,055;53,07054
 739,55;17766,529;   49,669;33377,789;53,15890
 740,12;17870,002;   62,969;33678,023;52,97339
 740,69;17943,777;   70,569;33575,656;53,34476
 741,26;17934,951;   56,269;33557,391;53,36741
 741,83;17946,426;   53,869;33719,523;53,14781
 742,41;18092,199;   56,169;33833,055;53,39755
 742,98;18208,574;   91,469;33874,590;53,62768
 743,55;18212,449;   53,569;33836,824;53,75113
 744,12;18250,023;   50,469;33859,855;53,82989
 744,69;18419,896;   59,569;33848,492;54,33830
 745,26;18366,271;   42,169;33677,723;54,47837
 745,83;18570,047;   58,769;33854,355;54,77425
 746,40;18445,920;   57,969;33844,789;54,42344
 746,97;18438,695;   44,769;33828,125;54,44671
 747,55;18535,770;   62,269;33966,957;54,48657
 748,12;18686,143;   57,869;33910,191;55,02805
 748,69;18742,617;   68,769;33877,625;55,23360
 749,26;18831,191;   65,069;33958,559;55,36793
 749,83;18854,967;   42,569;33911,992;55,54390
 750,40;18917,840;   89,669;34158,824;55,26457
 750,97;18886,914;   96,269;34144,160;55,18887
 751,54;19019,289;   40,569;33980,793;55,91808
 752,11;18842,164;   52,969;33874,727;55,55357
 752,68;18970,037;   87,869;33912,859;55,82313
 753,25;18928,213;   60,269;33774,594;55,96418
 753,82;18932,887;   65,069;33810,527;55,91217
 754,39;18976,361;   75,169;33727,160;56,16664
 754,96;18900,836;   60,069;33616,395;56,14669
 755,53;19085,309;   29,469;33796,527;56,43322
 756,10;18980,584;   64,169;33720,961;56,20386
 756,67;19006,258;   73,369;33813,395;56,11403
 757,24;18963,633;   72,769;33740,426;56,10983
 757,81;19032,008;   16,469;33677,762;56,49082
 758,38;19045,682;   54,569;33822,695;56,23976
 758,95;19160,355;   79,469;33743,426;56,68046
 759,52;19065,830;   57,469;33615,859;56,64265
 760,09;19133,004;   68,570;33306,992;57,35662
 760,66;19099,379;   59,570;33309,727;57,26231
 761,23;19174,152;   91,070;33353,961;57,37049
 761,80;19077,127;   56,270;33295,793;57,22362
 762,37;18987,402;   68,970;33167,727;57,15753
 762,94;19203,076;   70,970;33187,461;57,77214
 763,51;19162,650;   36,070;32949,793;58,11126
 764,08;19177,725;   66,270;32998,527;58,03263
 764,65;19156,199;   69,570;32798,961;58,31648
 765,22;19170,873;   54,670;32804,496;58,37040
 765,79;19138,947;   77,370;32691,928;58,44500
 766,36;19328,422;   73,170;32743,063;58,93883
 766,93;19292,695;   68,970;32551,295;59,18211
 767,50;19447,270;   89,470;32828,328;59,12790
 768,07;19394,145;   63,870;32699,262;59,23102
 768,64;19307,219;   86,470;32572,596;59,16602
 769,21;19264,094;   57,970;32359,729;59,45845
 769,78;19252,268;   78,770;32244,963;59,60761
 770,34;19130,041;   45,570;32031,195;59,66577
 770,91;19161,717;   58,470;31921,430;59,95440
 771,48;19220,691;   62,370;31836,863;60,29466
 772,05;19135,865;   66,470;31610,697;60,45288
 772,62;19027,439;   42,670;31443,029;60,46036
 773,19;19076,014;   59,370;31579,764;60,33124
 773,76;19081,787;   71,070;31506,297;60,47584
 774,33;18887,262;   74,170;31447,330;59,96556
 774,90;18883,637;   52,870;31206,064;60,44570
 775,47;18877,410;   59,970;30957,498;60,90274
 776,03;18842,285;   73,470;30984,330;60,71916
 776,60;18830,959;   55,970;30757,863;61,15254
 777,17;18818,635;   65,470;30698,098;61,21958
 777,74;18743,008;   30,870;30522,031;61,36906
 778,31;18729,082;   68,970;30582,064;61,15444
 778,88;18583,557;   30,470;30366,898;61,15778
 779,45;18481,631;   75,770;30358,131;60,78080
 780,01;18497,006;   58,370;30299,664;60,97172
 780,58;18469,080;   60,570;30177,998;61,12245
 781,15;18227,555;   38,771;29979,432;60,74944
 781,72;18233,529;   66,771;29962,266;60,76755
 782,29;18129,303;   51,771;29667,100;61,04113
 782,86;18224,877;   55,571;29617,732;61,46136
 783,42;18223,951;   56,171;29598,166;61,49815
 783,99;18148,227;   66,671;29482,100;61,46963
 784,56;18135,301;   55,171;29320,232;61,78060
 785,13;18080,875;   40,271;29247,266;61,76809
 785,70;17952,350;   49,071;29060,299;61,71155
 786,26;17967,623;   51,671;28910,732;62,08086
 786,83;17948,797;   84,371;28889,166;62,01893
 787,40;17899,471;   57,171;28783,500;62,11131
 787,97;17811,945;   43,971;28581,133;62,26258
 788,54;17858,820;   70,371;28515,268;62,53652
 789,10;17786,795;   57,971;28344,400;62,67608
 789,67;17722,568;   70,371;28245,334;62,65207
 790,24;17650,143;   51,071;28193,768;62,53513
 790,81;17577,418;   88,271;27914,400;62,85153
 791,37;17516,092;   73,671;27872,135;62,74599
 791,94;17578,266;   70,771;27886,367;62,94129
 792,51;17353,840;   46,271;27539,201;62,95280
 793,08;17370,115;   69,771;27555,234;62,94361
 793,64;17295,189;   71,271;27455,168;62,89798
 794,21;17155,064;   69,671;27250,602;62,85801
 794,78;17067,639;   53,071;27147,035;62,79837
 795,35;17026,012;   73,471;27007,969;62,93988
 795,91;16995,387;   48,071;26789,301;63,37523
 796,48;16919,561;   55,771;26710,734;63,26698
 797,05;16857,535;   57,671;26624,369;63,23655
 797,62;16832,510;   41,971;26600,701;63,22041
 798,18;16696,385;   57,471;26410,736;63,13796
 798,75;16606,059;   56,571;26279,770;63,11010
 799,32;16567,932;   60,771;26209,102;63,12893
 799,88;16686,607;   55,971;26051,535;63,97490
 800,45;16481,281;   33,971;25945,270;63,47544
 801,02;16403,055;   65,271;25880,104;63,28836
 801,58;16380,830;   90,872;25660,436;63,70839
 802,15;16317,804;   72,872;25615,270;63,59987
 802,72;16170,378;   66,172;25404,703;63,55619
 803,28;16024,553;   49,172;25288,938;63,29449
 803,85;16021,927;   41,972;25144,871;63,65781
 804,42;16095,802;   77,772;24948,004;64,40644
 804,98;16012,176;  100,672;24935,537;64,06922
 805,55;15850,250;   56,972;24702,371;64,08205
 806,12;15853,824;   83,572;24611,004;64,29639
 806,68;15873,198;   66,472;24493,738;64,70935
 807,25;15805,173;   74,972;24436,271;64,57045
 807,82;15816,147;   86,872;24407,805;64,67382
 808,38;15678,122;   73,672;24367,037;64,23338
 808,95;15744,596;   62,972;24166,971;65,05818
 809,52;15733,670;   50,272;24162,004;65,04468
 810,08;15664,944;   55,172;23994,938;65,20437
 810,65;15768,719;   77,172;24169,672;65,13042
 811,21;15767,094;   69,972;24123,404;65,25938
 811,78;15803,668;   92,472;24337,539;64,80162
 812,35;15714,742;   64,972;24173,871;64,91284
 812,91;15720,616;   90,072;24239,705;64,72373
 813,48;15692,990;   68,172;24202,738;64,74041
 814,04;15728,965;   64,172;24088,373;65,20422
 814,61;15608,939;   77,572;24176,006;64,44970
 815,18;15487,813;   67,772;23892,539;64,72274
 815,74;15515,288;   69,772;23709,172;65,33802
 816,31;15434,362;   83,372;23614,406;65,23721
 816,87;15244,337;   43,272;23489,641;64,83334
 817,44;15134,011;   76,972;23452,273;64,41431
 818,00;15042,785;   43,272;23159,506;64,88736
 818,57;14990,959;   71,872;23076,340;64,85300
 819,14;14879,634;   82,872;22924,273;64,78045
 819,70;14793,809;   72,672;22792,707;64,79363
 820,27;14694,482;   62,972;22691,941;64,65831
 820,83;14593,957;   70,072;22541,373;64,63304
 821,40;14399,531;   98,072;22431,908;64,03494
 821,96;14416,105;   75,272;22315,541;64,48138
 822,53;14324,080;   70,973;22257,574;64,24196
 823,09;14304,654;   81,073;22073,309;64,67547
 823,66;14176,828;   68,173;21862,541;64,73533
 824,22;14113,402;   77,173;21851,674;64,46177
 824,79;14094,777;   75,473;21561,408;65,24875
 825,35;14000,151;   65,173;21648,041;64,56500
 825,92;13860,426;   75,173;21398,875;64,64756
 826,48;13911,400;   87,673;21501,309;64,55572
 827,05;13786,374;   89,573;21448,242;64,12760
 827,61;13731,349;   75,273;21249,076;64,49515
 828,18;13653,923;   60,873;21191,209;64,32955
 828,74;13553,897;   91,673;21053,543;64,22244
 829,31;13480,672;   83,373;21002,176;64,04429
 829,87;13391,346;   73,073;20733,709;64,46207
 830,44;13402,721;   85,173;20631,443;64,81735
 831,00;13488,194;   91,273;20673,977;65,08825
 831,57;13312,669;  101,573;20631,609;64,35009
 832,13;13148,743;   72,073;20323,344;64,57210
 832,69;13163,117;   58,173;20309,477;64,71161
 833,26;13066,992;   85,473;20322,711;64,14669
 833,82;13000,666;   93,073;20197,744;64,20196
 834,39;12843,440;   78,773;20137,477;63,63655
 834,95;12870,215;   57,173;19959,410;64,37991
 835,52;12772,089;   87,873;19851,744;64,17880
 836,08;12684,764;   95,573;19951,877;63,40148
 836,64;12749,438;   76,273;19800,711;64,25108
 837,21;12625,712;   88,673;19552,443;64,41218
 837,77;12595,986;   91,873;19491,777;64,45451
 838,34;12559,161;   67,473;19470,012;64,38172
 838,90;12443,635;   64,473;19306,045;64,33550
 839,46;12356,310;   83,873;19312,479;63,82385
 840,03;12352,284;   76,173;19300,811;63,85614
 840,59;12325,358;   85,873;19175,645;64,11541
 841,16;12274,832;  105,173;19156,578;63,87801
 841,72;12111,906;   59,373;18965,512;63,74931
 842,28;12158,681;   77,873;18857,246;64,33020
 842,85;12146,756;   95,573;18812,578;64,38628
 843,41;12083,729;  105,374;18740,813;64,27729
 843,97;12018,004;   89,174;18686,846;64,14152
 844,54;11926,378;  104,774;18624,979;63,83085
 845,10;11995,953;   89,174;18523,713;64,58952
 845,67;11871,227;   68,774;18413,445;64,33723
 846,23;11829,302;   78,674;18361,080;64,27287
 846,79;11682,575;   90,474;18265,613;63,77999
 847,36;11618,150;   55,774;18179,047;63,79850
 847,92;11691,824;   84,874;18034,680;64,66338
 848,48;11634,398;   41,874;18039,213;64,41244
 849,04;11563,772;   62,374;17949,447;64,30006
 849,61;11479,447;   56,274;17918,580;63,95128
 850,17;11492,521;   68,174;17819,514;64,35766
 850,73;11473,896;   71,474;17764,848;64,44459
 851,30;11468,971;   46,074;17669,881;64,81515
 851,86;11351,444;   75,874;17597,914;64,35079
 852,42;11437,119;   51,174;17568,348;64,99876
 852,99;11377,593;   79,274;17583,082;64,54778
 853,55;11382,468;   83,174;17542,514;64,71776
 854,11;11195,842;   70,074;17432,049;64,08123
 854,67;11183,216;   85,474;17420,881;64,01778
 855,24;11051,091;   51,874;17213,414;64,09225
 855,80;11108,465;   76,874;17244,848;64,25680
 856,36;11074,839;   80,574;17175,881;64,31160
 856,92;10949,214;   54,474;17027,215;64,18963
 857,49;10976,488;   81,274;17048,248;64,21424
 858,05;10897,162;   67,274;16968,482;64,07760
 858,61;10922,736;   65,774;17003,316;64,09999
 859,17;10924,511;   77,374;16904,250;64,46316
 859,74;10785,085;   82,074;16836,883;63,88023
 860,30;10706,760;   93,074;16663,016;64,05385
 860,86;10729,733;   72,074;16692,350;64,12444
 861,42;10649,808;   74,674;16545,883;64,20375
 861,99;10586,683;   54,674;16506,717;64,01642
 862,55;10556,656;   66,374;16393,051;64,25240
 863,11;10517,531;   75,174;16437,283;63,82036
 863,67;10398,205;   61,274;16290,117;63,69481
 864,23;10433,279;   80,175;16199,351;64,22850
 864,80;10399,254;   69,175;16081,384;64,51377
 865,36;10307,729;   71,875;16120,817;63,77899
 865,92;10323,803;   96,175;16088,751;63,95235
 866,48;10272,977;   67,375;15987,384;64,10550
 867,04;10217,151;   60,675;15891,418;64,15666
 867,60;10273,426;   99,375;15884,451;64,45361
 868,17;10176,300;   93,675;15884,685;63,85041
 868,73;10071,574;   82,775;15672,618;64,07248
 869,29;10007,549;   59,475;15470,151;64,55313
 869,85; 9979,723;  100,475;15369,685;64,70045
 870,41; 9932,098;   80,575;15293,418;64,75793
 870,97; 9887,972;   92,975;15232,252;64,69924
 871,54; 9805,546;   84,175;15178,686;64,40335
 872,10; 9710,720;   84,275;15055,419;64,29999
 872,66; 9684,295;   66,775;14910,652;64,79116
 873,22; 9674,769;   81,975;14890,586;64,77848
 873,78; 9477,144;   65,275;14742,419;64,12602
 874,34; 9461,018;   95,075;14662,652;64,29307
 874,90; 9424,617;  109,775;14536,053;64,56858
 875,46; 9356,418;   96,375;14412,952;64,68056
 876,03; 9266,418;   86,475;14363,353;64,29937
 876,59; 9085,718;   64,475;14153,253;64,03141
 877,15; 9105,018;  101,475;14166,853;64,01209
 877,71; 9031,817;   78,275;14064,652;64,01616
 878,27; 9067,018;   95,675;13910,553;64,93972
 878,83; 9037,418;  114,275;13971,753;64,39226
 879,39; 8913,718;   91,075;14082,753;63,05636
 879,95; 8834,918;   86,275;13964,253;63,03975
 880,51; 8905,218;   75,175;13927,253;63,74526
 881,07; 8955,518;   82,375;13978,753;63,85220
 881,63; 9005,018;   92,575;13971,253;64,21680
 882,19; 8976,718;   82,675;13921,553;64,26853
 882,75; 8971,018;   86,275;14019,553;63,76635
 883,31; 9034,518;   95,575;14187,853;63,43150
 883,88; 9038,718;   96,375;14174,353;63,52008
 884,44; 9009,718;   76,175;14175,753;63,36036
 885,00; 9137,817;  106,075;14266,952;63,77954
 885,56; 9135,117;  101,675;14299,452;63,62575
 886,12; 9212,518;  109,875;14421,152;63,60468
 886,68; 9146,817;   90,775;14436,753;63,12600
 887,24; 9228,617;  102,475;14574,952;63,05860
 887,80; 9228,518;   86,975;14671,753;62,67865
 888,36; 9354,918;  106,275;14715,652;63,30621
 888,92; 9397,617;   98,975;14773,353;63,36652
 889,48; 9541,918;   99,575;14973,853;63,48102
 890,04; 9511,518;   95,275;14803,053;64,02220
 890,60; 9586,218;  117,475;15014,652;63,56065
 891,16; 9601,518;   99,875;15075,853;63,44589
 891,72; 9617,218;  113,275;15058,452;63,59204
 892,28; 9650,218;  112,475;15126,053;63,52745
 892,84; 9599,117;   93,775;15039,853;63,59757
 893,39; 9559,317;  117,575;15112,952;62,96435
 893,95; 9539,418;  112,975;15044,753;63,13008
 894,51; 9375,817;   66,375;14891,253;62,79608
 895,07; 9494,018;  127,375;14906,353;63,37815
 895,63; 9321,817;   74,275;14689,952;63,27139
 896,19; 9206,718;   90,375;14601,952;62,82117
 896,75; 9151,817;  105,175;14460,152;63,02095
 897,31; 9046,817;   82,775;14295,853;63,06898
 897,87; 8978,918;   98,175;14146,853;63,21409
 898,43; 8909,117;   87,775;14075,753;63,06374
 898,99; 8815,117;  109,175;14002,753;62,66163
 899,55; 8709,617;  109,475;13940,652;62,17939
 900,11; 8655,718;  104,975;13747,553;62,67689
 900,67; 8529,018;   91,375;13658,652;62,19113
 901,22; 8502,918;  108,375;13601,952;62,21140
 901,78; 8420,518;   91,275;13560,053;61,84112
 902,34; 8401,317;  103,075;13451,152;62,16807
 902,90; 8297,518;   73,575;13350,652;61,94091
 903,46; 8198,718;   95,775;13236,353;61,66352
 904,02; 8106,018;   88,075;13091,553;61,65999
 904,58; 8064,717;   67,075;12918,152;62,23324
 905,14; 8005,917;   63,975;12874,553;61,99519
 905,70; 7984,817;   66,775;12696,053;62,69592
 906,25; 7897,717;   84,375;12708,452;61,89238
 906,81; 7877,618;   87,675;12732,152;61,60747
 907,37; 7822,217;   79,275;12616,152;61,76133
 907,93; 7738,717;   74,775;12588,152;61,24599
 908,49; 7678,217;  101,875;12497,652;61,12035
 909,05; 7696,717;   89,675;12425,553;61,66600
 909,60; 7689,317;   86,575;12340,452;62,04357
 910,16; 7490,917;   67,675;12291,853;60,72591
 910,72; 7494,018;  100,475;12207,753;61,06693
 911,28; 7422,618;   90,875;12156,053;60,76780
 911,84; 7456,018;   79,575;12106,753;61,33145
 912,39; 7406,317;   73,475;12049,353;61,23010
 912,95; 7302,018;  104,475;12001,452;60,49892
 913,51; 7292,817;   85,375;11945,253;60,77164
 914,07; 7174,717;   83,775;11813,452;60,45300
 914,63; 7209,618;   64,775;11748,053;61,15444
 915,18; 7126,917;   77,475;11617,853;61,08502
 915,74; 7015,317;   63,975;11632,652;60,08762
 916,30; 6940,217;   61,475;11588,553;59,67464
 916,86; 6938,118;   83,575;11514,652;59,96410
 917,42; 6913,917;   82,275;11425,152;60,22848
 917,97; 6846,917;   75,375;11265,452;60,51381
 918,53; 6775,118;   67,775;11196,253;60,27188
 919,09; 6726,217;   88,975;11223,753;59,60821
 919,65; 6688,317;   83,375;11083,452;60,04451
 920,20; 6543,118;   61,875;10983,053;59,34564
 920,76; 6486,917;   65,475;10849,452;59,54614
 921,32; 6426,817;   82,675;10770,952;59,35608
 921,87; 6315,317;   97,475;10670,253;58,80992
 922,43; 6251,618;   64,675;10561,353;58,94191
 922,99; 6104,217;   61,875;10406,753;58,40902
 923,55; 6041,018;   63,775;10357,353;58,06769
 924,10; 5964,417;   73,575;10282,853;57,70088
 924,66; 5944,018;   78,675;10170,152;58,12174
 925,22; 5840,518;   43,275;10093,952;57,68012
 925,77; 5798,917;   66,075; 9927,053;58,13665
 926,33; 5785,518;   90,375; 9903,253;58,03743
 926,89; 5696,518;   71,975; 9692,753;58,46245
 927,44; 5619,417;   52,175; 9580,553;58,42802
 928,00; 5529,518;   66,875; 9533,753;57,70268
 928,56; 5530,917;   80,375; 9372,253;58,65921
 929,12; 5457,317;   72,775; 9275,152;58,51251
 929,67; 5300,717;   67,575; 9091,053;57,99474
 930,23; 5240,817;   50,975; 8915,253;58,54783
 930,78; 5196,518;  100,675; 8842,553;58,29231
 931,34; 5054,817;   61,975; 8632,152;58,25833
 931,90; 4917,518;   61,675; 8494,353;57,58364
 932,45; 4796,917;   78,775; 8290,753;57,45440
 933,01; 4604,618;   52,975; 8024,453;57,09911
 933,57; 4499,417;   72,175; 7753,252;57,63830
 934,12; 4308,917;   70,475; 7399,553;57,83050
 934,68; 4044,018;   59,075; 7020,252;57,24524
 935,24; 3857,317;   67,875; 6614,752;57,88168
 935,79; 3603,218;   72,975; 6254,853;57,10632
 936,35; 3381,917;   91,375; 5812,252;57,51814
 936,90; 3136,917;   80,275; 5348,752;58,01757
 937,46; 2860,817;   72,775; 4956,953;57,08315
 938,02; 2626,018;   63,375; 4549,152;57,12817
 938,57; 2455,617;   73,175; 4265,053;56,83473
 939,13; 2302,917;   70,575; 3986,752;57,00310
 939,68; 2135,817;   57,375; 3713,452;56,84897
 940,24; 1986,318;   68,775; 3504,052;55,81914
 940,79; 1937,718;   91,875; 3391,052;55,94857
 941,35; 1847,818;   79,675; 3217,552;56,34836
 941,91; 1788,118;   71,375; 3122,252;56,27045
 942,46; 1749,618;   75,075; 3063,552;56,03330
 943,02; 1721,517;   65,375; 3050,752;55,47514
 943,57; 1669,017;   61,275; 2982,452;55,03748
 944,13; 1687,017;   67,375; 2974,452;55,71377
 944,68; 1714,318;   65,975; 3041,752;55,39200
 945,24; 1728,917;   82,275; 3060,052;55,29770
 945,79; 1712,017;   68,775; 3104,052;54,13813
 946,35; 1762,118;   51,775; 3194,752;54,41791
 946,90; 1826,318;   98,575; 3283,552;54,24662
 947,46; 1807,618;   52,175; 3311,052;53,86648
 948,01; 1853,618;   51,575; 3390,052;53,97798
 948,57; 1935,017;   86,775; 3552,952;53,32221
 949,12; 1957,318;   65,875; 3613,353;53,31796
 949,68; 2005,517;   76,275; 3732,653;52,76376
 950,23; 2070,218;   70,075; 3833,252;53,15036
 950,79; 2092,218;   75,775; 3933,452;52,27090
 951,34; 2149,817;   83,275; 4070,952;51,82321
 951,90; 2183,317;   57,475; 4140,853;52,06088
 952,45; 2248,018;   81,075; 4292,152;51,45815
 953,01; 2262,117;   65,975; 4364,252;51,09355
 953,56; 2329,917;   87,975; 4500,853;50,80455
 954,12; 2342,718;   42,075; 4567,553;50,83756
 954,67; 2397,617;   70,875; 4720,453;50,04202
 955,23; 2423,417;   61,975; 4804,553;49,79238
 955,78; 2463,218;   67,175; 4882,953;49,75401
 956,33; 2467,317;   58,575; 4947,252;49,27186
 956,89; 2510,718;   53,475; 5038,553;49,29196
 957,44; 2518,617;   53,675; 5170,752;48,17090
 958,00; 2553,718;   49,475; 5238,353;48,26174
 958,55; 2574,518;   70,475; 5313,953;47,75538
 959,10; 2578,518;   52,375; 5370,252;47,50284
 959,66; 2589,518;   74,275; 5488,752;46,45402
 960,21; 2615,417;   78,475; 5567,453;46,21885
 960,77; 2650,417;   54,275; 5606,152;46,76152
 961,32; 2640,417;   48,375; 5663,453;46,16218
 961,87; 2635,218;   79,775; 5738,752;45,15732
 962,43; 2659,917;   68,975; 5780,652;45,36220
 962,98; 2685,617;   76,175; 5828,652;45,36206
 963,54; 2618,018;   27,075; 5820,652;44,72095
 964,09; 2646,817;   56,275; 5873,953;44,52881
 964,64; 2623,718;   64,975; 5901,053;43,84353
 965,20; 2623,018;   44,375; 5966,652;43,54140
 965,75; 2647,117;   66,575; 5976,353;43,66564
 966,30; 2636,417;   75,275; 6068,553;42,73359
 966,86; 2658,817;   62,975; 6121,953;42,84291
 967,41; 2639,817;   81,075; 6084,453;42,62171
 967,96; 2627,817;   75,175; 6108,953;42,30587
 968,52; 2641,617;   81,775; 6126,353;42,34940
 969,07; 2589,417;   72,975; 6120,152;41,61351
 969,62; 2588,718;   77,175; 6134,953;41,45980
 970,18; 2587,718;   57,575; 6147,652;41,54533
 970,73; 2583,917;   66,475; 6203,553;41,02022
 971,28; 2577,617;   95,775; 6197,053;40,67742
 971,84; 2504,117;   55,075; 6118,752;40,38873
 972,39; 2509,817;   95,875; 6148,652;39,88157
 972,94; 2492,617;   54,975; 6140,652;40,05540
 973,49; 2450,018;   64,575; 6141,252;39,25571
 974,05; 2423,917;   64,375; 6178,053;38,59449
 974,60; 2434,018;   88,575; 6213,252;38,29496
 975,15; 2446,917;   77,675; 6231,553;38,49999
 975,71; 2370,917;   62,375; 6121,453;38,10056
 976,26; 2336,617;   77,575; 6110,252;37,44676
 976,81; 2340,218;   90,675; 6134,152;37,22265
 977,36; 2336,718;   84,775; 6156,953;37,08624
 977,92; 2305,817;   90,175; 6209,353;36,20817
 978,47; 2263,218;   77,175; 6060,252;36,53709
 979,02; 2247,917;   95,475; 6085,652;35,93287
 979,57; 2193,817;   86,775; 6058,453;35,28393
 980,13; 2162,718;   76,175; 6038,752;34,99397
 980,68; 2123,317;   77,075; 6010,553;34,48639
 981,23; 2144,317;   89,175; 6054,652;34,45059
 981,78; 2118,018;   82,075; 5974,152;34,55390
 982,33; 2089,018;   79,275; 5893,252;34,56743
 982,89; 2064,218;   94,375; 5938,152;33,70838
 983,44; 2005,818;   65,675; 5935,853;33,05083
 983,99; 2034,118;  104,775; 5949,453;33,01025
 984,54; 1985,618;   81,475; 5900,053;32,72522
 985,09; 1950,718;   87,275; 5873,752;32,20340
 985,65; 1930,017;   69,375; 5811,853;32,40139
 986,20; 1927,417;  106,575; 5791,152;32,03127
 986,75; 1903,318;   95,875; 5823,953;31,55409
 987,30; 1879,017;   97,175; 5726,053;31,65538
 987,85; 1885,318;   92,475; 5721,353;31,85080
 988,40; 1830,517;   96,675; 5693,953;30,97653
 988,96; 1816,618;  114,875; 5666,553;30,65276
 989,51; 1782,917;  108,875; 5644,053;30,24370
 990,06; 1766,917;  128,275; 5680,853;29,51138
 990,61; 1711,318;   93,575; 5569,053;29,54523
 991,16; 1721,118;  104,375; 5558,053;29,64500
 991,71; 1667,718;   79,875; 5505,853;29,26371
 992,26; 1647,818;   93,475; 5457,252;28,97850
 992,81; 1620,718;   75,075; 5427,053;28,87984
 993,37; 1632,417;  113,475; 5390,553;28,78378
 993,92; 1615,417;  108,375; 5368,953;28,64785
 994,47; 1592,218;  117,475; 5329,652;28,29417
 995,02; 1567,818;  118,475; 5313,252;27,89999
 995,57; 1538,718;   90,875; 5274,652;27,93026
 996,12; 1513,017;  133,575; 5247,553;26,97396
 996,67; 1494,718;  132,375; 5191,652;26,92761
 997,22; 1450,017;   99,875; 5128,652;26,84832
 997,77; 1437,818;  115,275; 5110,553;26,47586
 998,32; 1410,718;  103,775; 5015,652;26,60780
 998,87; 1406,118;  114,275; 5018,752;26,34007
 999,42; 1398,118;  101,675; 4972,553;26,61620
 999,97; 1347,218;  109,975; 4956,353;25,52922
1000,53; 1344,917;  123,475; 4993,752;25,07953
1001,08; 1316,917;   98,375; 4879,053;25,48891
1001,63; 1302,118;  144,475; 4878,053;24,45597
1002,18; 1218,718;   85,075; 4777,453;24,15923
1002,73; 1263,818;  131,375; 4813,853;24,18469
1003,28; 1229,917;  103,575; 4811,953;23,92209
1003,83; 1211,118;  119,075; 4691,752;23,88191
1004,38; 1192,818;  137,775; 4703,152;23,10965
1004,93; 1144,718;  114,375; 4680,953;22,56269
1005,48; 1144,017;  104,075; 4573,053;23,27025
1006,03; 1100,118;  112,775; 4525,652;22,37412
1006,58; 1097,017;  111,475; 4486,553;22,52628
1007,13; 1063,917;   94,475; 4466,252;22,17502
1007,68; 1057,218;  104,975; 4462,453;21,85307
1008,23; 1044,718;  114,575; 4425,853;21,57464
1008,78; 1015,018;  107,375; 4384,152;21,22258
1009,33;  993,818;  121,875; 4307,752;20,83058
1009,88;  958,318;   84,775; 4329,553;20,57923
1010,43;  974,518;  118,875; 4320,752;20,36334
1010,98;  965,818;  100,675; 4310,053;20,55274
1011,52;  939,218;   97,075; 4264,953;20,20555
1012,07;  970,617;  144,475; 4319,252;19,78890
1012,62;  920,318;  103,875; 4259,152;19,64833
1013,17;  921,117;   97,175; 4172,053;20,22005
1013,72;  873,417;   94,575; 4143,453;19,23601
1014,27;  878,917;  100,275; 4105,853;19,43896
1014,82;  849,218;   86,875; 4042,952;19,27016
1015,37;  812,917;   84,375; 3964,853;18,77456
1015,92;  810,318;  109,475; 3894,252;18,51740
1016,47;  783,718;   90,275; 3819,452;18,59505
1017,02;  764,917;   81,075; 3732,153;18,72988
1017,57;  746,617;   96,475; 3718,853;17,94795
1018,11;  736,018;   77,275; 3656,252;18,40589
1018,66;  763,018;  120,175; 3636,552;18,28139
1019,21;  729,617;  109,675; 3579,552;17,86641
1019,76;  696,417;   77,675; 3497,353;18,09359
1020,31;  674,218;   71,975; 3446,452;17,84699
1020,86;  660,018;   96,175; 3448,052;16,82169
1021,41;  644,518;   80,175; 3387,052;17,06572
1021,96;  634,518;   83,675; 3385,853;16,68119
1022,50;  656,617;  105,975; 3332,952;17,06372
1023,05;  612,117;   94,675; 3288,052;16,20361
1023,60;  622,218;   97,975; 3251,353;16,62479
1024,15;  585,818;   81,075; 3184,853;16,26220
1024,70;  601,818;   95,075; 3176,252;16,44639
1025,25;  572,018;   81,175; 3127,452;16,11286
1025,79;  577,518;  101,175; 3110,752;15,82755
1026,34;  557,917;   83,475; 3044,653;16,02209
1026,89;  550,417;  102,175; 3039,052;15,26255
1027,44;  530,018;   95,875; 2952,952;15,19534
1027,99;  522,318;   93,475; 2944,552;15,04142
1028,53;  513,018;   89,675; 2900,052;15,06355
1029,08;  514,718;  114,775; 2876,653;14,48082
1029,63;  500,418;  114,875; 2854,952;14,07050
1030,18;  478,017;   92,075; 2788,552;14,31284
1030,73;  457,217;   91,175; 2739,552;13,82139
1031,27;  445,117;   85,875; 2715,252;13,66264
1031,82;  451,918;   81,875; 2686,452;14,20739
1032,37;  452,918;   98,875; 2688,853;13,66971
1032,92;  459,517;  100,575; 2675,452;13,94018
1033,46;  440,017;   99,775; 2599,252;13,61254
1034,01;  417,617;   78,375; 2582,952;13,54490
1034,56;  439,517;   98,875; 2559,252;13,84513
1035,11;  421,717;   92,375; 2523,552;13,54663
1035,65;  401,418;   87,575; 2478,052;13,12886
1036,20;  411,717;   99,375; 2454,452;13,26252
1036,75;  417,818;  118,675; 2446,353;12,85154
1037,29;  396,318;   90,275; 2398,252;13,26020
1037,84;  376,418;   78,375; 2347,252;13,13612
1038,39;  365,818;   91,075; 2329,952;12,27144
1038,94;  351,717;   73,075; 2277,153;12,64214
1039,48;  369,617;   83,575; 2278,552;13,03168
1040,03;  380,517;  102,875; 2245,252;12,95955
1040,58;  363,318;  101,175; 2194,552;12,52247
1041,12;  349,217;   91,375; 2191,653;12,27659
1041,67;  346,418;  101,075; 2166,752;11,87710
1042,22;  368,318;  118,475; 2145,252;12,32708
1042,76;  337,617;   99,275; 2118,452;11,80394
1043,31;  335,617;   90,675; 2060,653;12,43377
1043,86;  344,017;   98,875; 2044,252;12,60128
1044,40;  336,818;   92,975; 2018,052;12,66663
1044,95;  320,517;   94,175; 1988,552;11,94812
1045,50;  295,217;   75,375; 1934,353;11,82599
1046,04;  326,818;  114,375; 1930,453;11,69788
1046,59;  298,517;   96,175; 1878,353;11,35367
1047,13;  311,818;  121,075; 1879,453;10,84764
1047,68;  308,117;  115,675; 1860,052;11,03216
1048,23;  306,517;  118,775; 1866,752;10,74056
1048,77;  280,217;   90,175; 1784,953;11,21342
1049,32;  288,418;  104,175; 1785,953;10,95522
1049,86;  288,418;   92,675; 1760,552;11,73602
1050,41;  258,918;   82,475; 1735,552;10,67358
1050,96;  271,517;  100,875; 1698,652;10,67999
1051,50;  251,917;  101,675; 1663,252; 9,62120
1052,05;  271,418;   94,675; 1664,052;11,26195
1052,59;  256,318;   82,975; 1624,152;11,24741
1053,14;  234,318;   84,475; 1582,652;10,00165
1053,69;  238,417;   98,475; 1571,453; 9,50065
1054,23;  262,517;  104,575; 1569,052;10,78490
1054,78;  247,117;  100,775; 1550,152;10,09692
1055,32;  280,117;  123,075; 1550,453;11,00217
1055,87;  220,617;   68,875; 1491,752;10,66448
1056,41;  218,518;   78,775; 1469,552;10,04780
1056,96;  231,217;   96,775; 1451,052; 9,92725
1057,50;  263,717;  113,375; 1470,853;11,07514
1058,05;  193,117;   82,075; 1401,953; 8,41309
1058,59;  231,717;   95,875; 1396,552;10,44398
1059,14;  246,518;  103,575; 1370,453;11,28306
1059,68;  204,617;   75,975; 1329,353;10,26367
1060,23;  252,518;  126,875; 1383,752; 9,99640
1060,77;  232,717;   97,375; 1317,052;11,09658
1061,32;  244,818;  108,575; 1320,652;11,24041
1061,86;  226,217;  111,175; 1289,752; 9,76113
1062,41;  223,818;   93,975; 1242,953;11,30070
1062,95;  214,018;  109,575; 1230,853; 9,31460
1063,50;  228,217;  111,075; 1230,052;10,46871
1064,04;  214,018;   90,475; 1197,453;11,16034
1064,59;  214,917;  114,775; 1210,052; 9,14312
1065,13;  209,717;  103,475; 1170,552; 9,95640
1065,68;  218,117;  107,275; 1161,353;10,51559
1066,22;  220,518;  115,875; 1166,453; 9,96047
1066,76;  231,717;  130,175; 1145,252;10,00342
1067,31;  195,417;   99,875; 1110,552; 9,45331
1067,85;  210,018;  100,975; 1090,252;11,02244
1068,40;  213,917;  110,275; 1095,353;10,52125
1068,94;  210,217;   99,175; 1079,353;11,32881
1069,49;  192,217;   98,175; 1041,652; 9,96765
1070,03;  196,717;  111,175; 1034,353; 9,26609
1070,57;  180,417;   88,775; 1012,852; 9,91719
1071,12;  166,917;   75,875;  987,153; 9,99064
1071,66;  227,617;  131,775; 1039,953;10,55328
1072,21;  202,518;  112,475; 1011,352;10,01722
1072,75;  190,518;  104,475;  978,552; 9,84381
1073,29;  169,117;   77,075;  942,453;10,63611
1073,84;  188,018;   95,975;  941,153;10,89032
1074,38;  173,417;   93,875;  928,253; 9,53315
1074,92;  180,318;  107,275;  940,153; 8,76990
1075,47;  187,117;  112,775;  938,852; 8,99946
1076,01;  198,717;  121,775;  926,253; 9,56428
1076,56;  176,818;   97,275;  891,953;10,00941
1077,10;  166,417;   86,075;  865,253;10,31119
1077,64;  171,018;   97,875;  884,453; 9,29883
1078,19;  203,518;  123,175;  887,753;10,50809
1078,73;  181,318;   98,775;  853,852;10,93166
1079,27;  200,417;  121,075;  875,552;10,51622
1079,81;  185,818;  121,375;  860,953; 8,71342
1080,36;  182,117;  105,975;  836,052;10,42937
1080,90;  170,917;   96,375;  819,753;10,30478
1081,44;  148,518;   82,475;  789,552; 9,34021
1081,99;  140,117;   70,375;  771,753; 9,94365
1082,53;  172,318;  113,075;  798,653; 8,64126
1083,07;  168,818;  104,175;  791,453; 9,40559
1083,62;  174,217;  101,275;  772,552;10,86622
1084,16;  159,617;   98,975;  782,453; 8,87264
1084,70;  173,318;  107,475;  767,153; 9,98101
1085,24;  172,818;  108,775;  750,653; 9,97737
1085,79;  162,018;  109,175;  747,552; 8,27763
1086,33;  150,818;   99,075;  711,453; 8,44945
1086,87;  166,117;  102,075;  714,852;10,45118
1087,41;  150,417;   84,475;  686,852;10,94704
1087,96;  186,818;  124,575;  732,552;10,23763
1088,50;  157,018;  112,075;  696,953; 7,68409
1089,04;  187,018;  121,775;  715,153;10,99511
1089,58;  146,617;   82,375;  655,953;11,20032
1090,13;  157,818;  102,975;  653,153; 9,96815
1090,67;  166,417;  101,775;  678,753;11,20364
1091,21;  147,518;   92,075;  651,852; 9,90438
1091,75;  153,617;  106,875;  647,153; 8,65157
1092,29;  160,717;  105,875;  642,552;10,21889
1092,84;  161,018;  105,975;  628,352;10,53692
1093,38;  187,617;  128,175;  662,753;11,11953
1093,92;  172,917;  113,475;  640,052;11,28846
1094,46;  167,717;  128,175;  638,852; 7,74314
1095,00;  157,217;   93,975;  602,052;12,44741
1095,54;  136,018;   89,975;  591,352; 9,18320
1096,09;  158,818;  114,975;  597,352; 9,08884
1096,63;  163,417;  117,175;  598,453; 9,60828
1097,17;  152,518;  102,575;  573,052;10,61528
1097,71;  181,117;  122,875;  582,453;12,67305
1098,25;  144,818;  103,275;  553,653; 9,22393
1098,79;  156,818;  104,775;  568,753;11,21660
1099,33;  152,318;  111,975;  572,052; 8,76863
1099,88;  154,717;  110,775;  562,253; 9,73304
1100,42;  118,817;   83,275;  521,253; 8,11514

