0093 ELITRO MAX
Integration time [ms]:   8,000
Averaging Nr. [scans]: 10
Smoothing Nr. [pixels]: 0
Data measured with spectrometer [name]: 7314920SP
Wave   ;Sample   ;Dark     ;Reference;Reflectance
[nm]   ;[counts] ;[counts] ;[counts] ;[%]

 199,42;  117,307;   63,873;  150,055;62,00133
 200,02;  132,151;   92,669;  145,732;74,40665
 200,62;   72,017;   67,563;   88,793;20,97821
 201,22;  129,271;   86,969;  138,011;82,87748
 201,82;  122,966;   66,174;  141,790;75,10512
 202,42;  132,111;  101,668;  154,973;57,11194
 203,03;   73,212;   60,168;   91,775;41,27002
 203,63;   94,153;   69,967;  109,037;61,90290
 204,23;  115,569;   70,671;  129,903;75,80033
 204,83;  104,273;   74,567;  123,718;60,43787
 205,43;  105,707;   56,673;  123,555;73,31423
 206,03;   79,433;   50,167;   90,459;72,63554
 206,63;   88,795;   68,865;  100,007;63,99832
 207,24;  137,485;   74,675;  162,566;71,46290
 207,84;   66,993;   39,967;   83,699;61,79952
 208,44;   79,271;   50,669;   95,011;64,50375
 209,04;   64,435;   47,365;   85,066;45,27722
 209,64;  125,068;   69,972;  127,998;94,95023
 210,24;   80,673;   45,367;   97,218;68,09087
 210,84;   88,911;   51,469;  101,970;74,14063
 211,44;  105,170;   86,470;  122,908;51,32132
 212,05;   89,235;   60,865;   99,266;73,87780
 212,65;   96,512;   66,368;  112,975;64,67725
 213,25;  113,411;   93,768;  142,073;40,66533
 213,85;  113,994;   84,465;  114,904;97,01102
 214,45;   75,773;   53,367;  100,418;47,62036
 215,05;   80,911;   39,369;  100,070;68,43670
 215,65;   81,951;   55,169;  105,630;53,07430
 216,25;   66,273;   40,267;   82,518;61,55077
 216,85;   60,431;   34,069;   89,651;47,42928
 217,45;   89,912;   49,068;   97,375;84,55099
 218,05;   99,590;   58,270;  112,886;75,65462
 218,66;   56,691;   28,769;   75,692;59,50725
 219,26;   55,353;   26,567;   79,337;54,54891
 219,86;   70,689;   36,771;   81,584;75,68868
 220,46;   96,950;   54,270;  104,127;85,60494
 221,06;   97,969;   51,871;  115,903;71,99221
 221,66;   86,289;   43,471;  103,481;71,35012
 222,26;   77,268;   39,772;  102,398;59,87234
 222,86;  105,132;   67,268;  118,954;73,25770
 223,46;   84,573;   51,767;   88,918;88,30382
 224,06;  108,329;   64,971;  120,343;78,30277
 224,66;  107,870;   57,570;  105,805;104,27939
 225,26;   82,730;   48,169;  113,748;52,70120
 225,86;   94,687;   42,173;  112,376;74,80326
 226,46;   85,972;   49,968;  102,913;68,00159
 227,06;   63,770;   27,670;   87,705;60,13033
 227,66;   61,755;   37,665;   74,845;64,79200
 228,27;   66,350;   29,270;   96,227;55,37896
 228,87;  128,730;   89,170;  143,046;73,42739
 229,47;   69,708;   29,172;   92,357;64,15316
 230,07;   47,130;   11,169;   59,648;74,17833
 230,67;   68,731;   38,169;   84,651;65,75040
 231,27;   72,650;   27,670;   76,327;92,44311
 231,87;   76,631;   43,169;  100,751;58,11211
 232,47;  106,805;   43,775;  132,047;71,40405
 233,07;   66,755;   42,965;   75,547;73,01622
 233,67;   87,712;   53,768;   94,275;83,79797
 234,27;   37,433;    0,567;   53,259;69,96566
 234,87;   70,489;   34,771;  106,084;50,08683
 235,47;   51,530;   16,169;   74,148;60,98917
 236,07;   54,254;   30,266;   72,042;57,42019
 236,67;   75,013;   49,966;   85,180;71,12842
 237,27;   79,187;   28,873;  109,074;62,73443
 237,87;   72,070;   25,370;   99,805;62,73828
 238,47;   46,251;   14,269;   68,032;59,48788
 239,07;   71,728;   33,272;   95,738;61,56233
 239,67;  105,623;   43,477;  131,421;70,66610
 240,27;   79,487;   46,773;  119,176;45,18363
 240,87;  108,626;   50,773;  119,533;84,13788
 241,47;   63,876;   39,164;   76,131;66,84983
 242,07;   61,692;   39,968;   92,894;41,04562
 242,67;   42,647;  -11,027;   77,914;60,34731
 243,27;   40,273;    7,767;   46,418;84,10069
 243,87;   86,929;   48,671;  108,343;64,11364
 244,47;   74,669;   22,371;   99,703;67,62795
 245,07;   37,511;    2,669;   55,770;65,61412
 245,67;   69,212;   31,068;   85,575;69,98019
 246,27;   58,195;   34,965;   69,007;68,24026
 246,87;   53,732;   26,668;   63,154;74,17635
 247,46;   14,117;   19,663;   23,793;-134,29748
 248,06;   53,990;   20,470;   69,786;67,96894
 248,66;   73,468;   31,072;  105,898;56,65896
 249,26;   53,954;   32,366;   70,742;56,25356
 249,86;   73,087;   42,873;  102,176;50,94898
 250,46;   76,345;   16,775;   93,507;77,63388
 251,06;   41,112;   22,168;   65,375;43,84523
 251,66;   50,049;   20,771;   64,724;66,61257
 252,26;   59,834;   38,866;   70,261;66,78606
 252,86;   66,011;   35,969;   89,070;56,57474
 253,46;   16,173;   -8,033;   22,118;80,28181
 254,06;   60,714;   31,766;   79,483;60,66671
 254,66;   72,207;   34,973;  100,155;57,12309
 255,26;   85,927;   39,073;  118,836;58,74194
 255,86;   61,676;   37,464;   55,631;133,27547
 256,46;   47,570;   19,870;   70,208;55,02892
 257,05;   52,409;   23,570;   59,565;80,12073
 257,65;   95,989;   38,071;   97,684;97,15718
 258,25;   80,608;   37,372;  101,457;67,46537
 258,85;   47,411;   15,669;   51,770;87,92489
 259,45;   19,331;    6,869;   42,951;34,53848
 260,05;   59,073;   46,667;   85,818;31,68727
 260,65;   69,034;   45,066;   83,561;62,26131
 261,25;   64,929;   29,371;   85,943;62,85424
 261,85;   33,149;   -0,129;   47,622;69,69010
 262,45;   85,611;   46,169;  109,270;62,50575
 263,04;   94,867;   53,073;  116,295;66,10648
 263,64;   66,493;   33,767;   77,097;75,52663
 264,24;   78,609;   37,671;   89,062;79,65891
 264,84;   94,486;   58,974;  138,671;44,55857
 265,44;   47,572;   26,368;   67,716;51,28332
 266,04;   65,434;   48,865;   71,464;73,31908
 266,64;   71,413;   39,866;   86,780;67,24464
 267,24;   60,013;   40,166;   68,980;68,88024
 267,84;   60,811;   24,668;   76,573;69,63419
 268,43;   77,052;   48,368;   95,935;60,30287
 269,03;   77,091;   46,969;   87,892;73,60800
 269,63;   79,294;   58,566;   92,402;61,26012
 270,23;   32,655;   10,765;   39,045;77,40352
 270,83;   71,134;   55,266;   83,161;56,88295
 271,43;   55,932;   23,967;   58,856;91,61972
 272,03;   81,572;   64,168;   99,116;49,80149
 272,62;   59,951;   23,269;   68,730;80,68897
 273,22;   40,630;   11,970;   61,046;58,39864
 273,82;   26,319;   17,460;   26,403;99,06287
 274,42;   30,416;   25,164;   46,890;24,17456
 275,02;   52,615;   34,864;   60,388;69,54778
 275,62;   93,308;   31,972;  100,457;89,56007
 276,21;   62,910;   22,770;   69,267;86,32764
 276,81;   69,793;   46,767;   71,099;94,63257
 277,41;   71,128;   22,971;   96,341;65,63632
 278,01;   31,115;   21,364;   42,788;45,51553
 278,61;   88,371;   38,869;   83,811;110,14736
 279,20;  106,387;   65,473;  119,076;76,32803
 279,80;    4,378;    6,762;   11,539;-49,89392
 280,40;   58,454;   36,866;   79,742;50,34959
 281,00;   25,471;   -4,331;   33,311;79,17302
 281,60;   64,646;   20,774;   74,812;81,18795
 282,20;   66,170;   36,670;   70,108;88,22395
 282,79;   58,252;   29,568;   70,135;70,70844
 283,39;   32,694;   17,466;   44,702;55,91115
 283,99;   37,455;   23,165;   34,347;127,79190
 284,59;   37,891;   16,869;   45,289;73,96707
 285,19;   39,533;   27,067;   57,759;40,61736
 285,78;   54,070;   23,270;   63,808;75,97902
 286,38;   59,995;   39,665;   59,207;104,03380
 286,98;   63,352;   35,168;   73,535;73,45975
 287,58;   35,069;    4,771;   61,403;53,49987
 288,17;   60,627;    8,973;   80,336;72,38253
 288,77;   81,844;   19,976;   92,504;85,30233
 289,37;   39,311;   11,269;   57,670;60,43351
 289,97;   52,755;   48,965;   66,647;21,43738
 290,57;   71,308;   46,672;   93,260;52,88138
 291,16;   92,172;   63,868;  102,616;73,04795
 291,76;   44,830;    5,570;   47,346;93,97688
 292,36;   52,953;   34,367;   58,137;78,18874
 292,96;   36,347;   -3,127;   60,117;62,41650
 293,55;   42,293;   24,267;   65,399;43,82540
 294,15;   46,610;   26,870;   62,567;55,29874
 294,75;   51,695;   42,065;   66,207;39,89065
 295,35;   41,172;   21,068;   52,016;64,96258
 295,94;   57,753;   42,967;   66,740;62,19935
 296,54;   44,172;   30,768;   70,613;33,63880
 297,14;   45,289;   29,971;   76,881;32,65235
 297,73;   24,615;   12,165;   40,085;44,59013
 298,33;   45,014;   28,066;   57,583;57,41889
 298,93;   45,832;   41,968;   82,554; 9,51963
 299,53;   54,588;   24,872;   69,079;67,22019
 300,12;   40,589;  -12,229;   59,481;73,65389
 300,72;   68,493;   41,567;   91,197;54,25256
 301,32;   74,489;   25,771;   99,584;66,00244
 301,92;   30,356;    3,664;   33,050;90,83246
 302,51;   44,413;   11,567;   49,978;85,51207
 303,11;   40,333;   14,667;   48,759;75,28545
 303,71;   59,751;   21,369;   82,132;63,16747
 304,30;   34,074;    5,466;   38,423;86,80411
 304,90;   27,214;   19,666;   44,283;30,66314
 305,50;   41,655;   18,565;   64,345;50,43602
 306,09;   36,154;   15,466;   49,042;61,61498
 306,69;   70,909;   34,171;   90,262;65,49633
 307,29;   32,679;   18,760;   33,144;96,77276
 307,88;   69,991;   43,269;   72,489;91,44932
 308,48;   30,450;    0,070;   49,727;61,17985
 309,08;   13,037;   -4,437;   11,774;107,79092
 309,68;   32,815;   22,365;   39,585;60,68248
 310,27;   45,251;   20,169;   49,830;84,56237
 310,87;   42,672;   23,468;   54,813;61,26474
 311,47;   72,773;   54,967;   92,918;46,91801
 312,06;   58,875;   47,865;   68,426;53,54796
 312,66;   84,272;   51,168;  100,016;67,77067
 313,26;   82,149;   48,571;   96,224;70,46396
 313,85;   59,833;   38,267;   65,959;77,87924
 314,45;   68,871;   42,969;   86,611;59,35160
 315,04;   75,175;   52,165;   81,826;77,57669
 315,64;   50,092;   21,267;   47,897;108,24602
 316,24;   68,650;   40,770;   85,627;62,15323
 316,83;   65,054;   40,366;   76,742;67,86844
 317,43;   62,832;   35,167;   68,156;83,86182
 318,03;   64,296;   39,063;   70,012;81,53234
 318,62;   88,998;   73,061;   94,820;73,24621
 319,22;   50,411;    7,668;   66,973;72,07427
 319,82;   70,472;   40,768;   93,516;56,31422
 320,41;   86,751;   59,069;   98,732;69,79404
 321,01;  101,855;   80,465;  115,945;60,28651
 321,60;   78,116;   81,164;  102,790;-14,09217
 322,20;  115,807;   67,673;  132,855;73,84559
 322,80;   84,592;   54,567;   91,797;80,64928
 323,39;   71,976;   65,764;   94,828;21,37091
 323,99;   83,734;   61,766;  102,661;53,71684
 324,59;   71,296;   73,063;   97,512;-7,22690
 325,18;   75,913;   40,967;   92,178;68,23919
 325,78;  113,615;   76,365;  108,885;114,54301
 326,37;   92,712;   74,868;  108,075;53,73616
 326,97;   94,092;   63,267;  111,497;63,91376
 327,57;   59,617;   42,263;   76,493;50,69736
 328,16;   82,476;   60,864;   93,631;65,95776
 328,76;   91,553;   50,467;  110,140;68,85299
 329,35;  107,189;   56,871;  137,484;62,41970
 329,95;   73,570;   27,470;   91,308;72,21465
 330,54;   79,273;   52,167;   94,018;64,76741
 331,14;   62,893;   26,967;   82,599;64,57822
 331,74;   87,755;   54,165;   96,145;80,01364
 332,33;   77,750;   35,370;  108,127;58,24880
 332,93;   56,556;   43,764;   79,250;36,04816
 333,52;   85,694;   42,466;   93,102;85,37016
 334,12;  114,491;   72,069;  140,392;62,09123
 334,71;   65,254;   50,666;   87,942;39,13492
 335,31;  100,233;   63,267;  119,859;65,32073
 335,90;   52,877;   32,362;   53,836;95,53636
 336,50;   46,395;   30,665;   77,207;33,79832
 337,10;   84,251;   38,769;  121,530;54,95564
 337,69;   79,195;   51,765;   93,707;65,40069
 338,29;   71,953;   30,467;  101,037;58,78625
 338,88;   59,532;   22,468;   99,854;47,89477
 339,48;   93,638;   57,862;  111,677;66,47944
 340,07;   94,274;   48,566;  107,321;77,79374
 340,67;   84,889;   31,171;  124,784;57,38349
 341,26;   77,654;   48,466;   98,942;57,82522
 341,86;  106,430;   61,469;  138,348;58,48270
 342,45;   94,991;   45,669;  142,689;50,83628
 343,05;   98,391;   27,269;  115,689;80,43594
 343,64;   88,413;   47,366;  122,480;54,64644
 344,24;   63,595;   28,765;   92,107;54,98780
 344,83;   87,155;   71,365;  121,747;31,34150
 345,43;   73,653;   29,667;  114,240;52,01030
 346,02;   78,031;   41,469;  124,351;44,11350
 346,62;  101,749;   40,971;  140,424;61,11255
 347,21;   93,515;   42,165;  131,985;57,16938
 347,81;  101,708;   26,172;  140,560;66,03522
 348,40;   69,276;   29,064;  100,731;56,11008
 349,00;   85,196;   49,163;  137,712;40,69304
 349,59;  127,430;   65,870;  177,846;54,97581
 350,19;   90,149;   32,571;  139,424;53,88556
 350,78;   83,533;   55,467;  140,759;32,90610
 351,38;   70,131;   15,869;  140,951;43,38127
 351,97;   75,853;   26,767;  136,040;44,92114
 352,57;   90,050;   42,570;  155,827;41,92244
 353,16;   61,776;   30,564;  134,328;30,07906
 353,76;   90,330;   38,770;  169,846;39,33572
 354,35;   76,830;   27,669;  160,148;37,10846
 354,95;   93,410;   43,970;  182,067;35,80102
 355,54;   93,511;   38,368;  163,973;43,90225
 356,14;   93,030;   40,069;  164,749;42,47782
 356,73;   75,838;   29,162;  145,176;40,23252
 357,32;   61,451;   13,769;  164,432;31,64853
 357,92;   83,648;   17,772;  181,419;40,25493
 358,51;  113,288;   43,372;  214,179;40,93273
 359,11;   98,608;   36,772;  212,360;35,21675
 359,70;   95,809;   28,470;  189,965;41,69743
 360,30;   97,878;   54,562;  188,039;32,45247
 360,89;   83,532;   31,168;  188,054;33,37695
 361,48;  120,810;   55,570;  216,467;40,54775
 362,08;   72,132;   19,867;  187,156;31,24234
 362,67;   89,217;   39,763;  192,693;32,33746
 363,27;  127,013;   60,767;  247,678;35,44245
 363,86;  113,355;   35,765;  215,745;43,11012
 364,46;  124,076;   44,664;  257,231;37,35879
 365,05;  137,241;   64,659;  254,989;38,13479
 365,64;  127,020;   50,960;  269,706;34,77105
 366,24;  156,102;   38,558;  309,432;43,39419
 366,83;  177,064;   43,255;  335,383;45,80505
 367,43;  185,455;   51,545;  352,843;44,44436
 368,02;  225,033;   34,646;  399,757;52,14501
 368,61;  261,300;   62,239;  475,425;48,17721
 369,21;  254,219;   32,419;  445,299;53,72028
 369,80;  276,932;   43,007;  526,947;48,33758
 370,39;  350,813;   62,006;  604,971;53,19071
 370,99;  371,750;   42,089;  615,416;57,49961
 371,58;  360,684;   22,974;  630,953;55,54639
 372,18;  411,072;   37,166;  701,603;56,27414
 372,77;  400,368;   42,449;  679,385;56,19383
 373,36;  427,431;   42,747;  690,836;59,35666
 373,96;  396,622;   35,135;  639,498;59,81280
 374,55;  376,973;   29,844;  621,406;58,68015
 375,14;  361,428;   42,849;  573,826;59,99869
 375,74;  363,641;   69,157;  543,276;62,11170
 376,33;  277,393;   45,964;  464,589;55,28326
 376,92;  272,720;   33,278;  447,997;57,73600
 377,52;  357,935;   86,103;  548,460;58,79267
 378,11;  283,496;   46,703;  457,203;57,68407
 378,71;  327,687;   73,011;  514,270;57,71583
 379,30;  354,602;   59,517;  553,928;59,68410
 379,89;  353,646;   59,813;  556,103;59,20584
 380,49;  372,441;   31,018;  568,185;63,55995
 381,08;  402,993;   70,306;  570,990;66,44640
 381,67;  396,091;   55,008;  555,483;68,15184
 382,26;  363,893;   41,706;  539,390;64,73716
 382,86;  360,255;   54,003;  516,041;66,28294
 383,45;  374,146;   50,412;  562,105;63,26720
 384,04;  398,167;   38,712;  553,886;69,77336
 384,64;  388,585;   49,014;  566,760;65,58641
 385,23;  407,772;   64,406;  560,509;69,21266
 385,82;  429,363;   59,615;  592,774;69,35047
 386,42;  478,375;   61,024;  659,022;69,79141
 387,01;  445,905;   55,414;  580,541;74,36131
 387,60;  465,230;   69,009;  590,140;76,03104
 388,20;  433,346;   37,712;  590,805;71,53116
 388,79;  506,261;   72,418;  665,563;73,14268
 389,38;  445,793;   32,106;  564,890;77,64619
 389,97;  512,383;   45,415;  640,955;78,41097
 390,57;  540,204;   71,114;  654,038;80,47192
 391,16;  541,804;   62,514;  655,838;80,78051
 391,75;  542,185;   52,713;  638,562;83,54920
 392,34;  569,018;   60,821;  696,694;79,92120
 392,94;  599,740;   44,718;  689,683;86,05470
 393,53;  585,023;   41,016;  666,612;86,95820
 394,12;  630,196;   53,023;  719,105;86,65190
 394,72;  652,625;   54,213;  706,122;91,79386
 395,31;  641,463;   42,115;  694,874;91,81774
 395,90;  659,715;   42,924;  732,881;89,39553
 396,49;  710,991;   58,028;  779,187;90,54356
 397,09;  691,542;   47,417;  749,188;91,78564
 397,68;  746,674;   44,025;  800,719;92,85779
 398,27;  765,232;   54,626;  809,652;94,11682
 398,86;  753,534;   43,125;  807,657;92,92073
 399,45;  815,329;   56,630;  844,037;96,35409
 400,05;  783,599;   23,820;  799,518;97,94782
 400,64;  824,320;   56,419;  831,001;99,13743
 401,23;  834,059;   53,920;  859,956;96,78709
 401,82;  872,659;   67,220;  868,256;100,54963
 402,42;  882,058;   62,921;  873,953;100,99930
 403,01;  916,374;   81,525;  912,919;100,41560
 403,60;  937,948;   68,532;  940,513;99,70583
 404,19;  953,395;   76,024;  931,900;102,51140
 404,78;  922,977;   57,522;  909,929;101,53069
 405,38; 1013,347;   68,332;  984,210;103,18130
 405,97;  994,753;   63,226;  953,933;104,58285
 406,56; 1043,211;   71,528; 1004,366;104,16419
 407,15; 1051,830;   68,829;  989,442;106,77681
 407,74; 1079,009;   80,730; 1026,758;105,52317
 408,34; 1063,127;   50,933; 1018,629;104,59829
 408,93; 1107,128;   59,531; 1016,234;109,50073
 409,52; 1127,584;   51,435; 1041,359;108,71023
 410,11; 1161,808;   84,931; 1090,453;107,09628
 410,70; 1138,452;   54,727; 1027,230;111,43664
 411,29; 1138,531;   58,628; 1030,847;111,07614
 411,89; 1209,404;   60,535; 1093,938;111,17338
 412,48; 1197,471;   48,228; 1051,606;114,53736
 413,07; 1234,006;   65,033; 1101,446;112,79030
 413,66; 1238,224;   78,135; 1102,119;113,29173
 414,25; 1265,322;   63,337; 1142,311;111,40073
 414,84; 1259,628;   69,431; 1102,434;115,21716
 415,44; 1282,829;   91,530; 1155,939;111,92117
 416,03; 1279,762;   76,637; 1161,173;110,93455
 416,62; 1332,541;   76,138; 1168,687;114,99738
 417,21; 1343,105;   75,334; 1158,843;117,00605
 417,80; 1351,962;   65,037; 1162,871;117,22403
 418,39; 1357,119;   78,440; 1179,201;116,16321
 418,98; 1320,046;   55,634; 1143,405;116,23875
 419,58; 1328,086;   64,033; 1142,067;117,25541
 420,17; 1329,404;   52,735; 1164,540;114,82849
 420,76; 1378,863;   72,537; 1192,873;116,60121
 421,35; 1351,044;   60,236; 1155,197;117,88613
 421,94; 1402,219;   88,340; 1223,501;115,74387
 422,53; 1374,499;   61,540; 1195,320;115,80370
 423,12; 1365,761;   64,039; 1190,766;115,53127
 423,71; 1365,004;   60,835; 1162,138;118,42054
 424,30; 1384,543;   85,236; 1210,695;115,44687
 424,90; 1356,921;   39,438; 1163,809;117,17519
 425,49; 1392,979;   70,140; 1216,242;115,42079
 426,08; 1422,880;   80,240; 1209,641;118,88062
 426,67; 1365,183;   57,436; 1168,257;117,72802
 427,26; 1410,417;   60,343; 1230,391;115,38619
 427,85; 1389,461;   63,238; 1209,968;115,65260
 428,44; 1392,717;   68,442; 1218,093;115,18930
 429,03; 1431,958;   85,341; 1233,155;117,32010
 429,62; 1398,918;   78,941; 1240,296;113,65838
 430,21; 1433,396;   81,443; 1277,807;113,00512
 430,80; 1411,314;   70,445; 1235,381;115,10242
 431,39; 1403,776;   53,344; 1246,926;113,14106
 431,99; 1393,904;   78,535; 1206,838;116,57941
 432,58; 1418,761;   82,639; 1251,166;114,34241
 433,17; 1388,124;   69,735; 1238,319;112,81938
 433,76; 1451,572;   71,347; 1288,314;113,41521
 434,35; 1413,434;   88,245; 1292,462;110,04576
 434,94; 1440,691;   70,849; 1318,887;109,75960
 435,53; 1438,036;   78,643; 1278,669;113,28030
 436,12; 1425,436;   70,044; 1294,267;110,71446
 436,71; 1434,779;   87,740; 1303,239;110,82189
 437,30; 1429,238;   76,941; 1299,177;110,64127
 437,89; 1452,195;   76,245; 1320,802;110,55736
 438,48; 1431,977;   65,942; 1305,731;110,18282
 439,07; 1442,781;   95,238; 1347,147;107,63907
 439,66; 1470,972;   83,648; 1375,711;107,37276
 440,25; 1483,236;   85,844; 1390,567;107,10258
 440,84; 1504,090;   79,850; 1387,984;108,87566
 441,43; 1503,765;   78,054; 1440,985;104,60622
 442,02; 1532,449;   79,650; 1411,022;109,12045
 442,61; 1543,976;   93,344; 1397,226;111,25479
 443,20; 1564,150;   94,249; 1446,625;108,69027
 443,79; 1547,433;   74,546; 1412,957;110,04748
 444,38; 1598,091;   84,248; 1461,789;109,89458
 444,97; 1598,534;   84,146; 1466,359;109,56253
 445,56; 1639,553;  101,846; 1477,038;111,81768
 446,15; 1668,528;   81,651; 1522,539;110,13192
 446,74; 1662,315;   58,644; 1462,286;114,25076
 447,33; 1721,033;   82,646; 1538,357;112,54896
 447,92; 1758,649;   78,151; 1570,720;112,59098
 448,51; 1801,574;   89,746; 1586,019;114,40612
 449,10; 1839,954;   92,045; 1608,840;115,23698
 449,69; 1899,029;   73,950; 1627,741;117,45974
 450,28; 1899,032;   66,948; 1608,251;118,86586
 450,87; 1970,952;   78,647; 1656,333;119,94184
 451,46; 2011,071;   96,048; 1702,208;119,22987
 452,05; 2042,090;   70,950; 1715,384;119,86735
 452,64; 2087,289;   70,850; 1725,182;121,88844
 453,23; 2192,128;  113,752; 1794,936;123,62571
 453,82; 2190,909;   83,451; 1800,660;122,72574
 454,40; 2232,189;   65,450; 1786,682;125,88305
 454,99; 2320,566;  101,253; 1871,891;125,33979
 455,58; 2325,193;   69,747; 1832,095;127,97961
 456,17; 2413,127;   63,852; 1873,634;129,80987
 456,76; 2440,649;   67,751; 1918,820;128,19067
 457,35; 2506,591;   78,348; 1930,490;131,10464
 457,94; 2551,926;   66,954; 1978,929;129,96887
 458,53; 2605,069;   67,350; 2010,101;130,62505
 459,12; 2723,223;   82,657; 2111,116;130,17595
 459,71; 2715,812;   58,148; 2060,071;132,75556
 460,30; 2757,872;   84,448; 2087,511;133,46677
 460,89; 2803,949;   57,551; 2129,920;132,52457
 461,48; 2832,926;   75,954; 2173,829;131,41737
 462,06; 2886,870;   68,050; 2187,303;133,01002
 462,65; 2874,851;   48,249; 2176,527;132,81166
 463,24; 3042,364;   87,456; 2288,680;134,23928
 463,83; 3020,070;   54,450; 2229,803;136,32817
 464,42; 3089,991;   88,349; 2333,687;133,68329
 465,01; 3110,289;   73,050; 2336,482;134,18735
 465,60; 3130,649;   64,050; 2384,322;132,16550
 466,19; 3191,526;   73,354; 2462,829;130,49612
 466,77; 3186,529;   81,551; 2462,939;130,38522
 467,36; 3265,483;   69,457; 2459,256;133,73615
 467,95; 3236,868;   79,551; 2466,098;132,29645
 468,54; 3280,985;   71,954; 2513,866;131,41468
 469,13; 3294,488;   69,452; 2535,977;130,75222
 469,72; 3325,625;   67,555; 2582,723;129,53683
 470,31; 3355,304;   87,855; 2629,242;128,56951
 470,90; 3332,630;   76,750; 2652,044;126,42750
 471,48; 3357,363;   32,057; 2671,875;125,96722
 472,07; 3398,232;  125,747; 2686,454;127,79616
 472,66; 3396,347;   67,853; 2748,412;124,17162
 473,25; 3419,229;   68,351; 2723,339;126,21065
 473,84; 3400,105;   55,955; 2766,545;123,37351
 474,43; 3392,981;   55,459; 2843,049;119,72786
 475,01; 3430,225;   69,254; 2885,926;119,32420
 475,60; 3413,885;   49,755; 2882,364;118,76435
 476,19; 3477,502;   74,158; 2956,932;118,05793
 476,78; 3456,783;   71,057; 2964,456;117,01550
 477,37; 3449,685;   59,355; 2945,364;117,47468
 477,95; 3497,384;   75,656; 3018,661;116,26645
 478,54; 3485,966;   63,253; 3023,691;115,61511
 479,13; 3496,966;   56,253; 3070,291;114,15629
 479,72; 3551,906;   81,154; 3090,147;115,34593
 480,31; 3568,061;   63,459; 3167,468;112,90566
 480,89; 3560,325;   60,254; 3171,026;112,51455
 481,48; 3578,240;   46,260; 3214,084;111,49544
 482,07; 3603,185;   61,654; 3233,866;111,64231
 482,66; 3638,106;   52,853; 3253,650;112,01126
 483,25; 3729,140;   78,960; 3319,884;112,62775
 483,83; 3744,165;   59,954; 3325,385;112,82463
 484,42; 3812,126;   54,354; 3355,129;113,84515
 485,01; 3863,622;   65,958; 3400,413;113,89158
 485,60; 3923,816;   73,764; 3490,590;112,67919
 486,18; 3944,484;   66,956; 3490,761;113,25200
 486,77; 4014,028;   67,252; 3519,736;114,31698
 487,36; 4115,456;   58,464; 3561,750;115,80533
 487,95; 4139,539;   59,161; 3640,781;113,92547
 488,53; 4115,799;   54,461; 3642,522;113,19031
 489,12; 4210,856;   50,563; 3722,252;113,30734
 489,71; 4243,658;   38,062; 3680,357;115,46553
 490,30; 4277,020;   61,460; 3742,503;114,52079
 490,88; 4346,779;   87,561; 3859,141;112,92927
 491,47; 4364,796;   60,663; 3867,512;113,06289
 492,06; 4376,897;   62,563; 3920,615;111,82676
 492,65; 4371,659;   59,161; 3947,060;110,92103
 493,23; 4421,600;   54,860; 3982,825;111,17054
 493,82; 4465,227;   65,853; 4018,031;111,31517
 494,41; 4457,838;   51,361; 4066,179;109,75535
 494,99; 4469,105;   73,655; 4126,945;108,44154
 495,58; 4526,520;   86,060; 4224,403;107,30042
 496,17; 4479,564;   56,356; 4198,681;106,78081
 496,76; 4528,884;   65,356; 4276,761;105,98667
 497,34; 4529,802;   54,557; 4305,235;105,28310
 497,93; 4495,462;   66,057; 4350,675;103,37923
 498,52; 4546,240;   60,059; 4454,387;102,09027
 499,10; 4557,298;   75,862; 4533,217;100,54025
 499,69; 4565,420;   55,360; 4537,006;100,63401
 500,28; 4520,261;   37,959; 4592,068;98,42325
 500,86; 4502,678;   62,862; 4698,539;95,77494
 501,45; 4542,878;   53,462; 4730,438;95,98971
 502,04; 4539,058;   53,362; 4813,958;94,22552
 502,62; 4529,864;   70,956; 4856,181;93,18074
 503,21; 4473,244;   57,856; 4939,699;90,44509
 503,80; 4502,738;   69,662; 5015,577;89,63106
 504,38; 4495,600;   58,460; 5081,425;88,33706
 504,97; 4473,738;   49,962; 5122,776;87,20555
 505,56; 4473,541;   70,859; 5194,989;85,92057
 506,14; 4449,096;   64,064; 5263,709;84,33328
 506,73; 4406,695;   23,565; 5292,507;83,18806
 507,32; 4418,555;   62,865; 5376,045;81,97896
 507,90; 4411,839;   70,860; 5443,284;80,80113
 508,49; 4407,035;   58,865; 5500,366;79,90755
 509,08; 4358,376;   67,264; 5571,931;77,95407
 509,66; 4372,479;   69,960; 5677,644;76,72543
 510,25; 4367,019;   63,561; 5737,400;75,84736
 510,83; 4336,395;   45,165; 5855,607;73,85376
 511,42; 4376,572;   61,968; 5895,913;73,95688
 512,01; 4372,675;   59,164; 5980,328;72,84904
 512,59; 4371,938;   46,562; 6041,676;72,14834
 513,18; 4362,838;   59,961; 6114,379;71,07004
 513,77; 4360,443;   42,257; 6171,797;70,44878
 514,35; 4416,357;   37,763; 6190,255;71,16782
 514,94; 4432,298;   58,662; 6323,517;69,81224
 515,52; 4453,354;   48,166; 6358,342;69,81086
 516,11; 4529,055;   80,665; 6474,047;69,57804
 516,69; 4476,101;   41,959; 6446,727;69,23188
 517,28; 4577,962;   83,358; 6541,973;69,59084
 517,87; 4578,282;   45,558; 6604,054;69,11226
 518,45; 4676,742;   74,858; 6626,192;70,24346
 519,04; 4681,761;   54,258; 6707,970;69,54769
 519,62; 4746,097;   55,863; 6774,114;69,81332
 520,21; 4847,594;   24,466; 6828,002;70,89149
 520,79; 4998,912;   52,068; 7000,875;71,18983
 521,38; 5063,559;   52,960; 6995,363;72,17384
 521,97; 5198,632;   43,068; 7141,554;72,62906
 522,55; 5312,901;   67,759; 7195,230;73,59051
 523,14; 5421,041;   26,759; 7180,289;75,40727
 523,72; 5596,599;   77,561; 7383,422;75,54261
 524,31; 5688,795;   71,665; 7406,107;76,58565
 524,89; 5857,272;   48,468; 7526,815;77,67498
 525,48; 5944,914;   21,666; 7603,580;78,12338
 526,06; 6066,275;   56,264; 7633,128;79,32056
 526,65; 6264,570;   72,370; 7803,105;80,09846
 527,23; 6313,317;   46,262; 7840,596;80,40527
 527,82; 6496,713;   37,967; 7905,978;82,08868
 528,41; 6611,773;   67,366; 8041,021;82,07538
 528,99; 6693,835;   66,365; 8108,167;82,41275
 529,58; 6737,377;   42,562; 8168,736;82,38583
 530,16; 6899,738;   49,461; 8315,379;82,87376
 530,75; 7070,236;   73,964; 8417,069;83,85693
 531,33; 7076,613;   45,566; 8440,980;83,74866
 531,92; 7188,379;   48,560; 8567,344;83,81266
 532,50; 7355,510;   87,770; 8706,468;84,32527
 533,09; 7396,395;   65,665; 8807,204;83,86086
 533,67; 7459,021;   63,458; 8952,011;83,20323
 534,26; 7585,560;   65,760; 9007,665;84,09617
 534,84; 7667,659;   68,461; 9127,061;83,88932
 535,42; 7760,036;   61,564; 9205,969;84,18778
 536,01; 7861,097;   79,263; 9330,215;84,11928
 536,59; 7927,094;   43,366; 9482,202;83,52436
 537,18; 8014,720;   77,360; 9568,605;83,62823
 537,76; 8143,568;   56,972; 9764,700;83,30061
 538,35; 8228,092;   59,368; 9892,694;83,07183
 538,93; 8269,775;   72,664; 9941,828;83,05781
 539,52; 8373,869;   57,370;10111,405;82,71802
 540,10; 8492,450;   63,269;10309,029;82,26994
 540,69; 8517,137;   68,763;10444,071;81,42769
 541,27; 8610,498;   58,262;10514,917;81,78749
 541,85; 8774,814;   47,366;10658,783;82,24583
 542,44; 8772,840;   56,460;10765,484;81,39285
 543,02; 8923,650;   80,369;10952,729;81,33727
 543,61; 9004,772;   77,067;11102,218;80,97581
 544,19; 9107,374;   55,066;11264,023;80,75959
 544,78; 9136,533;   62,766;11296,562;80,77205
 545,36; 9235,171;   77,469;11521,011;80,02507
 545,94; 9281,036;   54,564;11563,069;80,17090
 546,53; 9355,688;   52,771;11724,882;79,70210
 547,11; 9495,012;   90,668;11879,873;79,77080
 547,70; 9486,920;   75,860;11954,706;79,22537
 548,28; 9562,235;   47,965;12093,066;78,98871
 548,86; 9699,835;   81,365;12327,767;78,54119
 549,45; 9734,132;   33,768;12364,953;78,66530
 550,03; 9860,453;   76,467;12507,537;78,70590
 550,62; 9953,854;   63,566;12662,842;78,49886
 551,20;10147,973;   61,467;12808,418;79,12877
 551,78;10152,756;   61,164;12952,850;78,27985
 552,37;10292,636;   55,864;13112,469;78,40301
 552,95;10327,255;   56,765;13214,547;78,05639
 553,54;10479,095;   49,965;13393,207;78,16039
 554,12;10608,393;   67,167;13498,797;78,48061
 554,70;10812,012;   67,568;13736,973;78,60213
 555,29;10772,715;   61,965;13856,285;77,64609
 555,87;10913,290;   60,170;13987,786;77,92518
 556,45;11038,458;   57,162;14154,058;77,89868
 557,04;11144,193;   43,667;14376,600;77,44770
 557,62;11210,693;   68,867;14525,499;77,07069
 558,20;11369,929;   42,671;14799,940;76,75714
 558,79;11541,912;  100,368;14905,875;77,27898
 559,37;11518,772;   49,867;15000,418;76,71226
 559,95;11768,091;   46,669;15169,691;77,50714
 560,54;11823,172;   71,768;15324,613;77,04401
 561,12;11949,233;   50,866;15485,562;77,08845
 561,70;12019,831;   50,369;15679,551;76,58406
 562,29;12253,392;   61,768;15810,994;77,41094
 562,87;12322,031;   73,168;16023,953;76,79160
 563,45;12447,432;   71,068;16194,754;76,75890
 564,04;12507,417;   54,362;16227,195;76,99983
 564,62;12610,951;   37,769;16438,332;76,66311
 565,20;12762,078;   59,962;16715,838;76,26207
 565,78;12901,375;   70,765;16797,326;76,70800
 566,37;12971,714;   71,066;17011,283;76,15397
 566,95;13006,251;   52,969;17124,330;75,87727
 567,53;13096,857;   67,262;17308,857;75,57071
 568,12;13212,635;   62,265;17367,766;75,98954
 568,70;13391,516;   85,264;17565,889;76,12000
 569,28;13438,331;   61,069;17745,252;75,64535
 569,86;13506,733;   67,767;17910,758;75,31790
 570,45;13674,091;   78,569;18124,689;75,33764
 571,03;13757,818;   53,962;18259,898;75,27136
 571,61;13810,050;   46,571;18424,824;74,89003
 572,19;13873,937;   54,263;18395,773;75,34643
 572,78;14061,412;   70,668;18668,975;75,22590
 573,36;14129,036;   84,264;18797,668;75,05194
 573,94;14112,956;   44,064;18892,750;74,64124
 574,52;14241,961;   54,559;19030,768;74,76415
 575,11;14268,276;   37,264;19159,830;74,41999
 575,69;14466,014;   53,566;19268,680;75,00579
 576,27;14480,739;   47,161;19391,381;74,61442
 576,85;14567,836;   43,264;19549,668;74,46053
 577,44;14704,857;   30,262;19814,158;74,17445
 578,02;14739,940;   32,159;19753,887;74,57654
 578,60;14886,616;   50,464;20073,791;74,09434
 579,18;15028,257;   51,963;20160,752;74,47636
 579,76;15035,476;   40,264;20300,129;74,01437
 580,35;15202,971;   60,170;20436,707;74,31489
 580,93;15363,732;   59,667;20641,557;74,35695
 581,51;15416,110;   24,770;20697,168;74,45358
 582,09;15505,857;   58,663;20755,756;74,63461
 582,67;15640,473;   49,567;20971,318;74,52008
 583,26;15766,472;   28,568;21227,014;74,24084
 583,84;15827,496;   14,164;21413,709;73,89565
 584,42;15973,615;   48,064;21513,287;74,19234
 585,00;16102,214;   81,366;21772,180;73,86006
 585,58;16197,093;   25,167;21912,299;73,88783
 586,17;16314,999;   46,761;21948,521;74,27822
 586,75;16307,394;    6,666;22026,902;74,02612
 587,33;16495,912;   47,767;22191,678;74,27841
 587,91;16542,693;   74,866;22390,201;73,79601
 588,49;16519,357;   63,962;22349,758;73,83804
 589,07;16524,473;   45,468;22403,215;73,70602
 589,65;16504,652;   28,267;22444,439;73,50222
 590,24;16529,617;   42,562;22447,799;73,58572
 590,82;16523,059;   28,261;22484,160;73,45418
 591,40;16491,795;   41,464;22520,209;73,18171
 591,98;16505,900;   45,759;22558,227;73,11567
 592,56;16558,959;   61,161;22699,961;72,87400
 593,14;16435,500;   43,359;22728,928;72,25801
 593,72;16494,096;   29,765;22889,107;72,02452
 594,30;16363,740;   36,759;22797,486;71,73313
 594,89;16275,775;   41,364;22862,428;71,13784
 595,47;16353,199;   38,961;22922,623;71,29208
 596,05;16288,894;   30,267;23003,799;70,77112
 596,63;16207,093;   31,167;23056,199;70,25365
 597,21;16264,154;   36,766;23145,441;70,22206
 597,79;16078,153;   35,467;23166,039;69,35707
 598,37;15938,931;   36,669;23222,748;68,58538
 598,95;15857,193;   50,766;23305,301;67,97138
 599,53;15677,843;   46,757;23207,996;67,48812
 600,11;15664,556;   48,665;23341,947;67,04032
 600,70;15421,996;   57,363;23315,111;66,06243
 601,28;15230,096;   38,564;23424,809;64,95926
 601,86;15144,294;   61,766;23355,102;64,75040
 602,44;15018,259;   23,661;23449,660;64,00836
 603,02;14992,924;   38,656;23576,521;63,53281
 603,60;14981,602;   54,858;23663,232;63,22648
 604,18;14896,877;   69,263;23594,734;63,02791
 604,76;14773,058;   59,263;23642,154;62,39182
 605,34;14615,034;   27,565;23530,764;62,06589
 605,92;14664,799;   59,561;23453,719;62,43113
 606,50;14714,418;   17,662;23498,998;62,58910
 607,08;14626,113;   31,666;23394,881;62,46763
 607,66;14791,054;   39,266;23561,643;62,71385
 608,24;14774,433;   46,067;23522,059;62,73799
 608,82;14833,776;   26,164;23532,031;62,99539
 609,40;14889,573;   46,466;23471,021;63,36559
 609,98;14928,376;   18,864;23505,928;63,47968
 610,56;15032,759;   43,861;23497,662;63,90818
 611,14;15016,215;   30,765;23481,086;63,90296
 611,72;15136,735;   42,665;23572,467;64,14874
 612,30;15067,018;   24,962;23468,496;64,16292
 612,88;15114,001;   60,659;23517,730;64,17400
 613,46;15014,818;   21,862;23505,697;63,84373
 614,04;15152,712;   30,068;23461,873;64,53896
 614,62;15083,239;   41,561;23489,982;64,14794
 615,20;15059,672;   52,768;23402,416;64,27037
 615,78;14930,150;   25,569;23463,430;63,59190
 616,36;14912,756;   41,364;23400,150;63,66509
 616,94;14813,354;    7,666;23272,242;63,64048
 617,52;14618,032;   24,067;23373,656;62,50202
 618,10;14593,421;   63,559;23336,107;62,43348
 618,68;14412,014;   17,966;23253,184;61,94927
 619,26;14302,452;   39,268;23398,834;61,05929
 619,84;14123,577;   18,963;23277,133;60,64370
 620,42;13945,795;   31,165;23313,506;59,76474
 621,00;13773,195;   28,865;23209,607;59,29202
 621,58;13592,120;   38,760;23216,406;58,47600
 622,16;13486,609;   49,270;23335,164;57,70592
 622,74;13402,554;   47,066;23327,742;57,36727
 623,32;13226,074;   42,166;23291,223;56,70728
 623,90;13157,689;   66,971;23311,484;56,31746
 624,48;13049,218;   32,662;23196,598;56,19320
 625,05;12918,718;   34,562;23105,098;55,84680
 625,63;12894,118;   52,962;23188,799;55,50331
 626,21;12907,417;   38,262;23117,596;55,76051
 626,79;12973,272;   53,967;23219,719;55,76899
 627,37;12820,298;   28,162;23090,717;55,46712
 627,95;12923,672;   72,768;23200,215;55,56560
 628,53;12884,095;   49,365;23176,607;55,49615
 629,11;12756,181;   48,259;23043,449;55,26339
 629,69;12832,451;   53,369;23256,932;55,07379
 630,27;12819,177;   80,763;23105,434;55,32506
 630,84;12710,118;   43,862;23021,197;55,12500
 631,42;12835,832;   54,367;23319,656;54,93791
 632,00;12766,561;   45,459;23125,768;55,11669
 632,58;12701,137;   50,263;23105,172;54,87280
 633,16;12720,069;   49,870;23096,906;54,97539
 633,74;12640,915;   56,264;23018,488;54,80589
 634,32;12571,079;   45,661;23007,842;54,54803
 634,90;12647,630;   51,970;23195,746;54,42353
 635,47;12457,979;   38,860;23035,645;54,00372
 636,05;12383,379;   37,461;22989,342;53,79044
 636,63;12358,495;   45,965;23104,807;53,39614
 637,21;12432,676;   67,464;23150,529;53,56833
 637,79;12434,494;   71,465;23192,904;53,46998
 638,37;12283,564;   54,055;23070,883;53,13291
 638,94;12273,614;   33,265;23100,686;53,06336
 639,52;12156,215;   41,665;23195,285;52,32249
 640,10;12232,590;   64,264;23215,900;52,55925
 640,68;12186,079;   54,164;23175,334;52,47103
 641,26;12080,568;   35,864;23250,268;51,88462
 641,84;12054,757;   39,164;23235,002;51,80064
 642,41;11998,146;   28,264;23192,936;51,67301
 642,99;12019,135;   48,464;23145,568;51,82758
 643,57;11917,324;   22,064;23158,402;51,41375
 644,15;11913,413;   27,064;23178,035;51,34277
 644,73;11941,902;   37,564;23277,568;51,22348
 645,30;11968,591;   55,264;23230,303;51,40585
 645,88;11843,780;   44,964;23362,635;50,60032
 646,46;11914,270;   59,264;23447,568;50,68775
 647,04;11844,658;   51,864;23367,902;50,57804
 647,61;11789,047;   46,564;23396,336;50,28950
 648,19;11724,437;   61,664;23433,369;49,90125
 648,77;11770,325;   26,264;23442,002;50,15456
 649,35;11802,015;   51,064;23590,137;49,92104
 649,92;11731,503;   42,464;23596,070;49,62738
 650,50;11694,292;   30,064;23551,104;49,59061
 651,08;11643,081;   39,964;23450,537;49,56357
 651,66;11677,771;   21,864;23534,770;49,57238
 652,23;11602,159;   39,064;23561,004;49,15876
 652,81;11617,849;   36,464;23644,137;49,05771
 653,39;11589,037;   56,164;23647,170;48,88674
 653,97;11609,927;   37,065;23882,504;48,53281
 654,54;11586,415;   23,565;23823,137;48,58428
 655,12;11597,404;   30,965;23831,971;48,59643
 655,70;11686,394;   42,065;23962,805;48,67880
 656,28;11657,482;   32,765;23947,037;48,60996
 656,85;11630,871;   44,065;24051,070;48,26427
 657,43;11621,061;   -1,035;23831,305;48,76607
 658,01;11674,249;   21,465;24078,539;48,43808
 658,58;11787,438;   55,165;24234,371;48,52216
 659,16;11782,127;   51,965;24154,105;48,66855
 659,74;11835,316;   59,465;24338,039;48,50306
 660,32;11945,405;   71,665;24327,672;48,95175
 660,89;12021,994;   34,265;24347,305;49,30576
 661,47;12077,983;   51,665;24464,939;49,26139
 662,05;12183,772;   25,365;24587,373;49,50087
 662,62;12291,161;   59,665;24584,006;49,87492
 663,20;12308,351;   80,665;24740,139;49,58616
 663,78;12504,539;   47,965;24902,773;50,11736
 664,35;12536,028;   52,465;24921,006;50,19821
 664,93;12611,718;   64,465;25123,539;50,07070
 665,51;12721,307;   49,565;25170,973;50,44200
 666,08;12768,296;   30,165;25185,707;50,63747
 666,66;12971,284;   47,465;25667,539;50,44411
 667,23;13011,573;   51,765;25732,773;50,46456
 667,81;13168,063;   65,865;25889,307;50,73761
 668,39;13122,852;   43,265;26047,141;50,29860
 668,96;13297,141;   54,665;26309,074;50,43905
 669,54;13338,830;   38,765;26408,408;50,43703
 670,12;13622,318;   51,165;26808,740;50,71892
 670,69;13740,308;   64,165;26950,674;50,86619
 671,27;13776,997;   25,565;27096,008;50,79870
 671,84;13878,586;   40,665;27105,240;51,12927
 672,42;13954,675;   66,265;27253,875;51,08360
 673,00;14004,864;   57,165;27531,408;50,76645
 673,57;14037,652;   59,965;27276,441;51,35745
 674,15;14190,142;   64,065;27613,475;51,27542
 674,72;14194,531;   58,565;27536,209;51,44534
 675,30;14168,420;   69,466;27513,541;51,37340
 675,88;14242,108;   36,266;27573,176;51,58837
 676,45;14276,397;   59,466;27677,309;51,47734
 677,03;14262,387;   67,866;27525,043;51,69694
 677,60;14312,776;   41,466;27770,576;51,46689
 678,18;14525,265;   59,466;27877,510;52,00150
 678,76;14531,854;   40,766;27809,143;52,18558
 679,33;14633,043;   57,666;27813,176;52,51345
 679,91;14607,832;   44,266;27813,311;52,44533
 680,48;14615,421;   28,766;27740,242;52,63760
 681,06;14696,710;   50,866;27735,176;52,90305
 681,63;14671,399;   37,566;27736,209;52,83231
 682,21;14770,688;   67,966;27797,543;53,02181
 682,78;14687,477;   20,566;27459,576;53,45277
 683,36;14750,866;   46,966;27565,510;53,43270
 683,93;14705,955;   30,466;27450,645;53,52076
 684,51;14702,744;   26,166;27477,277;53,46442
 685,08;14856,133;   38,966;27733,711;53,50173
 685,66;14942,122;   53,066;27694,045;53,86588
 686,24;14884,411;   33,766;27796,578;53,49114
 686,81;14973,700;   57,666;27899,910;53,57339
 687,39;14998,189;   38,866;27807,844;53,87063
 687,96;15057,979;   54,166;27850,479;53,97771
 688,54;15221,867;   30,866;27984,811;54,34296
 689,11;15257,656;   26,966;28043,545;54,36313
 689,69;15240,245;   29,666;28019,279;54,34366
 690,26;15456,634;   59,466;28289,313;54,54216
 690,84;15623,724;   50,066;28239,846;55,24576
 691,41;15739,813;   35,966;28403,879;55,35778
 691,98;15886,302;   31,466;28427,912;55,83387
 692,56;16086,290;   32,866;28437,445;56,51703
 693,13;16289,379;   64,866;28655,080;56,74848
 693,71;16491,168;   24,466;28657,912;57,50863
 694,28;16608,957;   41,966;28715,945;57,77709
 694,86;16898,547;   47,266;28928,879;58,34605
 695,43;17064,336;   61,366;29100,912;58,55109
 696,01;17339,523;   36,266;29145,547;59,44241
 696,58;17414,813;   42,167;29083,879;59,81963
 697,16;17669,902;   38,067;29126,414;60,61477
 697,73;18001,992;   63,467;29338,246;61,27638
 698,30;18021,980;   51,867;29223,980;61,60031
 698,88;18173,170;   40,467;29558,613;61,42900
 699,45;18346,559;   35,367;29765,848;61,59063
 700,03;18558,348;   56,067;29750,980;62,30791
 700,60;18531,936;   56,267;29850,613;62,01065
 701,18;18693,625;   61,867;29963,947;62,30924
 701,75;18856,014;   74,367;30094,682;62,56312
 702,32;18769,504;   50,367;29901,914;62,70743
 702,90;18936,893;   52,467;30254,148;62,52773
 703,47;19083,482;   51,367;30428,881;62,65199
 704,05;19212,471;   67,767;30546,715;62,81288
 704,62;19347,459;   39,867;30587,848;63,20415
 705,19;19425,449;   43,667;30586,982;63,45671
 705,77;19440,338;   29,967;30618,314;63,45675
 706,34;19679,727;   61,667;30627,049;64,18392
 706,91;19735,215;   46,367;30673,883;64,28483
 707,49;19919,605;   57,267;30976,316;64,23981
 708,06;20161,494;   66,367;31089,049;64,77560
 708,64;20244,582;   25,767;31093,582;65,07962
 709,21;20401,172;   58,167;31179,316;65,36714
 709,78;20664,160;   41,367;31281,150;66,01452
 710,36;20862,949;   61,667;31419,684;66,33481
 710,93;20998,338;   50,567;31562,416;66,47585
 711,50;21203,527;   44,467;31506,049;67,25364
 712,08;21512,518;   76,567;31925,383;67,30533
 712,65;21563,006;   73,667;31775,916;67,78490
 713,22;21657,096;   69,067;31900,250;67,82038
 713,80;21939,684;   84,167;31966,883;68,54973
 714,37;21827,172;   55,767;31827,018;68,52549
 714,94;21977,961;   53,967;31727,551;69,21854
 715,52;22135,150;   47,867;31732,984;69,70870
 716,09;22173,840;   65,467;31891,918;69,46540
 716,66;22216,828;   73,467;31935,051;69,49862
 717,23;22157,117;   66,867;31908,484;69,37540
 717,81;22173,207;   50,168;31812,018;69,65287
 718,38;22171,195;   47,468;31671,252;69,95914
 718,95;22219,484;   59,068;31618,984;70,21697
 719,53;22201,873;   56,568;31661,418;70,06933
 720,10;22101,063;   59,968;31481,252;70,14702
 720,67;22100,252;   35,768;31355,984;70,44806
 721,24;21997,941;   59,468;31256,020;70,32339
 721,82;21883,029;   49,968;31236,053;70,00899
 722,39;22138,420;   64,068;31235,885;70,81510
 722,96;22022,809;   64,968;31261,420;70,38570
 723,53;21907,297;   88,268;31151,953;70,23967
 724,11;22244,387;   61,568;31207,486;71,22223
 724,68;22281,475;   71,568;31242,020;71,25308
 725,25;22355,064;   72,768;31399,953;71,12767
 725,82;22513,652;   96,068;31564,387;71,23858
 726,40;22500,941;   62,668;31714,820;70,89020
 726,97;22625,230;   62,168;31875,354;70,92362
 727,54;22778,420;   46,968;31801,486;71,58494
 728,11;23014,109;   49,568;32045,820;71,77260
 728,69;23074,998;   39,568;31938,953;72,21277
 729,26;23267,688;   53,568;32105,088;72,42752
 729,83;23313,877;   53,268;32264,621;72,21246
 730,40;23503,365;   66,768;32291,754;72,72803
 730,97;23651,254;   44,268;32590,588;72,53350
 731,55;23854,344;   41,468;32755,820;72,79030
 732,12;23945,332;   86,268;32841,656;72,84012
 732,69;23981,422;   66,968;32889,988;72,85879
 733,26;24016,811;   55,168;32930,520;72,88635
 733,83;24218,600;   41,168;32979,055;73,40310
 734,41;24002,188;   65,468;32991,590;72,69827
 734,98;24214,277;   51,368;33155,621;72,99035
 735,55;24345,666;   43,168;33183,656;73,33174
 736,12;24363,756;   65,968;33377,289;72,94153
 736,69;24576,945;   76,968;33377,922;73,57140
 737,26;24546,934;   57,468;33552,254;73,11426
 737,84;24474,322;   70,768;33487,188;73,02863
 738,41;24460,512;   63,168;33492,422;72,98202
 738,98;24415,801;   63,569;33375,055;73,10461
 739,55;24447,789;   49,669;33377,789;73,20581
 740,12;24522,678;   62,969;33678,023;72,76415
 740,69;24440,967;   70,569;33575,656;72,73641
 741,26;24553,457;   56,269;33557,391;73,12349
 741,83;24541,246;   53,869;33719,523;72,73697
 742,41;24561,434;   56,169;33833,055;72,55040
 742,98;24808,324;   91,469;33874,590;73,16333
 743,55;24804,012;   53,569;33836,824;73,26246
 744,12;24709,201;   50,469;33859,855;72,93457
 744,69;24798,590;   59,569;33848,492;73,21636
 745,26;24786,680;   42,169;33677,723;73,56653
 745,83;24873,668;   58,769;33854,355;73,42645
 746,40;24831,158;   57,969;33844,789;73,32205
 746,97;24968,746;   44,769;33828,125;73,77591
 747,55;25106,736;   62,269;33966,957;73,86727
 748,12;25095,625;   57,869;33910,191;73,96171
 748,69;25036,613;   68,769;33877,625;73,85001
 749,26;25199,203;   65,069;33958,559;74,15623
 749,83;25153,691;   42,569;33911,992;74,14098
 750,40;25119,881;   89,669;34158,824;73,46884
 750,97;25208,770;   96,269;34144,160;73,75641
 751,54;25223,158;   40,569;33980,793;74,19689
 752,11;25078,047;   52,969;33874,727;73,99106
 752,68;25109,637;   87,869;33912,859;73,97420
 753,25;24917,326;   60,269;33774,594;73,72847
 753,82;24801,914;   65,069;33810,527;73,30422
 754,39;24932,305;   75,169;33727,160;73,86527
 754,96;24981,094;   60,069;33616,395;74,26625
 755,53;25064,383;   29,469;33796,527;74,14005
 756,10;24782,172;   64,169;33720,961;73,44135
 756,67;24877,660;   73,369;33813,395;73,51592
 757,24;24764,248;   72,769;33740,426;73,33887
 757,81;24737,338;   16,469;33677,762;73,44005
 758,38;24724,826;   54,569;33822,695;73,05782
 758,95;24857,217;   79,469;33743,426;73,60319
 759,52;24779,205;   57,469;33615,859;73,66782
 760,09;24730,094;   68,570;33306,992;74,19583
 760,66;24419,383;   59,570;33309,727;73,26225
 761,23;24547,672;   91,070;33353,961;73,52518
 761,80;24378,361;   56,270;33295,793;73,17220
 762,37;24485,650;   68,970;33167,727;73,76918
 762,94;24452,139;   70,970;33187,461;73,62244
 763,51;24279,328;   36,070;32949,793;73,65699
 764,08;24311,117;   66,270;32998,527;73,62036
 764,65;24166,707;   69,570;32798,961;73,62538
 765,22;24234,695;   54,670;32804,496;73,83253
 765,79;24193,885;   77,370;32691,928;73,94402
 766,36;24449,473;   73,170;32743,063;74,61397
 766,93;24339,563;   68,970;32551,295;74,71938
 767,50;24445,352;   89,470;32828,328;74,39441
 768,07;24357,340;   63,870;32699,262;74,43903
 768,64;24216,229;   86,470;32572,596;74,27712
 769,21;24098,018;   57,970;32359,729;74,42334
 769,78;23867,207;   78,770;32244,963;73,95478
 770,34;23837,996;   45,570;32031,195;74,38475
 770,91;23818,686;   58,470;31921,430;74,57002
 771,48;23703,975;   62,370;31836,863;74,40435
 772,05;23682,764;   66,470;31610,697;74,86724
 772,62;23423,453;   42,670;31443,029;74,46024
 773,19;23415,641;   59,370;31579,764;74,09892
 773,76;23417,631;   71,070;31506,297;74,26878
 774,33;23164,719;   74,170;31447,330;73,59969
 774,90;23017,408;   52,870;31206,064;73,71487
 775,47;22915,697;   59,970;30957,498;73,97267
 776,03;22892,287;   73,470;30984,330;73,82136
 776,60;22755,875;   55,970;30757,863;73,93650
 777,17;22713,664;   65,470;30698,098;73,93487
 777,74;22519,754;   30,870;30522,031;73,75542
 778,31;22510,643;   68,970;30582,064;73,54768
 778,88;22366,531;   30,470;30366,898;73,62785
 779,45;22259,521;   75,770;30358,131;73,25635
 780,01;22263,010;   58,370;30299,664;73,42490
 780,58;22216,699;   60,570;30177,998;73,56581
 781,15;22020,787;   38,771;29979,432;73,41861
 781,72;22031,477;   66,771;29962,266;73,47162
 782,29;21908,965;   51,771;29667,100;73,80365
 782,86;21758,555;   55,571;29617,732;73,41474
 783,42;21757,145;   56,171;29598,166;73,45805
 783,99;21712,732;   66,671;29482,100;73,58744
 784,56;21698,621;   55,171;29320,232;73,95662
 785,13;21530,711;   40,271;29247,266;73,57977
 785,70;21512,500;   49,071;29060,299;73,98318
 786,26;21393,988;   51,671;28910,732;73,95361
 786,83;21347,678;   84,371;28889,166;73,81864
 787,40;21319,268;   57,171;28783,500;74,01606
 787,97;21265,256;   43,971;28581,133;74,36368
 788,54;21164,445;   70,371;28515,268;74,15768
 789,10;20981,834;   57,971;28344,400;73,97138
 789,67;20884,422;   70,371;28245,334;73,87428
 790,24;20863,813;   51,071;28193,768;73,95433
 790,81;20646,400;   88,271;27914,400;73,88066
 791,37;20477,590;   73,671;27872,135;73,39945
 791,94;20466,379;   70,771;27886,367;73,32436
 792,51;20291,469;   46,271;27539,201;73,63783
 793,08;20187,357;   69,771;27555,234;73,19355
 793,64;19910,346;   71,271;27455,168;72,44796
 794,21;19887,035;   69,671;27250,602;72,90907
 794,78;19713,324;   53,071;27147,035;72,56322
 795,35;19679,912;   73,471;27007,969;72,79304
 795,91;19547,102;   48,071;26789,301;72,91748
 796,48;19446,291;   55,771;26710,734;72,74638
 797,05;19365,279;   57,671;26624,369;72,67598
 797,62;19316,670;   41,971;26600,701;72,57387
 798,18;19125,959;   57,471;26410,736;72,35721
 798,75;19083,447;   56,571;26279,770;72,55742
 799,32;19079,137;   60,771;26209,102;72,73262
 799,88;18971,824;   55,971;26051,535;72,76570
 800,45;18721,014;   33,971;25945,270;72,11928
 801,02;18799,803;   65,271;25880,104;72,57274
 801,58;18810,293;   90,872;25660,436;73,20978
 802,15;18687,182;   72,872;25615,270;72,87613
 802,72;18511,871;   66,172;25404,703;72,79703
 803,28;18559,959;   49,172;25288,938;73,33977
 803,85;18358,848;   41,972;25144,871;72,96717
 804,42;18288,537;   77,772;24948,004;73,22314
 804,98;18226,727;  100,672;24935,537;72,98632
 805,55;18090,516;   56,972;24702,371;73,17205
 806,12;17944,404;   83,572;24611,004;72,81982
 806,68;17758,893;   66,472;24493,738;72,42898
 807,25;17590,783;   74,972;24436,271;71,90015
 807,82;17629,271;   86,872;24407,805;72,12881
 808,38;17407,061;   73,672;24367,037;71,35030
 808,95;17277,250;   62,972;24166,971;71,41669
 809,52;17073,338;   50,272;24162,004;70,60076
 810,08;17004,428;   55,172;23994,938;70,79959
 810,65;17115,416;   77,172;24169,672;70,72012
 811,21;17114,006;   69,972;24123,404;70,85905
 811,78;16984,994;   92,472;24337,539;69,67406
 812,35;16936,283;   64,972;24173,871;69,97960
 812,91;16893,072;   90,072;24239,705;69,57870
 813,48;16865,262;   68,172;24202,738;69,59764
 814,04;16818,951;   64,172;24088,373;69,74125
 814,61;16843,939;   77,572;24176,006;69,57451
 815,18;16729,328;   67,772;23892,539;69,93376
 815,74;16714,418;   69,772;23709,172;70,41061
 816,31;16614,307;   83,372;23614,406;70,25163
 816,87;16555,395;   43,272;23489,641;70,42507
 817,44;16461,984;   76,972;23452,273;70,09541
 818,00;16350,974;   43,272;23159,506;70,54653
 818,57;16292,862;   71,872;23076,340;70,51235
 819,14;16221,451;   82,872;22924,273;70,65494
 819,70;16094,440;   72,672;22792,707;70,51824
 820,27;15965,729;   62,972;22691,941;70,27610
 820,83;15761,118;   70,072;22541,373;69,82705
 821,40;15567,308;   98,072;22431,908;69,26367
 821,96;15513,196;   75,272;22315,541;69,41429
 822,53;15434,186;   70,973;22257,574;69,24545
 823,09;15251,675;   81,073;22073,309;68,98163
 823,66;15157,664;   68,173;21862,541;69,23574
 824,22;15058,453;   77,173;21851,674;68,80195
 824,79;14962,042;   75,473;21561,408;69,28518
 825,35;14836,730;   65,173;21648,041;68,44112
 825,92;14770,420;   75,173;21398,875;68,91508
 826,48;14618,509;   87,673;21501,309;67,85786
 827,05;14522,397;   89,573;21448,242;67,57361
 827,61;14462,687;   75,273;21249,076;67,94912
 828,18;14381,976;   60,873;21191,209;67,77508
 828,74;14418,765;   91,673;21053,543;68,34835
 829,31;14384,354;   83,373;21002,176;68,36424
 829,87;14318,143;   73,073;20733,709;68,94788
 830,44;14330,932;   85,173;20631,443;69,33501
 831,00;14378,621;   91,273;20673,977;69,41434
 831,57;14410,910;  101,573;20631,609;69,69952
 832,13;14232,999;   72,073;20323,344;69,92611
 832,69;14224,288;   58,173;20309,477;69,95162
 833,26;14162,977;   85,473;20322,711;69,56238
 833,82;14142,066;   93,073;20197,744;69,87925
 834,39;14123,755;   78,773;20137,477;70,01939
 834,95;14000,444;   57,173;19959,410;70,05881
 835,52;13892,233;   87,873;19851,744;69,84644
 836,08;13944,022;   95,573;19951,877;69,74334
 836,64;13773,511;   76,273;19800,711;69,44298
 837,21;13630,300;   88,673;19552,443;69,57350
 837,77;13570,689;   91,873;19491,777;69,47878
 838,34;13539,878;   67,473;19470,012;69,43630
 838,90;13405,267;   64,473;19306,045;69,33318
 839,46;13400,756;   83,873;19312,479;69,25558
 840,03;13387,245;   76,173;19300,811;69,23965
 840,59;13350,534;   85,873;19175,645;69,48570
 841,16;13266,123;  105,173;19156,578;69,08126
 841,72;13165,112;   59,373;18965,512;69,32002
 842,28;13086,901;   77,873;18857,246;69,27296
 842,85;13150,391;   95,573;18812,578;69,74843
 843,41;13086,979;  105,374;18740,813;69,66085
 843,97;12961,368;   89,174;18686,846;69,21401
 844,54;12922,957;  104,774;18624,979;69,21189
 845,10;12981,646;   89,174;18523,713;69,93651
 845,67;13017,735;   68,774;18413,445;70,58705
 846,23;12853,624;   78,674;18361,080;69,87565
 846,79;12898,113;   90,474;18265,613;70,46790
 847,36;12811,202;   55,774;18179,047;70,38148
 847,92;12823,991;   84,874;18034,680;70,97078
 848,48;12775,780;   41,874;18039,213;70,75438
 849,04;12806,069;   62,374;17949,447;71,24528
 849,61;12656,559;   56,274;17918,580;70,54120
 850,17;12604,048;   68,174;17819,514;70,61931
 850,73;12561,637;   71,474;17764,848;70,59232
 851,30;12546,125;   46,074;17669,881;70,92708
 851,86;12356,914;   75,874;17597,914;70,08910
 852,42;12319,703;   51,174;17568,348;70,03715
 852,99;12302,692;   79,274;17583,082;69,83291
 853,55;12154,281;   83,174;17542,514;69,13840
 854,11;12020,271;   70,074;17432,049;68,82971
 854,67;12034,659;   85,474;17420,881;68,92936
 855,24;11947,448;   51,874;17213,414;69,31531
 855,80;12016,938;   76,874;17244,848;69,54847
 856,36;11912,826;   80,574;17175,881;69,21345
 856,92;11817,216;   54,474;17027,215;69,30373
 857,49;11863,404;   81,274;17048,248;69,44155
 858,05;11831,193;   67,274;16968,482;69,60401
 858,61;11785,982;   65,774;17003,316;69,19663
 859,17;11827,071;   77,374;16904,250;69,82697
 859,74;11794,160;   82,074;16836,883;69,90283
 860,30;11736,949;   93,074;16663,016;70,27107
 860,86;11684,339;   72,074;16692,350;69,86806
 861,42;11622,628;   74,674;16545,883;70,10994
 861,99;11651,616;   54,674;16506,717;70,48937
 862,55;11528,806;   66,374;16393,051;70,20676
 863,11;11537,995;   75,174;16437,283;70,05711
 863,67;11413,284;   61,274;16290,117;69,94959
 864,23;11446,272;   80,175;16199,351;70,51290
 864,80;11401,162;   69,175;16081,384;70,77092
 865,36;11266,751;   71,875;16120,817;69,75460
 865,92;11358,240;   96,175;16088,751;70,42058
 866,48;11293,528;   67,375;15987,384;70,51600
 867,04;11132,018;   60,675;15891,418;69,93571
 867,60;11075,507;   99,375;15884,451;69,53487
 868,17;10969,096;   93,675;15884,685;68,87097
 868,73;10897,885;   82,775;15672,618;69,37279
 869,29;10815,974;   59,475;15470,151;69,79900
 869,85;10800,163;  100,475;15369,685;70,07362
 870,41;10763,352;   80,575;15293,418;70,22209
 870,97;10676,440;   92,975;15232,252;69,90734
 871,54;10551,030;   84,175;15178,686;69,34213
 872,10;10547,819;   84,275;15055,419;69,89142
 872,66;10412,508;   66,775;14910,652;69,69697
 873,22;10458,896;   81,975;14890,586;70,07356
 873,78;10245,986;   65,275;14742,419;69,36439
 874,34;10270,075;   95,075;14662,652;69,84689
 874,90;10256,675;  109,775;14536,053;70,33623
 875,46;10126,575;   96,375;14412,952;70,06004
 876,03;10180,675;   86,475;14363,353;70,70313
 876,59;10014,475;   64,475;14153,253;70,62358
 877,15;10051,175;  101,475;14166,853;70,73895
 877,71;10010,675;   78,275;14064,652;71,01481
 878,27; 9898,775;   95,675;13910,553;70,96046
 878,83; 9952,375;  114,275;13971,753;70,99488
 879,39; 9932,675;   91,075;14082,753;70,33895
 879,95; 9794,075;   86,275;13964,253;69,95111
 880,51; 9800,575;   75,175;13927,253;70,20896
 881,07; 9791,275;   82,375;13978,753;69,86641
 881,63; 9815,675;   92,575;13971,253;70,05782
 882,19; 9816,275;   82,675;13921,553;70,33519
 882,75; 9851,875;   86,275;14019,553;70,08832
 883,31; 9863,275;   95,575;14187,853;69,31243
 883,88; 9830,475;   96,375;14174,353;69,14416
 884,44; 9849,475;   76,175;14175,753;69,31626
 885,00; 9937,075;  106,075;14266,952;69,42367
 885,56; 9955,075;  101,675;14299,452;69,40101
 886,12;10110,375;  109,875;14421,152;69,87846
 886,68;10046,575;   90,775;14436,753;69,39785
 887,24;10116,475;  102,475;14574,952;69,19340
 887,80;10166,775;   86,975;14671,753;69,11179
 888,36;10315,475;  106,275;14715,652;69,88114
 888,92;10405,875;   98,975;14773,353;70,23739
 889,48;10570,475;   99,575;14973,853;70,39602
 890,04;10595,675;   95,275;14803,053;71,39352
 890,60;10627,775;  117,475;15014,652;70,55229
 891,16;10625,075;   99,875;15075,853;70,28056
 891,72;10622,675;  113,275;15058,452;70,31967
 892,28;10693,175;  112,475;15126,053;70,47421
 892,84;10527,675;   93,775;15039,853;69,81029
 893,39;10591,475;  117,575;15112,952;69,84752
 893,95;10544,275;  112,975;15044,753;69,85973
 894,51;10443,175;   66,375;14891,253;69,99585
 895,07;10456,275;  127,375;14906,353;69,88914
 895,63;10269,675;   74,275;14689,952;69,75660
 896,19;10215,275;   90,375;14601,952;69,77119
 896,75;10082,275;  105,175;14460,152;69,50272
 897,31; 9980,275;   82,775;14295,853;69,63657
 897,87; 9906,275;   98,175;14146,853;69,81512
 898,43; 9801,975;   87,775;14075,753;69,44678
 898,99; 9691,975;  109,175;14002,753;68,97287
 899,55; 9593,875;  109,475;13940,652;68,57262
 900,11; 9480,475;  104,975;13747,553;68,72235
 900,67; 9438,175;   91,375;13658,652;68,89223
 901,22; 9464,675;  108,375;13601,952;69,33891
 901,78; 9318,175;   91,275;13560,053;68,50584
 902,34; 9285,475;  103,075;13451,152;68,79193
 902,90; 9193,575;   73,575;13350,652;68,68982
 903,46; 9191,475;   95,775;13236,353;69,21842
 904,02; 9115,075;   88,075;13091,553;69,41989
 904,58; 8999,075;   67,075;12918,152;69,50390
 905,14; 8986,275;   63,975;12874,553;69,64792
 905,70; 8898,075;   66,775;12696,053;69,92720
 906,25; 8918,975;   84,375;12708,452;69,98214
 906,81; 8789,775;   87,675;12732,152;68,82135
 907,37; 8776,475;   79,275;12616,152;69,37293
 907,93; 8695,875;   74,775;12588,152;68,89507
 908,49; 8680,975;  101,875;12497,652;69,20986
 909,05; 8611,675;   89,675;12425,553;69,08304
 909,60; 8577,275;   86,575;12340,452;69,28991
 910,16; 8440,275;   67,675;12291,853;68,49214
 910,72; 8382,175;  100,475;12207,753;68,40266
 911,28; 8353,775;   90,875;12156,053;68,48553
 911,84; 8261,675;   79,575;12106,753;68,03009
 912,39; 8248,975;   73,475;12049,353;68,26639
 912,95; 8252,675;  104,475;12001,452;68,48967
 913,51; 8094,475;   85,375;11945,253;67,53105
 914,07; 8057,775;   83,775;11813,452;67,98141
 914,63; 7968,575;   64,775;11748,053;67,65054
 915,18; 7939,375;   77,475;11617,853;68,12515
 915,74; 7849,775;   63,975;11632,652;67,30069
 916,30; 7778,675;   61,475;11588,553;66,94845
 916,86; 7808,575;   83,575;11514,652;67,57893
 917,42; 7758,875;   82,275;11425,152;67,67771
 917,97; 7667,275;   75,375;11265,452;67,84493
 918,53; 7648,175;   67,775;11196,253;68,11713
 919,09; 7645,375;   88,975;11223,753;67,86305
 919,65; 7582,075;   83,375;11083,452;68,16952
 920,20; 7479,175;   61,875;10983,053;67,91667
 920,76; 7320,075;   65,475;10849,452;67,27203
 921,32; 7347,075;   82,675;10770,952;67,96605
 921,87; 7263,875;   97,475;10670,253;67,78162
 922,43; 7143,775;   64,675;10561,353;67,44134
 922,99; 7028,575;   61,875;10406,753;67,34444
 923,55; 6930,375;   63,775;10357,353;66,70761
 924,10; 6822,675;   73,575;10282,853;66,10752
 924,66; 6751,875;   78,675;10170,152;66,12709
 925,22; 6588,775;   43,275;10093,952;65,12496
 925,77; 6512,275;   66,075; 9927,053;65,37080
 926,33; 6434,875;   90,375; 9903,253;64,65483
 926,89; 6340,575;   71,975; 9692,753;65,15690
 927,44; 6260,175;   52,175; 9580,553;65,15275
 928,00; 6171,275;   66,875; 9533,753;64,48166
 928,56; 6073,375;   80,375; 9372,253;64,49719
 929,12; 5971,075;   72,775; 9275,152;64,09540
 929,67; 5817,975;   67,575; 9091,053;63,72709
 930,23; 5711,275;   50,975; 8915,253;63,85517
 930,78; 5722,875;  100,675; 8842,553;64,31341
 931,34; 5540,575;   61,975; 8632,152;63,92633
 931,90; 5397,075;   61,675; 8494,353;63,27054
 932,45; 5254,475;   78,775; 8290,753;63,02623
 933,01; 5123,175;   52,975; 8024,453;63,60427
 933,57; 4952,275;   72,175; 7753,252;63,53405
 934,12; 4719,575;   70,475; 7399,553;63,43363
 934,68; 4490,575;   59,075; 7020,252;63,66021
 935,24; 4219,975;   67,875; 6614,752;63,42108
 935,79; 3948,975;   72,975; 6254,853;62,69940
 936,35; 3722,775;   91,375; 5812,252;63,47628
 936,90; 3401,975;   80,275; 5348,752;63,04858
 937,46; 3145,475;   72,775; 4956,953;62,91131
 938,02; 2858,675;   63,375; 4549,152;62,31473
 938,57; 2689,675;   73,175; 4265,053;62,41833
 939,13; 2496,275;   70,575; 3986,752;61,94050
 939,68; 2279,375;   57,375; 3713,452;60,77552
 940,24; 2169,875;   68,775; 3504,052;61,16245
 940,79; 2093,275;   91,875; 3391,052;60,66360
 941,35; 1992,175;   79,675; 3217,552;60,94884
 941,91; 1924,375;   71,375; 3122,252;60,73663
 942,46; 1845,175;   75,075; 3063,552;59,23083
 943,02; 1807,475;   65,375; 3050,752;58,35443
 943,57; 1786,275;   61,275; 2982,452;59,05153
 944,13; 1792,475;   67,375; 2974,452;59,34138
 944,68; 1802,875;   65,975; 3041,752;58,36794
 945,24; 1828,875;   82,275; 3060,052;58,65448
 945,79; 1813,275;   68,775; 3104,052;57,47415
 946,35; 1841,375;   51,775; 3194,752;56,93964
 946,90; 1929,675;   98,575; 3283,552;57,49177
 947,46; 1912,375;   52,175; 3311,052;57,08100
 948,01; 1939,475;   51,575; 3390,052;56,54973
 948,57; 2015,475;   86,775; 3552,952;55,64343
 949,12; 2034,075;   65,875; 3613,353;55,48167
 949,68; 2110,575;   76,275; 3732,653;55,63703
 950,23; 2142,775;   70,075; 3833,252;55,07845
 950,79; 2190,975;   75,775; 3933,452;54,83092
 951,34; 2219,875;   83,275; 4070,952;53,58006
 951,90; 2235,175;   57,475; 4140,853;53,33085
 952,45; 2290,875;   81,075; 4292,152;52,47588
 953,01; 2301,075;   65,975; 4364,252;51,99990
 953,56; 2364,475;   87,975; 4500,853;51,58766
 954,12; 2335,975;   42,075; 4567,553;50,68857
 954,67; 2395,175;   70,875; 4720,453;49,98949
 955,23; 2422,975;   61,975; 4804,553;49,78306
 955,78; 2423,975;   67,175; 4882,953;48,93914
 956,33; 2401,975;   58,575; 4947,252;47,93526
 956,89; 2451,475;   53,475; 5038,553;48,10356
 957,44; 2450,275;   53,675; 5170,752;46,83533
 958,00; 2482,275;   49,475; 5238,353;46,88490
 958,55; 2480,775;   70,475; 5313,953;45,96758
 959,10; 2504,075;   52,375; 5370,252;46,10298
 959,66; 2495,575;   74,275; 5488,752;44,71900
 960,21; 2499,375;   78,475; 5567,453;44,10475
 960,77; 2495,075;   54,275; 5606,152;43,96351
 961,32; 2497,175;   48,375; 5663,453;43,61115
 961,87; 2483,175;   79,775; 5738,752;42,47057
 962,43; 2489,975;   68,975; 5780,652;42,38685
 962,98; 2545,575;   76,175; 5828,652;42,92759
 963,54; 2456,375;   27,075; 5820,652;41,93092
 964,09; 2469,675;   56,275; 5873,953;41,48391
 964,64; 2431,975;   64,975; 5901,053;40,55806
 965,20; 2408,275;   44,375; 5966,652;39,91539
 965,75; 2398,375;   66,575; 5976,353;39,45665
 966,30; 2404,575;   75,275; 6068,553;38,86521
 966,86; 2351,575;   62,975; 6121,953;37,77205
 967,41; 2293,775;   81,075; 6084,453;36,85758
 967,96; 2261,075;   75,175; 6108,953;36,22772
 968,52; 2249,475;   81,775; 6126,353;35,86190
 969,07; 2176,175;   72,975; 6120,152;34,77986
 969,62; 2146,175;   77,175; 6134,953;34,15444
 970,18; 2107,975;   57,575; 6147,652;33,66788
 970,73; 2103,975;   66,475; 6203,553;33,19984
 971,28; 2053,875;   95,775; 6197,053;32,09328
 971,84; 1984,775;   55,075; 6118,752;31,82392
 972,39; 1977,675;   95,875; 6148,652;31,08986
 972,94; 1925,275;   54,975; 6140,652;30,73282
 973,49; 1915,075;   64,575; 6141,252;30,45250
 974,05; 1889,875;   64,375; 6178,053;29,85928
 974,60; 1865,775;   88,575; 6213,252;29,01704
 975,15; 1839,675;   77,675; 6231,553;28,63235
 975,71; 1795,075;   62,375; 6121,453;28,59676
 976,26; 1806,575;   77,575; 6110,252;28,66057
 976,81; 1768,675;   90,675; 6134,152;27,76547
 977,36; 1757,775;   84,775; 6156,953;27,55190
 977,92; 1733,175;   90,175; 6209,353;26,85001
 978,47; 1709,875;   77,175; 6060,252;27,28863
 979,02; 1684,375;   95,475; 6085,652;26,52509
 979,57; 1635,075;   86,775; 6058,453;25,92739
 980,13; 1608,975;   76,175; 6038,752;25,70700
 980,68; 1586,975;   77,075; 6010,553;25,44713
 981,23; 1549,875;   89,175; 6054,652;24,48589
 981,78; 1526,175;   82,075; 5974,152;24,50918
 982,33; 1511,975;   79,275; 5893,252;24,64234
 982,89; 1443,275;   94,375; 5938,152;23,08267
 983,44; 1404,975;   65,675; 5935,853;22,81532
 983,99; 1421,675;  104,775; 5949,453;22,53161
 984,54; 1360,975;   81,475; 5900,053;21,98991
 985,09; 1334,075;   87,275; 5873,752;21,54679
 985,65; 1296,375;   69,375; 5811,853;21,36708
 986,20; 1293,675;  106,575; 5791,152;20,88282
 986,75; 1266,975;   95,875; 5823,953;20,44490
 987,30; 1233,675;   97,175; 5726,053;20,19053
 987,85; 1201,875;   92,475; 5721,353;19,70908
 988,40; 1177,675;   96,675; 5693,953;19,31296
 988,96; 1178,075;  114,875; 5666,553;19,15097
 989,51; 1162,375;  108,875; 5644,053;19,03281
 990,06; 1188,275;  128,275; 5680,853;19,09023
 990,61; 1120,675;   93,575; 5569,053;18,75818
 991,16; 1125,475;  104,375; 5558,053;18,72314
 991,71; 1078,375;   79,875; 5505,853;18,40221
 992,26; 1086,175;   93,475; 5457,252;18,50748
 992,81; 1059,475;   75,075; 5427,053;18,39320
 993,37; 1066,075;  113,475; 5390,553;18,05166
 993,92; 1081,675;  108,375; 5368,953;18,50177
 994,47; 1044,675;  117,475; 5329,652;17,78911
 995,02; 1041,475;  118,475; 5313,252;17,76784
 995,57;  993,875;   90,875; 5274,652;17,41973
 996,12; 1035,975;  133,575; 5247,553;17,64575
 996,67;  999,775;  132,375; 5191,652;17,14474
 997,22;  937,575;   99,875; 5128,652;16,65812
 997,77;  938,775;  115,275; 5110,553;16,48557
 998,32;  919,775;  103,775; 5015,652;16,61279
 998,87;  895,775;  114,275; 5018,752;15,93442
 999,42;  887,975;  101,675; 4972,553;16,14288
 999,97;  855,475;  109,975; 4956,353;15,38262
1000,53;  879,175;  123,475; 4993,752;15,51657
1001,08;  823,275;   98,375; 4879,053;15,16312
1001,63;  833,575;  144,475; 4878,053;14,55770
1002,18;  770,875;   85,075; 4777,453;14,61519
1002,73;  797,075;  131,375; 4813,853;14,21683
1003,28;  771,975;  103,575; 4811,953;14,19597
1003,83;  769,575;  119,075; 4691,752;14,22580
1004,38;  790,775;  137,775; 4703,152;14,30331
1004,93;  727,275;  114,375; 4680,953;13,42143
1005,48;  729,975;  104,075; 4573,053;14,00544
1006,03;  720,775;  112,775; 4525,652;13,77786
1006,58;  719,475;  111,475; 4486,553;13,89690
1007,13;  696,275;   94,475; 4466,252;13,76557
1007,68;  701,875;  104,975; 4462,453;13,69829
1008,23;  716,975;  114,575; 4425,853;13,97266
1008,78;  702,575;  107,375; 4384,152;13,91702
1009,33;  697,175;  121,875; 4307,752;13,74383
1009,88;  657,275;   84,775; 4329,553;13,48716
1010,43;  679,075;  118,875; 4320,752;13,33214
1010,98;  654,275;  100,675; 4310,053;13,15159
1011,52;  646,075;   97,075; 4264,953;13,17217
1012,07;  690,375;  144,475; 4319,252;13,07615
1012,62;  625,075;  103,875; 4259,152;12,54309
1013,17;  630,975;   97,175; 4172,053;13,09978
1013,72;  608,375;   94,575; 4143,453;12,68994
1014,27;  595,575;  100,275; 4105,853;12,36526
1014,82;  580,475;   86,875; 4042,952;12,47701
1015,37;  550,075;   84,375; 3964,853;12,00110
1015,92;  565,575;  109,475; 3894,252;12,05091
1016,47;  516,575;   90,275; 3819,452;11,43148
1017,02;  512,975;   81,075; 3732,153;11,82938
1017,57;  536,075;   96,475; 3718,853;12,13568
1018,11;  497,475;   77,275; 3656,252;11,74078
1018,66;  537,275;  120,175; 3636,552;11,86164
1019,21;  494,375;  109,675; 3579,552;11,08685
1019,76;  451,375;   77,675; 3497,353;10,92793
1020,31;  466,175;   71,975; 3446,452;11,68181
1020,86;  466,975;   96,175; 3448,052;11,06246
1021,41;  451,375;   80,175; 3387,052;11,22509
1021,96;  450,775;   83,675; 3385,853;11,11691
1022,50;  481,375;  105,975; 3332,952;11,63318
1023,05;  461,975;   94,675; 3288,052;11,50193
1023,60;  447,275;   97,975; 3251,353;11,07701
1024,15;  420,375;   81,075; 3184,853;10,93184
1024,70;  462,275;   95,075; 3176,252;11,91752
1025,25;  422,575;   81,175; 3127,452;11,20712
1025,79;  446,675;  101,175; 3110,752;11,48002
1026,34;  426,775;   83,475; 3044,653;11,59336
1026,89;  432,375;  102,175; 3039,052;11,24323
1027,44;  415,775;   95,875; 2952,952;11,19676
1027,99;  413,275;   93,475; 2944,552;11,21681
1028,53;  391,175;   89,675; 2900,052;10,72810
1029,08;  412,375;  114,775; 2876,653;10,77528
1029,63;  409,175;  114,875; 2854,952;10,74057
1030,18;  391,375;   92,075; 2788,552;11,09967
1030,73;  369,975;   91,175; 2739,552;10,52720
1031,27;  357,975;   85,875; 2715,252;10,34846
1031,82;  365,775;   81,875; 2686,452;10,90004
1032,37;  381,775;   98,875; 2688,853;10,92287
1032,92;  372,875;  100,575; 2675,452;10,57526
1033,46;  361,275;   99,775; 2599,252;10,46219
1034,01;  332,875;   78,375; 2582,952;10,16139
1034,56;  364,675;   98,875; 2559,252;10,80322
1035,11;  352,275;   92,375; 2523,552;10,69029
1035,65;  325,375;   87,575; 2478,052; 9,94780
1036,20;  343,875;   99,375; 2454,452;10,38182
1036,75;  368,975;  118,675; 2446,353;10,75321
1037,29;  338,975;   90,275; 2398,252;10,77567
1037,84;  314,375;   78,375; 2347,252;10,40162
1038,39;  323,975;   91,075; 2329,952;10,40254
1038,94;  308,675;   73,075; 2277,153;10,68928
1039,48;  329,375;   83,575; 2278,552;11,19829
1040,03;  341,775;  102,875; 2245,252;11,15116
1040,58;  315,675;  101,175; 2194,552;10,24660
1041,12;  306,675;   91,375; 2191,653;10,25103
1041,67;  318,975;  101,075; 2166,752;10,54860
1042,22;  325,475;  118,475; 2145,252;10,21326
1042,76;  316,075;   99,275; 2118,452;10,73705
1043,31;  306,875;   90,675; 2060,653;10,97474
1043,86;  313,875;   98,875; 2044,252;11,05184
1044,40;  313,875;   92,975; 2018,052;11,47486
1044,95;  306,375;   94,175; 1988,552;11,20157
1045,50;  276,775;   75,375; 1934,353;10,83391
1046,04;  316,375;  114,375; 1930,453;11,12287
1046,59;  282,675;   96,175; 1878,353;10,46473
1047,13;  309,275;  121,075; 1879,453;10,70305
1047,68;  301,575;  115,675; 1860,052;10,65710
1048,23;  281,475;  118,775; 1866,752; 9,30790
1048,77;  267,575;   90,175; 1784,953;10,46745
1049,32;  283,075;  104,175; 1785,953;10,63756
1049,86;  275,175;   92,675; 1760,552;10,94205
1050,41;  254,875;   82,475; 1735,552;10,42903
1050,96;  273,175;  100,875; 1698,652;10,78373
1051,50;  264,275;  101,675; 1663,252;10,41255
1052,05;  261,075;   94,675; 1664,052;10,60293
1052,59;  250,075;   82,975; 1624,152;10,84236
1053,14;  248,775;   84,475; 1582,652;10,96666
1053,69;  251,475;   98,475; 1571,453;10,38712
1054,23;  254,075;  104,575; 1569,052;10,20842
1054,78;  250,075;  100,775; 1550,152;10,30097
1055,32;  266,375;  123,075; 1550,453;10,03939
1055,87;  223,275;   68,875; 1491,752;10,85125
1056,41;  236,475;   78,775; 1469,552;11,33898
1056,96;  236,575;   96,775; 1451,052;10,32285
1057,50;  271,775;  113,375; 1470,853;11,66870
1058,05;  227,375;   82,075; 1401,953;11,00860
1058,59;  247,175;   95,875; 1396,552;11,63240
1059,14;  238,575;  103,575; 1370,453;10,65612
1059,68;  210,475;   75,975; 1329,353;10,73101
1060,23;  257,875;  126,875; 1383,752;10,42266
1060,77;  241,975;   97,375; 1317,052;11,85559
1061,32;  254,375;  108,575; 1320,652;12,02893
1061,86;  236,175;  111,175; 1289,752;10,60601
1062,41;  239,775;   93,975; 1242,953;12,68954
1062,95;  239,175;  109,575; 1230,853;11,55825
1063,50;  231,375;  111,075; 1230,052;10,75089
1064,04;  220,675;   90,475; 1197,453;11,76176
1064,59;  239,975;  114,775; 1210,052;11,43089
1065,13;  222,975;  103,475; 1170,552;11,19881
1065,68;  216,075;  107,275; 1161,353;10,32182
1066,22;  233,475;  115,875; 1166,453;11,19384
1066,76;  244,575;  130,175; 1145,252;11,27008
1067,31;  212,575;   99,875; 1110,552;11,15094
1067,85;  200,475;  100,975; 1090,252;10,05785
1068,40;  215,475;  110,275; 1095,353;10,67936
1068,94;  205,875;   99,175; 1079,353;10,88578
1069,49;  197,975;   98,175; 1041,652;10,57789
1070,03;  208,375;  111,175; 1034,353;10,52885
1070,57;  192,475;   88,775; 1012,852;11,22200
1071,12;  181,275;   75,875;  987,153;11,56618
1071,66;  246,975;  131,775; 1039,953;12,68475
1072,21;  214,975;  112,475; 1011,352;11,40311
1072,75;  202,675;  104,475;  978,552;11,23470
1073,29;  183,975;   77,075;  942,453;12,35299
1073,84;  189,175;   95,975;  941,153;11,02727
1074,38;  190,475;   93,875;  928,253;11,57749
1074,92;  202,275;  107,275;  940,153;11,40624
1075,47;  201,475;  112,775;  938,852;10,73749
1076,01;  220,975;  121,775;  926,253;12,33099
1076,56;  194,675;   97,275;  891,953;12,25654
1077,10;  171,675;   86,075;  865,253;10,98594
1077,64;  176,075;   97,875;  884,453; 9,94180
1078,19;  221,975;  123,175;  887,753;12,92217
1078,73;  200,075;   98,775;  853,852;13,41584
1079,27;  219,375;  121,075;  875,552;13,02888
1079,81;  218,275;  121,375;  860,953;13,10207
1080,36;  189,775;  105,975;  836,052;11,47823
1080,90;  182,775;   96,375;  819,753;11,94397
1081,44;  180,775;   82,475;  789,552;13,90229
1081,99;  171,175;   70,375;  771,753;14,37172
1082,53;  196,075;  113,075;  798,653;12,10658
1083,07;  186,175;  104,175;  791,453;11,93113
1083,62;  185,675;  101,275;  772,552;12,57304
1084,16;  178,375;   98,975;  782,453;11,61706
1084,70;  184,875;  107,475;  767,153;11,73301
1085,24;  207,475;  108,775;  750,653;15,37677
1085,79;  189,475;  109,175;  747,552;12,57876
1086,33;  173,275;   99,075;  711,453;12,11671
1086,87;  177,175;  102,075;  714,852;12,25567
1087,41;  172,575;   84,475;  686,852;14,62538
1087,96;  194,375;  124,575;  732,552;11,48069
1088,50;  183,275;  112,075;  696,953;12,17349
1089,04;  194,475;  121,775;  715,153;12,25190
1089,58;  158,975;   82,375;  655,953;13,35478
1090,13;  168,375;  102,975;  653,153;11,88707
1090,67;  180,075;  101,775;  678,753;13,57072
1091,21;  157,375;   92,075;  651,852;11,66535
1091,75;  166,775;  106,875;  647,153;11,08689
1092,29;  187,975;  105,875;  642,552;15,29783
1092,84;  173,275;  105,975;  628,352;12,88340
1093,38;  190,575;  128,175;  662,753;11,67277
1093,92;  183,075;  113,475;  640,052;13,21743
1094,46;  178,775;  128,175;  638,852; 9,90840
1095,00;  162,875;   93,975;  602,052;13,56092
1095,54;  163,375;   89,975;  591,352;14,63967
1096,09;  170,775;  114,975;  597,352;11,56770
1096,63;  188,175;  117,175;  598,453;14,75240
1097,17;  164,675;  102,575;  573,052;13,19936
1097,71;  184,775;  122,875;  582,453;13,46889
1098,25;  161,075;  103,275;  553,653;12,83368
1098,79;  169,575;  104,775;  568,753;13,96619
1099,33;  173,575;  111,975;  572,052;13,38905
1099,88;  174,575;  110,775;  562,253;14,13138
1100,42;  135,375;   83,275;  521,253;11,89559

