0035 ELITRO
Integration time [ms]:   8,000
Averaging Nr. [scans]: 10
Smoothing Nr. [pixels]: 0
Data measured with spectrometer [name]: 7314920SP
Wave   ;Sample   ;Dark     ;Reference;Reflectance
[nm]   ;[counts] ;[counts] ;[counts] ;[%]

 199,42;   92,946;   63,873;  150,055;33,73450
 200,02;   98,309;   92,669;  145,732;10,62943
 200,62;   62,970;   67,563;   88,793;-21,63502
 201,22;   91,024;   86,969;  138,011; 7,94449
 201,82;   91,791;   66,174;  141,790;33,87765
 202,42;  108,837;  101,668;  154,973;13,44885
 203,03;   64,179;   60,168;   91,775;12,69029
 203,63;   81,592;   69,967;  109,037;29,75400
 204,23;   86,599;   70,671;  129,903;26,89121
 204,83;   93,249;   74,567;  123,718;38,00876
 205,43;   93,146;   56,673;  123,555;54,53356
 206,03;   58,677;   50,167;   90,459;21,12146
 206,63;   71,330;   68,865;  100,007; 7,91684
 207,24;  113,165;   74,675;  162,566;43,79216
 207,84;   54,205;   39,967;   83,699;32,55857
 208,44;   57,924;   50,669;   95,011;16,36159
 209,04;   47,602;   47,365;   85,066; 0,62870
 209,64;   91,116;   69,972;  127,998;36,43857
 210,24;   57,749;   45,367;   97,218;23,87943
 210,84;   63,096;   51,469;  101,970;23,02241
 211,44;   96,382;   86,470;  122,908;27,20406
 212,05;   65,002;   60,865;   99,266;10,77308
 212,65;   78,979;   66,368;  112,975;27,05809
 213,25;  104,337;   93,768;  142,073;21,87969
 213,85;   90,089;   84,465;  114,904;18,47374
 214,45;   58,649;   53,367;  100,418;11,22560
 215,05;   53,696;   39,369;  100,070;23,60183
 215,65;   60,767;   55,169;  105,630;11,09403
 216,25;   51,749;   40,267;   82,518;27,17501
 216,85;   50,152;   34,069;   89,651;28,93630
 217,45;   56,979;   49,068;   97,375;16,37652
 218,05;   77,697;   58,270;  112,886;35,57054
 218,66;   46,081;   28,769;   75,692;36,89436
 219,26;   33,992;   26,567;   79,337;14,07027
 219,86;   45,056;   36,771;   81,584;18,48807
 220,46;   75,926;   54,270;  104,127;43,43579
 221,06;   54,899;   51,871;  115,903; 4,72920
 221,66;   66,214;   43,471;  103,481;37,89839
 222,26;   52,316;   39,772;  102,398;20,02964
 222,86;   80,094;   67,268;  118,954;24,81493
 223,46;   58,049;   51,767;   88,918;16,90867
 224,06;   75,827;   64,971;  120,343;19,60653
 224,66;   63,441;   57,570;  105,805;12,17050
 225,26;   73,311;   48,169;  113,748;38,33723
 225,86;   58,831;   42,173;  112,376;23,72857
 226,46;   59,266;   49,968;  102,913;17,56027
 227,06;   36,141;   27,670;   87,705;14,10917
 227,66;   51,917;   37,665;   74,845;38,33196
 228,27;   42,326;   29,270;   96,227;19,49878
 228,87;  103,269;   89,170;  143,046;26,16928
 229,47;   59,788;   29,172;   92,357;48,45339
 230,07;   24,111;   11,169;   59,648;26,69438
 230,67;   46,952;   38,169;   84,651;18,89634
 231,27;   52,826;   27,670;   76,327;51,70021
 231,87;   57,352;   43,169;  100,751;24,63163
 232,47;   84,621;   43,775;  132,047;46,27306
 233,07;   60,258;   42,965;   75,547;53,07686
 233,67;   68,979;   53,768;   94,275;37,55134
 234,27;   27,177;    0,567;   53,259;50,50158
 234,87;   58,356;   34,771;  106,084;33,07254
 235,47;   29,611;   16,169;   74,148;23,18283
 236,07;   34,475;   30,266;   72,042;10,07604
 236,67;   58,062;   49,966;   85,180;22,98984
 237,27;   58,889;   28,873;  109,074;37,42632
 237,87;   51,941;   25,370;   99,805;35,69611
 238,47;   21,709;   14,269;   68,032;13,83903
 239,07;   46,344;   33,272;   95,738;20,92673
 239,67;   75,353;   43,477;  131,421;36,24624
 240,27;   66,431;   46,773;  119,176;27,15101
 240,87;   71,761;   50,773;  119,533;30,52308
 241,47;   48,357;   39,164;   76,131;24,86819
 242,07;   52,122;   39,968;   92,894;22,96440
 242,67;   25,318;  -11,027;   77,914;40,86360
 243,27;   18,749;    7,767;   46,418;28,41249
 243,87;   63,827;   48,671;  108,343;25,39968
 244,47;   54,699;   22,371;   99,703;41,80445
 245,07;   27,896;    2,669;   55,770;47,50675
 245,67;   48,079;   31,068;   85,575;31,20873
 246,27;   34,630;   34,965;   69,007;-0,98266
 246,87;   36,194;   26,668;   63,154;26,10823
 247,46;   12,270;   19,663;   23,793;-179,01383
 248,06;   31,197;   20,470;   69,786;21,75210
 248,66;   46,516;   31,072;  105,898;20,63957
 249,26;   36,775;   32,366;   70,742;11,48989
 249,86;   56,031;   42,873;  102,176;22,18805
 250,46;   35,593;   16,775;   93,507;24,52414
 251,06;   30,079;   22,168;   65,375;18,30952
 251,66;   33,784;   20,771;   64,724;29,60730
 252,26;   33,219;   38,866;   70,261;-17,98846
 252,86;   47,796;   35,969;   89,070;22,27179
 253,46;    3,249;   -8,033;   22,118;37,41730
 254,06;   45,404;   31,766;   79,483;28,58070
 254,66;   44,946;   34,973;  100,155;15,30024
 255,26;   64,303;   39,073;  118,836;31,63105
 255,86;   35,057;   37,464;   55,631;-13,24848
 256,46;   35,582;   19,870;   70,208;31,21421
 257,05;   27,412;   23,570;   59,565;10,67387
 257,65;   68,356;   38,071;   97,684;50,80265
 258,25;   50,288;   37,372;  101,457;20,15330
 258,85;   21,396;   15,669;   51,770;15,86256
 259,45;   11,452;    6,869;   42,951;12,70277
 260,05;   37,149;   46,667;   85,818;-24,31141
 260,65;   47,819;   45,066;   83,561; 7,15026
 261,25;   29,727;   29,371;   85,943; 0,63043
 261,85;   21,743;   -0,129;   47,622;45,80312
 262,45;   52,296;   46,169;  109,270; 9,70910
 263,04;   66,374;   53,073;  116,295;21,03910
 263,64;   51,264;   33,767;   77,097;40,38011
 264,24;   63,071;   37,671;   89,062;49,42420
 264,84;   78,048;   58,974;  138,671;23,93283
 265,44;   41,207;   26,368;   67,716;35,88930
 266,04;   49,960;   48,865;   71,464; 4,84445
 266,64;   43,062;   39,866;   86,780; 6,81164
 267,24;   44,462;   40,166;   68,980;14,90811
 267,84;   35,537;   24,668;   76,573;20,94013
 268,43;   62,150;   48,368;   95,935;28,97531
 269,03;   58,081;   46,969;   87,892;27,15326
 269,63;   67,547;   58,566;   92,402;26,54279
 270,23;    6,417;   10,765;   39,045;-15,37619
 270,83;   54,619;   55,266;   83,161;-2,32118
 271,43;   26,435;   23,967;   58,856; 7,07384
 272,03;   69,407;   64,168;   99,116;14,99231
 272,62;   36,067;   23,269;   68,730;28,15221
 273,22;   28,469;   11,970;   61,046;33,61924
 273,82;   16,836;   17,460;   26,403;-6,97806
 274,42;   23,428;   25,164;   46,890;-7,98719
 275,02;   37,487;   34,864;   60,388;10,27443
 275,62;   59,588;   31,972;  100,457;40,32309
 276,21;   48,554;   22,770;   69,267;55,45275
 276,81;   49,205;   46,767;   71,099;10,02233
 277,41;   49,486;   22,971;   96,341;36,13822
 278,01;   13,087;   21,364;   42,788;-38,63805
 278,61;   61,224;   38,869;   83,811;49,74231
 279,20;   81,331;   65,473;  119,076;29,58442
 279,80;    5,981;    6,762;   11,539;-16,33037
 280,40;   44,675;   36,866;   79,742;18,21376
 281,00;    8,024;   -4,331;   33,311;32,82270
 281,60;   36,776;   20,774;   74,812;29,61304
 282,20;   40,382;   36,670;   70,108;11,10319
 282,79;   31,750;   29,568;   70,135; 5,38030
 283,39;   15,547;   17,466;   44,702;-7,04605
 283,99;   23,758;   23,165;   34,347; 5,31112
 284,59;   17,939;   16,869;   45,289; 3,76371
 285,19;   31,977;   27,067;   57,759;15,99849
 285,78;   37,582;   23,270;   63,808;35,30660
 286,38;   36,530;   39,665;   59,207;-16,03976
 286,98;   45,750;   35,168;   73,535;27,58278
 287,58;   23,399;    4,771;   61,403;32,89344
 288,17;   29,603;    8,973;   80,336;28,90836
 288,77;   48,851;   19,976;   92,504;39,81273
 289,37;    5,596;   11,269;   57,670;-12,22704
 289,97;   52,358;   48,965;   66,647;19,19339
 290,57;   42,929;   46,672;   93,260;-8,03321
 291,16;   66,507;   63,868;  102,616; 6,81201
 291,76;   25,069;    5,570;   47,346;46,67513
 292,36;   29,892;   34,367;   58,137;-18,82679
 292,96;   23,959;   -3,127;   60,117;42,82883
 293,55;   33,505;   24,267;   65,399;22,46079
 294,15;   34,554;   26,870;   62,567;21,52594
 294,75;   43,930;   42,065;   66,207; 7,72707
 295,35;   19,807;   21,068;   52,016;-4,07290
 295,94;   38,634;   42,967;   66,740;-18,22581
 296,54;   30,666;   30,768;   70,613;-0,25787
 297,14;   45,814;   29,971;   76,881;33,77282
 297,73;   14,945;   12,165;   40,085; 9,95737
 298,33;   35,304;   28,066;   57,583;24,52095
 298,93;   37,894;   41,968;   82,554;-10,03879
 299,53;   37,173;   24,872;   69,079;27,82507
 300,12;   25,314;  -12,229;   59,481;52,35369
 300,72;   57,264;   41,567;   91,197;31,62732
 301,32;   52,056;   25,771;   99,584;35,61028
 301,92;   14,900;    3,664;   33,050;38,23652
 302,51;   28,620;   11,567;   49,978;44,39745
 303,11;   26,077;   14,667;   48,759;33,46907
 303,71;   38,909;   21,369;   82,132;28,86658
 304,30;   17,332;    5,466;   38,423;36,00470
 304,90;   16,604;   19,666;   44,283;-12,43910
 305,50;   29,017;   18,565;   64,345;22,83041
 306,09;   30,775;   15,466;   49,042;45,59574
 306,69;   52,671;   34,171;   90,262;32,98148
 307,29;   13,465;   18,760;   33,144;-36,81722
 307,88;   55,439;   43,269;   72,489;41,64876
 308,48;   17,726;    0,070;   49,727;35,55548
 309,08;    4,527;   -4,437;   11,774;55,29406
 309,68;   25,345;   22,365;   39,585;17,30591
 310,27;   26,967;   20,169;   49,830;22,91980
 310,87;   27,966;   23,468;   54,813;14,34768
 311,47;   65,749;   54,967;   92,918;28,40956
 312,06;   42,273;   47,865;   68,426;-27,19448
 312,66;   67,407;   51,168;  100,016;33,24498
 313,26;   60,084;   48,571;   96,224;24,16079
 313,85;   48,477;   38,267;   65,959;36,87085
 314,45;   52,424;   42,969;   86,611;21,66508
 315,04;   59,073;   52,165;   81,826;23,29186
 315,64;   34,464;   21,267;   47,897;49,55600
 316,24;   50,626;   40,770;   85,627;21,97159
 316,83;   47,475;   40,366;   76,742;19,54401
 317,43;   41,735;   35,167;   68,156;19,90977
 318,03;   50,913;   39,063;   70,012;38,28931
 318,62;   79,438;   73,061;   94,820;29,30749
 319,22;   38,037;    7,668;   66,973;51,20854
 319,82;   55,307;   40,768;   93,516;27,56409
 320,41;   66,109;   59,069;   98,732;17,75018
 321,01;   89,817;   80,465;  115,945;26,35789
 321,60;   72,328;   81,164;  102,790;-40,85394
 322,20;   77,346;   67,673;  132,855;14,84000
 322,80;   67,364;   54,567;   91,797;34,37190
 323,39;   56,515;   65,764;   94,828;-31,82331
 323,99;   57,419;   61,766;  102,661;-10,63084
 324,59;   72,213;   73,063;   97,512;-3,47664
 325,18;   64,020;   40,967;   92,178;45,01671
 325,78;   73,745;   76,365;  108,885;-8,05613
 326,37;   73,779;   74,868;  108,075;-3,27920
 326,97;   80,764;   63,267;  111,497;36,27758
 327,57;   46,570;   42,263;   76,493;12,58232
 328,16;   66,957;   60,864;   93,631;18,59506
 328,76;   86,634;   50,467;  110,140;60,60871
 329,35;   79,856;   56,871;  137,484;28,51281
 329,95;   50,682;   27,470;   91,308;36,36171
 330,54;   63,949;   52,167;   94,018;28,15157
 331,14;   48,405;   26,967;   82,599;38,53625
 331,74;   69,217;   54,165;   96,145;35,85471
 332,33;   55,726;   35,370;  108,127;27,97778
 332,93;   50,400;   43,764;   79,250;18,70088
 333,52;   67,447;   42,466;   93,102;49,33461
 334,12;   88,581;   72,069;  140,392;24,16744
 334,71;   47,275;   50,666;   87,942;-9,09582
 335,31;   80,077;   63,267;  119,859;29,70432
 335,90;   40,040;   32,362;   53,836;35,75355
 336,50;   34,830;   30,665;   77,207; 8,94991
 337,10;   75,767;   38,769;  121,530;44,70511
 337,69;   54,730;   51,765;   93,707; 7,07040
 338,29;   51,492;   30,467;  101,037;29,79296
 338,88;   50,294;   22,468;   99,854;35,95728
 339,48;   79,568;   57,862;  111,677;40,33509
 340,07;   61,590;   48,566;  107,321;22,16690
 340,67;   55,856;   31,171;  124,784;26,36924
 341,26;   58,375;   48,466;   98,942;19,63176
 341,86;   82,211;   61,469;  138,348;26,97899
 342,45;   62,639;   45,669;  142,689;17,49092
 343,05;   75,539;   27,269;  115,689;54,59151
 343,64;   62,762;   47,366;  122,480;20,49635
 344,24;   47,230;   28,765;   92,107;29,15195
 344,83;   78,358;   71,365;  121,747;13,88159
 345,43;   50,334;   29,667;  114,240;24,43700
 346,02;   62,852;   41,469;  124,351;25,79979
 346,62;   83,284;   40,971;  140,424;42,54590
 347,21;   56,845;   42,165;  131,985;16,34389
 347,81;   52,729;   26,172;  140,560;23,21700
 348,40;   43,157;   29,064;  100,731;19,66462
 349,00;   59,313;   49,163;  137,712;11,46264
 349,59;  105,269;   65,870;  177,846;35,18520
 350,19;   60,284;   32,571;  139,424;25,93594
 350,78;   62,077;   55,467;  140,759; 7,75014
 351,38;   39,652;   15,869;  140,951;19,01424
 351,97;   52,634;   26,767;  136,040;23,67200
 352,57;   56,326;   42,570;  155,827;12,14566
 353,16;   39,315;   30,564;  134,328; 8,43340
 353,76;   69,869;   38,770;  169,846;23,72590
 354,35;   47,111;   27,669;  160,148;14,67491
 354,95;   79,154;   43,970;  182,067;25,47780
 355,54;   70,837;   38,368;  163,973;25,85010
 356,14;   55,811;   40,069;  164,749;12,62536
 356,73;   50,168;   29,162;  145,176;18,10645
 357,32;   53,709;   13,769;  164,432;26,50963
 357,92;   57,401;   17,772;  181,419;24,21610
 358,51;   79,573;   43,372;  214,179;21,19387
 359,11;   71,929;   36,772;  212,360;20,02270
 359,70;   47,312;   28,470;  189,965;11,66727
 360,30;   71,581;   54,562;  188,039;12,75119
 360,89;   47,894;   31,168;  188,054;10,66110
 361,48;   97,254;   55,570;  216,467;25,90731
 362,08;   48,235;   19,867;  187,156;16,95750
 362,67;   57,270;   39,763;  192,693;11,44767
 363,27;   83,820;   60,767;  247,678;12,33388
 363,86;   79,317;   35,765;  215,745;24,19812
 364,46;   89,657;   44,664;  257,231;21,16652
 365,05;   97,276;   64,659;  254,989;17,13725
 365,64;   96,278;   50,960;  269,706;20,71729
 366,24;  103,446;   38,558;  309,432;23,95506
 366,83;  117,941;   43,255;  335,383;25,56608
 367,43;  146,850;   51,545;  352,843;31,63146
 368,02;  154,610;   34,646;  399,757;32,85679
 368,61;  175,596;   62,239;  475,425;27,43481
 369,21;  150,602;   32,419;  445,299;28,62397
 369,80;  188,392;   43,007;  526,947;30,04202
 370,39;  238,719;   62,006;  604,971;32,54591
 370,99;  223,915;   42,089;  615,416;31,71428
 371,58;  232,487;   22,974;  630,953;34,46060
 372,18;  279,129;   37,166;  701,603;36,41636
 372,77;  263,713;   42,449;  679,385;34,73872
 373,36;  284,107;   42,747;  690,836;37,24191
 373,96;  263,258;   35,135;  639,498;37,74595
 374,55;  261,845;   29,844;  621,406;39,21848
 375,14;  237,041;   42,849;  573,826;36,57258
 375,74;  244,399;   69,157;  543,276;36,96150
 376,33;  202,769;   45,964;  464,589;37,45722
 376,92;  175,109;   33,278;  447,997;34,19934
 377,52;  246,200;   86,103;  548,460;34,62626
 378,11;  197,570;   46,703;  457,203;36,75210
 378,71;  217,229;   73,011;  514,270;32,68335
 379,30;  227,612;   59,517;  553,928;33,99897
 379,89;  225,933;   59,813;  556,103;33,47234
 380,49;  223,042;   31,018;  568,185;35,74752
 381,08;  249,662;   70,306;  570,990;35,82221
 381,67;  257,537;   55,008;  555,483;40,46746
 382,26;  239,962;   41,706;  539,390;39,83574
 382,86;  230,357;   54,003;  516,041;38,16867
 383,45;  261,874;   50,412;  562,105;41,32597
 384,04;  241,431;   38,712;  553,886;39,34960
 384,64;  256,163;   49,014;  566,760;40,00980
 385,23;  265,705;   64,406;  560,509;40,57610
 385,82;  291,423;   59,615;  592,774;43,47821
 386,42;  315,839;   61,024;  659,022;42,61139
 387,01;  300,220;   55,414;  580,541;46,61843
 387,60;  314,167;   69,009;  590,140;47,04360
 388,20;  303,274;   37,712;  590,805;48,01400
 388,79;  343,457;   72,418;  665,563;45,69514
 389,38;  292,162;   32,106;  564,890;48,81078
 389,97;  335,680;   45,415;  640,955;48,73977
 390,57;  356,378;   71,114;  654,038;48,93670
 391,16;  359,478;   62,514;  655,838;50,05086
 391,75;  353,805;   52,713;  638,562;51,39401
 392,34;  375,719;   60,821;  696,694;49,52214
 392,94;  381,900;   44,718;  689,683;52,27914
 393,53;  364,210;   41,016;  666,612;51,66179
 394,12;  415,637;   53,023;  719,105;54,43987
 394,72;  427,476;   54,213;  706,122;57,25695
 395,31;  401,523;   42,115;  694,874;55,05985
 395,90;  436,411;   42,924;  732,881;57,03061
 396,49;  471,446;   58,028;  779,187;57,32690
 397,09;  459,983;   47,417;  749,188;58,78934
 397,68;  490,097;   44,025;  800,719;58,95020
 398,27;  504,501;   54,626;  809,652;59,58402
 398,86;  505,784;   43,125;  807,657;60,51533
 399,45;  546,751;   56,630;  844,037;62,24500
 400,05;  518,745;   23,820;  799,518;63,80389
 400,64;  549,743;   56,419;  831,001;63,68910
 401,23;  556,732;   53,920;  859,956;62,38084
 401,82;  591,132;   67,220;  868,256;65,40430
 402,42;  596,190;   62,921;  873,953;65,75194
 403,01;  627,397;   81,525;  912,919;65,65750
 403,60;  650,225;   68,532;  940,513;66,70941
 404,19;  665,154;   76,024;  931,900;68,83356
 404,78;  652,864;   57,522;  909,929;69,84243
 405,38;  689,083;   68,332;  984,210;67,77662
 405,97;  673,758;   63,226;  953,933;68,54461
 406,56;  701,061;   71,528; 1004,366;67,48581
 407,15;  700,435;   68,829;  989,442;68,60709
 407,74;  718,736;   80,730; 1026,758;67,44052
 408,34;  704,327;   50,933; 1018,629;67,52057
 408,93;  741,010;   59,531; 1016,234;71,23201
 409,52;  746,789;   51,435; 1041,359;70,24310
 410,11;  793,153;   84,931; 1090,453;70,43327
 410,70;  758,516;   54,727; 1027,230;72,36881
 411,29;  796,718;   58,628; 1030,847;75,91807
 411,89;  810,204;   60,535; 1093,938;72,54369
 412,48;  801,589;   48,228; 1051,606;75,08250
 413,07;  825,528;   65,033; 1101,446;73,37766
 413,66;  862,760;   78,135; 1102,119;76,62477
 414,25;  865,935;   63,337; 1142,311;74,38533
 414,84;  853,110;   69,431; 1102,434;75,86412
 415,44;  887,793;   91,530; 1155,939;74,80798
 416,03;  893,849;   76,637; 1161,173;75,35127
 416,62;  910,609;   76,138; 1168,687;76,37834
 417,21;  907,487;   75,334; 1158,843;76,80165
 417,80;  930,007;   65,037; 1162,871;78,78881
 418,39;  928,369;   78,440; 1179,201;77,21287
 418,98;  916,300;   55,634; 1143,405;79,12200
 419,58;  921,713;   64,033; 1142,067;79,55968
 420,17;  917,545;   52,735; 1164,540;77,78433
 420,76;  955,049;   72,537; 1192,873;78,77206
 421,35;  937,275;   60,236; 1155,197;80,09776
 421,94;  974,169;   88,340; 1223,501;78,03555
 422,53;  973,612;   61,540; 1195,320;80,44528
 423,12;  958,224;   64,039; 1190,766;79,36132
 423,71;  940,704;   60,835; 1162,138;79,89342
 424,30;  975,534;   85,236; 1210,695;79,10531
 424,90;  937,094;   39,438; 1163,809;79,83631
 425,49;  975,697;   70,140; 1216,242;79,01198
 426,08;  998,397;   80,240; 1209,641;81,29594
 426,67;  958,347;   57,436; 1168,257;81,10319
 427,26; 1005,103;   60,343; 1230,391;80,74540
 427,85;  982,666;   63,238; 1209,968;80,17820
 428,44; 1015,244;   68,442; 1218,093;82,35560
 429,03; 1040,258;   85,341; 1233,155;83,19433
 429,62; 1032,286;   78,941; 1240,296;82,08902
 430,21; 1037,005;   81,443; 1277,807;79,87211
 430,80; 1021,336;   70,445; 1235,381;81,62608
 431,39; 1027,448;   53,344; 1246,926;81,61180
 431,99; 1044,804;   78,535; 1206,838;85,63912
 432,58; 1037,024;   82,639; 1251,166;81,67423
 433,17; 1020,260;   69,735; 1238,319;81,33993
 433,76; 1075,440;   71,347; 1288,314;82,50785
 434,35; 1065,393;   88,245; 1292,462;81,14388
 434,94; 1057,572;   70,849; 1318,887;79,06192
 435,53; 1037,218;   78,643; 1278,669;79,87948
 436,12; 1061,976;   70,044; 1294,267;81,02547
 436,71; 1079,256;   87,740; 1303,239;81,57273
 437,30; 1079,643;   76,941; 1299,177;82,03830
 437,89; 1086,221;   76,245; 1320,802;81,15147
 438,48; 1069,731;   65,942; 1305,731;80,96448
 439,07; 1090,881;   95,238; 1347,147;79,52997
 439,66; 1126,898;   83,648; 1375,711;80,74300
 440,25; 1126,576;   85,844; 1390,567;79,76654
 440,84; 1130,630;   79,850; 1387,984;80,32663
 441,43; 1156,682;   78,054; 1440,985;79,14032
 442,02; 1108,717;   79,650; 1411,022;77,29370
 442,61; 1147,248;   93,344; 1397,226;80,82815
 443,20; 1162,859;   94,249; 1446,625;79,01719
 443,79; 1131,110;   74,546; 1412,957;78,94168
 444,38; 1184,513;   84,248; 1461,789;79,87166
 444,97; 1184,051;   84,146; 1466,359;79,57568
 445,56; 1216,966;  101,846; 1477,038;81,08837
 446,15; 1212,419;   81,651; 1522,539;78,47715
 446,74; 1166,220;   58,644; 1462,286;78,90729
 447,33; 1229,710;   82,646; 1538,357;78,79752
 447,92; 1250,875;   78,151; 1570,720;78,57087
 448,51; 1283,823;   89,746; 1586,019;79,80345
 449,10; 1307,508;   92,045; 1608,840;80,13362
 449,69; 1325,660;   73,950; 1627,741;80,55845
 450,28; 1313,127;   66,948; 1608,251;80,85226
 450,87; 1351,283;   78,647; 1656,333;80,66476
 451,46; 1407,857;   96,048; 1702,208;81,67357
 452,05; 1412,230;   70,950; 1715,384;81,56484
 452,64; 1444,689;   70,850; 1725,182;83,04492
 453,23; 1520,777;  113,752; 1794,936;83,69251
 453,82; 1526,404;   83,451; 1800,660;84,02893
 454,40; 1532,589;   65,450; 1786,682;85,23771
 454,99; 1598,466;  101,253; 1871,891;84,55782
 455,58; 1589,497;   69,747; 1832,095;86,23438
 456,17; 1616,235;   63,852; 1873,634;85,77739
 456,76; 1695,075;   67,751; 1918,820;87,91269
 457,35; 1731,413;   78,348; 1930,490;89,25157
 457,94; 1762,652;   66,954; 1978,929;88,68833
 458,53; 1772,132;   67,350; 2010,101;87,75093
 459,12; 1866,244;   82,657; 2111,116;87,92819
 459,71; 1890,270;   58,148; 2060,071;91,51813
 460,30; 1909,498;   84,448; 2087,511;91,11298
 460,89; 1958,675;   57,551; 2129,920;91,73678
 461,48; 1993,452;   75,954; 2173,829;91,40195
 462,06; 2014,474;   68,050; 2187,303;91,84477
 462,65; 2025,800;   48,249; 2176,527;92,91788
 463,24; 2133,299;   87,456; 2288,680;92,94114
 463,83; 2099,474;   54,450; 2229,803;94,00880
 464,42; 2171,872;   88,349; 2333,687;92,79328
 465,01; 2213,289;   73,050; 2336,482;94,55723
 465,60; 2254,417;   64,050; 2384,322;94,40129
 466,19; 2318,052;   73,354; 2462,829;93,94108
 466,77; 2330,219;   81,551; 2462,939;94,42678
 467,36; 2333,073;   69,457; 2459,256;94,71990
 467,95; 2383,190;   79,551; 2466,098;96,52603
 468,54; 2431,439;   71,954; 2513,866;96,62447
 469,13; 2455,805;   69,452; 2535,977;96,74962
 469,72; 2503,269;   67,555; 2582,723;96,84099
 470,31; 2539,912;   87,855; 2629,242;96,48499
 470,90; 2560,802;   76,750; 2652,044;96,45702
 471,48; 2566,916;   32,057; 2671,875;96,02400
 472,07; 2648,968;  125,747; 2686,454;98,53611
 472,66; 2638,250;   67,853; 2748,412;95,89035
 473,25; 2633,619;   68,351; 2723,339;96,62069
 473,84; 2638,754;   55,955; 2766,545;95,28550
 474,43; 2690,348;   55,459; 2843,049;94,52212
 475,01; 2729,711;   69,254; 2885,926;94,45390
 475,60; 2735,097;   49,755; 2882,364;94,80103
 476,19; 2803,846;   74,158; 2956,932;94,68962
 476,78; 2802,973;   71,057; 2964,456;94,41890
 477,37; 2796,097;   59,355; 2945,364;94,82792
 477,95; 2863,456;   75,656; 3018,661;94,72629
 478,54; 2838,766;   63,253; 3023,691;93,75346
 479,13; 2835,166;   56,253; 3070,291;92,19900
 479,72; 2887,296;   81,154; 3090,147;93,25848
 480,31; 2918,991;   63,459; 3167,468;91,99498
 480,89; 2905,511;   60,254; 3171,026;91,46465
 481,48; 2952,393;   46,260; 3214,084;91,73909
 482,07; 2956,339;   61,654; 3233,866;91,25130
 482,66; 2922,237;   52,853; 3253,650;89,64593
 483,25; 2980,193;   78,960; 3319,884;89,51869
 483,83; 3006,482;   59,954; 3325,385;90,23397
 484,42; 2994,952;   54,354; 3355,129;89,08813
 485,01; 2998,703;   65,958; 3400,413;87,95274
 485,60; 3035,028;   73,764; 3490,590;86,66710
 486,18; 3012,456;   66,956; 3490,761;86,03000
 486,77; 3055,277;   67,252; 3519,736;86,54710
 487,36; 3070,500;   58,464; 3561,750;85,97745
 487,95; 3069,551;   59,161; 3640,781;84,05107
 488,53; 3070,980;   54,461; 3642,522;84,07100
 489,12; 3085,742;   50,563; 3722,252;82,66436
 489,71; 3029,925;   38,062; 3680,357;82,14223
 490,30; 3064,436;   61,460; 3742,503;81,57949
 490,88; 3118,423;   87,561; 3859,141;80,36054
 491,47; 3085,413;   60,663; 3867,512;79,45548
 492,06; 3093,255;   62,563; 3920,615;78,55499
 492,65; 3095,566;   59,161; 3947,060;78,09887
 493,23; 3110,621;   54,860; 3982,825;77,79503
 493,82; 3091,194;   65,853; 4018,031;76,54870
 494,41; 3093,010;   51,361; 4066,179;75,76056
 494,99; 3137,554;   73,655; 4126,945;75,59043
 495,58; 3164,136;   86,060; 4224,403;74,37943
 496,17; 3137,599;   56,356; 4198,681;74,38440
 496,76; 3165,856;   65,356; 4276,761;73,62150
 497,34; 3170,688;   54,557; 4305,235;73,30903
 497,93; 3219,916;   66,057; 4350,675;73,60887
 498,52; 3248,334;   60,059; 4454,387;72,55434
 499,10; 3297,997;   75,862; 4533,217;72,28804
 499,69; 3287,878;   55,360; 4537,006;72,12792
 500,28; 3306,391;   37,959; 4592,068;71,76886
 500,86; 3334,981;   62,862; 4698,539;70,58559
 501,45; 3351,981;   53,462; 4730,438;70,52675
 502,04; 3421,225;   53,362; 4813,958;70,74457
 502,62; 3445,599;   70,956; 4856,181;70,52215
 503,21; 3455,943;   57,856; 4939,699;69,60663
 503,80; 3510,868;   69,662; 5015,577;69,57674
 504,38; 3522,121;   58,460; 5081,425;68,95651
 504,97; 3510,168;   49,962; 5122,776;68,21078
 505,56; 3513,376;   70,859; 5194,989;67,18247
 506,14; 3562,572;   64,064; 5263,709;67,28358
 506,73; 3502,630;   23,565; 5292,507;66,02968
 507,32; 3541,317;   62,865; 5376,045;65,46836
 507,90; 3541,293;   70,860; 5443,284;64,59715
 508,49; 3522,402;   58,865; 5500,366;63,65039
 509,08; 3544,957;   67,264; 5571,931;63,17717
 509,66; 3508,165;   69,960; 5677,644;61,31238
 510,25; 3539,395;   63,561; 5737,400;61,26070
 510,83; 3537,330;   45,165; 5855,607;60,10154
 511,42; 3534,865;   61,968; 5895,913;59,52914
 512,01; 3533,115;   59,164; 5980,328;58,67007
 512,59; 3505,768;   46,562; 6041,676;57,70042
 513,18; 3485,610;   59,961; 6114,379;56,58097
 513,77; 3481,901;   42,257; 6171,797;56,11586
 514,35; 3507,083;   37,763; 6190,255;56,38887
 514,94; 3499,896;   58,662; 6323,517;54,92920
 515,52; 3489,675;   48,166; 6358,342;54,53904
 516,11; 3519,158;   80,665; 6474,047;53,78207
 516,69; 3489,763;   41,959; 6446,727;53,83183
 517,28; 3512,974;   83,358; 6541,973;53,10143
 517,87; 3461,731;   45,558; 6604,054;52,08775
 518,45; 3480,718;   74,858; 6626,192;51,98727
 519,04; 3496,333;   54,258; 6707,970;51,73164
 519,62; 3526,155;   55,863; 6774,114;51,65470
 520,21; 3537,147;   24,466; 6828,002;51,63023
 520,79; 3613,779;   52,068; 7000,875;51,25644
 521,38; 3647,808;   52,960; 6995,363;51,78103
 521,97; 3687,894;   43,068; 7141,554;51,34652
 522,55; 3702,905;   67,759; 7195,230;51,00190
 523,14; 3764,576;   26,759; 7180,289;52,25137
 523,72; 3879,380;   77,561; 7383,422;52,03793
 524,31; 3879,330;   71,665; 7406,107;51,91486
 524,89; 3958,107;   48,468; 7526,815;52,27946
 525,48; 3995,062;   21,666; 7603,580;52,40624
 526,06; 4084,915;   56,264; 7633,128;53,17042
 526,65; 4137,541;   72,370; 7803,105;52,58452
 527,23; 4217,412;   46,262; 7840,596;53,51515
 527,82; 4236,420;   37,967; 7905,978;53,36105
 528,41; 4321,890;   67,366; 8041,021;53,35727
 528,99; 4375,602;   66,365; 8108,167;53,58547
 529,58; 4399,540;   42,562; 8168,736;53,61660
 530,16; 4493,810;   49,461; 8315,379;53,76715
 530,75; 4608,543;   73,964; 8417,069;54,35122
 531,33; 4624,262;   45,566; 8440,980;54,53806
 531,92; 4695,564;   48,560; 8567,344;54,55009
 532,50; 4794,354;   87,770; 8706,468;54,60899
 533,09; 4803,289;   65,665; 8807,204;54,19667
 533,67; 4862,861;   63,458; 8952,011;53,99533
 534,26; 4921,149;   65,760; 9007,665;54,29927
 534,84; 4986,866;   68,461; 9127,061;54,29543
 535,42; 5034,644;   61,564; 9205,969;54,38385
 536,01; 5108,155;   79,263; 9330,215;54,36081
 536,59; 5147,947;   43,366; 9482,202;54,08062
 537,18; 5198,478;   77,360; 9568,605;53,95623
 537,76; 5219,458;   56,972; 9764,700;53,17913
 538,35; 5306,322;   59,368; 9892,694;53,35889
 538,93; 5355,315;   72,664; 9941,828;53,52683
 539,52; 5431,541;   57,370;10111,405;53,45287
 540,10; 5482,067;   63,269;10309,029;52,88820
 540,69; 5547,885;   68,763;10444,071;52,80924
 541,27; 5579,597;   58,262;10514,917;52,80211
 541,85; 5632,003;   47,366;10658,783;52,62857
 542,44; 5623,393;   56,460;10765,484;51,98357
 543,02; 5795,267;   80,369;10952,729;52,56354
 543,61; 5803,449;   77,067;11102,218;51,93926
 544,19; 5844,132;   55,066;11264,023;51,64678
 544,78; 5870,119;   62,766;11296,562;51,69537
 545,36; 6004,224;   77,469;11521,011;51,79127
 545,94; 5975,443;   54,564;11563,069;51,44786
 546,53; 6034,414;   52,771;11724,882;51,24731
 547,11; 6121,237;   90,668;11879,873;51,15331
 547,70; 6130,278;   75,860;11954,706;50,96807
 548,28; 6176,702;   47,965;12093,066;50,88157
 548,86; 6271,302;   81,365;12327,767;50,54494
 549,45; 6251,094;   33,768;12364,953;50,41953
 550,03; 6385,292;   76,467;12507,537;50,75046
 550,62; 6485,875;   63,566;12662,842;50,97364
 551,20; 6481,449;   61,467;12808,418;50,36484
 551,78; 6588,700;   61,164;12952,850;50,63369
 552,37; 6686,244;   55,864;13112,469;50,78181
 552,95; 6689,358;   56,765;13214,547;50,40814
 553,54; 6773,930;   49,965;13393,207;50,39229
 554,12; 6847,064;   67,167;13498,797;50,47710
 554,70; 6992,137;   67,568;13736,973;50,65743
 555,29; 7039,645;   61,965;13856,285;50,58372
 555,87; 7115,197;   60,170;13987,786;50,65495
 556,45; 7146,225;   57,162;14154,058;50,28811
 557,04; 7213,206;   43,667;14376,600;50,02144
 557,62; 7349,105;   68,867;14525,499;50,35916
 558,20; 7449,086;   42,671;14799,940;50,18825
 558,79; 7487,079;  100,368;14905,875;49,89164
 559,37; 7518,249;   49,867;15000,418;49,95389
 559,95; 7601,581;   46,669;15169,691;49,95636
 560,54; 7683,065;   71,768;15324,613;49,90084
 561,12; 7730,519;   50,866;15485,562;49,75578
 561,70; 7830,752;   50,369;15679,551;49,78113
 562,29; 7892,822;   61,768;15810,994;49,72342
 562,87; 7997,894;   73,168;16023,953;49,68236
 563,45; 8019,594;   71,068;16194,754;49,29720
 564,04; 8040,312;   54,362;16227,195;49,37879
 564,62; 8118,409;   37,769;16438,332;49,27050
 565,20; 8279,382;   59,962;16715,838;49,34847
 565,78; 8298,273;   70,765;16797,326;49,18828
 566,37; 8363,504;   71,066;17011,283;48,95119
 566,95; 8433,468;   52,969;17124,330;49,09098
 567,53; 8474,725;   67,262;17308,857;48,76267
 568,12; 8505,901;   62,265;17367,766;48,79163
 568,70; 8664,687;   85,264;17565,889;49,07961
 569,28; 8642,952;   61,069;17745,252;48,52858
 569,86; 8726,177;   67,767;17910,758;48,52555
 570,45; 8802,139;   78,569;18124,689;48,34041
 571,03; 8818,453;   53,962;18259,898;48,14084
 571,61; 8989,584;   46,571;18424,824;48,66084
 572,19; 8899,127;   54,263;18395,773;48,22320
 572,78; 8971,379;   70,668;18668,975;47,85764
 573,36; 9121,543;   84,264;18797,668;48,29308
 573,94; 9116,400;   44,064;18892,750;48,13246
 574,52; 9225,892;   54,559;19030,768;48,33069
 575,11; 9212,457;   37,264;19159,830;47,98097
 575,69; 9299,562;   53,566;19268,680;48,11835
 576,27; 9400,852;   47,161;19391,381;48,35393
 576,85; 9440,943;   43,264;19549,668;48,17741
 577,44; 9583,325;   30,262;19814,158;48,28707
 578,02; 9577,034;   32,159;19753,887;48,39776
 578,60; 9702,628;   50,464;20073,791;48,20460
 579,18; 9751,342;   51,963;20160,752;48,23452
 579,76; 9768,515;   40,264;20300,129;48,01735
 580,35; 9837,082;   60,170;20436,707;47,98123
 580,93; 9940,936;   59,667;20641,557;48,00953
 581,51;10003,454;   24,770;20697,168;48,27057
 582,09;10095,483;   58,663;20755,756;48,49387
 582,67;10129,749;   49,567;20971,318;48,18039
 583,26;10160,665;   28,568;21227,014;47,79641
 583,84;10268,271;   14,164;21413,709;47,91741
 584,42;10302,387;   48,064;21513,287;47,77180
 585,00;10436,562;   81,366;21772,180;47,74000
 585,58;10444,705;   25,167;21912,299;47,60577
 586,17;10526,180;   46,761;21948,521;47,84738
 586,75;10469,747;    6,666;22026,902;47,51575
 587,33;10630,320;   47,767;22191,678;47,78990
 587,91;10668,047;   74,866;22390,201;47,47041
 588,49;10689,024;   63,962;22349,758;47,67639
 589,07;10584,807;   45,468;22403,215;47,13954
 589,65;10595,533;   28,267;22444,439;47,14126
 590,24;10661,553;   42,562;22447,799;47,39513
 590,82;10571,566;   28,261;22484,160;46,95116
 591,40;10604,872;   41,464;22520,209;46,99287
 591,98;10656,563;   45,759;22558,227;47,13301
 592,56;10674,967;   61,161;22699,961;46,88325
 593,14;10652,363;   43,359;22728,928;46,76543
 593,72;10658,030;   29,765;22889,107;46,49419
 594,30;10675,135;   36,759;22797,486;46,74005
 594,89;10610,315;   41,364;22862,428;46,31226
 595,47;10628,080;   38,961;22922,623;46,27371
 596,05;10694,205;   30,267;23003,799;46,41837
 596,63;10681,605;   31,167;23056,199;46,25591
 597,21;10703,375;   36,766;23145,441;46,15846
 597,79;10718,834;   35,467;23166,039;46,18722
 598,37;10657,311;   36,669;23222,748;45,80611
 598,95;10661,847;   50,766;23305,301;45,63016
 599,53;10615,301;   46,757;23207,996;45,63030
 600,11;10617,059;   48,665;23341,947;45,37099
 600,70;10548,413;   57,363;23315,111;45,10776
 601,28;10533,472;   38,564;23424,809;44,87641
 601,86;10442,646;   61,766;23355,102;44,56588
 602,44;10398,866;   23,661;23449,660;44,28927
 603,02;10356,128;   38,656;23576,521;43,83351
 603,60;10341,146;   54,858;23663,232;43,57051
 604,18;10259,698;   69,263;23594,734;43,31660
 604,76;10157,883;   59,263;23642,154;42,82181
 605,34;10044,760;   27,565;23530,764;42,62056
 605,92; 9949,938;   59,561;23453,719;42,27712
 606,50; 9903,354;   17,662;23498,998;42,10021
 607,08; 9832,962;   31,666;23394,881;41,95183
 607,66; 9814,275;   39,266;23561,643;41,55622
 608,24; 9767,277;   46,067;23522,059;41,40916
 608,82; 9744,356;   26,164;23532,031;41,34369
 609,40; 9773,590;   46,466;23471,021;41,52533
 609,98; 9756,815;   18,864;23505,928;41,46091
 610,56; 9720,208;   43,861;23497,662;41,25705
 611,14; 9778,146;   30,765;23481,086;41,56609
 611,72; 9759,002;   42,665;23572,467;41,29375
 612,30; 9758,812;   24,962;23468,496;41,52040
 612,88; 9834,104;   60,659;23517,730;41,66524
 613,46; 9679,354;   21,862;23505,697;41,12400
 614,04; 9697,037;   30,068;23461,873;41,25576
 614,62; 9606,052;   41,561;23489,982;40,78949
 615,20; 9539,107;   52,768;23402,416;40,62733
 615,78; 9481,067;   25,569;23463,430;40,34284
 616,36; 9522,700;   41,364;23400,150;40,59002
 616,94; 9463,075;    7,666;23272,242;40,64295
 617,52; 9364,136;   24,067;23373,656;40,00100
 618,10; 9359,520;   63,559;23336,107;39,94389
 618,68; 9314,004;   17,966;23253,184;40,00840
 619,26; 9233,351;   39,268;23398,834;39,35896
 619,84; 9156,898;   18,963;23277,133;39,28914
 620,42; 9082,030;   31,165;23313,506;38,87438
 621,00; 9062,130;   28,865;23209,607;38,96883
 621,58; 8995,178;   38,760;23216,406;38,64248
 622,16; 8949,912;   49,270;23335,164;38,22332
 622,74; 8892,875;   47,066;23327,742;37,99636
 623,32; 8781,731;   42,166;23291,223;37,59106
 623,90; 8704,956;   66,971;23311,484;37,16139
 624,48; 8601,253;   32,662;23196,598;36,99108
 625,05; 8541,753;   34,562;23105,098;36,87470
 625,63; 8418,354;   52,962;23188,799;36,15772
 626,21; 8228,911;   38,262;23117,596;35,48910
 626,79; 8235,148;   53,967;23219,719;35,31585
 627,37; 8027,497;   28,162;23090,717;34,68538
 627,95; 7974,307;   72,768;23200,215;34,16520
 628,53; 7844,930;   49,365;23176,607;33,70728
 629,11; 7698,848;   48,259;23043,449;33,27039
 629,69; 7653,309;   53,369;23256,932;32,75333
 630,27; 7554,198;   80,763;23105,434;32,45838
 630,84; 7476,753;   43,862;23021,197;32,34880
 631,42; 7463,036;   54,367;23319,656;31,84430
 632,00; 7352,791;   45,459;23125,768;31,66046
 632,58; 7338,585;   50,263;23105,172;31,61288
 633,16; 7391,741;   49,870;23096,906;31,85603
 633,74; 7339,087;   56,264;23018,488;31,71654
 634,32; 7344,323;   45,661;23007,842;31,78558
 634,90; 7446,069;   51,970;23195,746;31,94854
 635,47; 7429,865;   38,860;23035,645;32,13930
 636,05; 7460,323;   37,461;22989,342;32,34098
 636,63; 7498,230;   45,965;23104,807;32,31847
 637,21; 7555,715;   67,464;23150,529;32,44045
 637,79; 7582,989;   71,465;23192,904;32,48727
 638,37; 7572,241;   54,055;23070,883;32,66387
 638,94; 7553,845;   33,265;23100,686;32,60261
 639,52; 7617,945;   41,665;23195,285;32,72180
 640,10; 7641,321;   64,264;23215,900;32,72796
 640,68; 7593,376;   54,164;23175,334;32,60740
 641,26; 7582,231;   35,864;23250,268;32,50726
 641,84; 7539,486;   39,164;23235,002;32,33477
 642,41; 7485,841;   28,264;23192,936;32,19375
 642,99; 7468,196;   48,464;23145,568;32,12408
 643,57; 7440,651;   22,064;23158,402;32,06465
 644,15; 7363,606;   27,064;23178,035;31,69000
 644,73; 7325,161;   37,564;23277,568;31,35798
 645,30; 7284,716;   55,264;23230,303;31,19499
 645,88; 7300,671;   44,964;23362,635;31,11677
 646,46; 7247,826;   59,264;23447,568;30,73571
 647,04; 7252,481;   51,864;23367,902;30,88268
 647,61; 7194,236;   46,564;23396,336;30,61131
 648,19; 7153,491;   61,664;23433,369;30,34364
 648,77; 7198,146;   26,264;23442,002;30,62847
 649,35; 7209,901;   51,064;23590,137;30,41257
 649,92; 7199,756;   42,464;23596,070;30,38724
 650,50; 7121,811;   30,064;23551,104;30,15065
 651,08; 7189,266;   39,964;23450,537;30,53877
 651,66; 7173,920;   21,864;23534,770;30,41758
 652,23; 7156,976;   39,064;23561,004;30,26073
 652,81; 7121,531;   36,464;23644,137;30,01171
 653,39; 7114,085;   56,164;23647,170;29,91785
 653,97; 7061,041;   37,065;23882,504;29,45627
 654,54; 7049,496;   23,565;23823,137;29,52125
 655,12; 6959,851;   30,965;23831,971;29,11174
 655,70; 6970,005;   42,065;23962,805;28,96207
 656,28; 6940,460;   32,765;23947,037;28,88524
 656,85; 6895,115;   44,065;24051,070;28,53771
 657,43; 6847,970;   -1,035;23831,305;28,73828
 658,01; 6872,525;   21,465;24078,539;28,47836
 658,58; 6890,980;   55,165;24234,371;28,27146
 659,16; 6826,235;   51,965;24154,105;28,10651
 659,74; 6903,791;   59,465;24338,039;28,19081
 660,32; 6920,245;   71,665;24327,672;28,23457
 660,89; 6893,800;   34,265;24347,305;28,21340
 661,47; 6973,455;   51,665;24464,939;28,35257
 662,05; 7056,710;   25,365;24587,373;28,62692
 662,62; 7247,365;   59,665;24584,006;29,30843
 663,20; 7396,820;   80,665;24740,139;29,66874
 663,78; 7489,775;   47,965;24902,773;29,94113
 664,35; 7647,030;   52,465;24921,006;30,53885
 664,93; 7718,085;   64,465;25123,539;30,54231
 665,51; 7809,440;   49,565;25170,973;30,88949
 666,08; 7862,395;   30,165;25185,707;31,13521
 666,66; 8136,750;   47,465;25667,539;31,57401
 667,23; 8263,905;   51,765;25732,773;31,97748
 667,81; 8393,760;   65,865;25889,307;32,24936
 668,39; 8450,015;   43,265;26047,141;32,32883
 668,96; 8559,670;   54,665;26309,074;32,39458
 669,54; 8567,625;   38,765;26408,408;32,34348
 670,12; 8668,980;   51,165;26808,740;32,20701
 670,69; 8736,935;   64,165;26950,674;32,25696
 671,27; 8681,990;   25,565;27096,008;31,97740
 671,84; 8690,445;   40,665;27105,240;31,95979
 672,42; 8751,100;   66,265;27253,875;31,94409
 673,00; 8669,155;   57,165;27531,408;31,34569
 673,57; 8512,109;   59,965;27276,441;31,05525
 674,15; 8479,064;   64,065;27613,475;30,54512
 674,72; 8401,319;   58,565;27536,209;30,36197
 675,30; 8312,875;   69,466;27513,541;30,03712
 675,88; 8240,130;   36,266;27573,176;29,79225
 676,45; 8241,885;   59,466;27677,309;29,62729
 677,03; 8166,940;   67,866;27525,043;29,49711
 677,60; 8182,795;   41,466;27770,576;29,36023
 678,18; 8240,250;   59,466;27877,510;29,40819
 678,76; 8193,005;   40,766;27809,143;29,35800
 679,33; 8307,960;   57,666;27813,176;29,72489
 679,91; 8299,415;   44,266;27813,311;29,72788
 680,48; 8433,369;   28,766;27740,242;30,32896
 681,06; 8563,324;   50,866;27735,176;30,74831
 681,63; 8655,479;   37,566;27736,209;31,11313
 682,21; 8854,034;   67,966;27797,543;31,68483
 682,78; 8844,789;   20,566;27459,576;32,15941
 683,36; 9018,744;   46,966;27565,510;32,60266
 683,93; 9074,699;   30,466;27450,645;32,98386
 684,51; 9183,454;   26,166;27477,277;33,35853
 685,08; 9395,209;   38,966;27733,711;33,78346
 685,66; 9366,265;   53,066;27694,045;33,69345
 686,24; 9528,619;   33,766;27796,578;34,19990
 686,81; 9588,574;   57,666;27899,910;34,23182
 687,39; 9647,229;   38,866;27807,844;34,60107
 687,96; 9678,284;   54,166;27850,479;34,62372
 688,54; 9645,640;   30,866;27984,811;34,39505
 689,11; 9707,395;   26,966;28043,545;34,55250
 689,69; 9683,749;   29,666;28019,279;34,49166
 690,26; 9791,604;   59,466;28289,313;34,47464
 690,84; 9700,159;   50,066;28239,846;34,23259
 691,41; 9691,714;   35,966;28403,879;34,03757
 691,98; 9627,469;   31,466;28427,912;33,79297
 692,56; 9630,924;   32,866;28437,445;33,79053
 693,13; 9785,979;   64,866;28655,080;34,00154
 693,71; 9681,034;   24,466;28657,912;33,72478
 694,28; 9738,189;   41,966;28715,945;33,81541
 694,86; 9834,044;   47,266;28928,879;33,88584
 695,43; 9879,099;   61,366;29100,912;33,80815
 696,01;10081,954;   36,266;29145,547;34,51026
 696,58;10166,809;   42,167;29083,879;34,86241
 697,16;10258,464;   38,067;29126,414;35,13571
 697,73;10503,519;   63,467;29338,246;35,66227
 698,30;10623,474;   51,867;29223,980;36,23874
 698,88;10851,729;   40,467;29558,613;36,62582
 699,45;10896,784;   35,367;29765,848;36,53294
 700,03;11110,839;   56,067;29750,980;37,22783
 700,60;11291,994;   56,267;29850,613;37,71094
 701,18;11425,249;   61,867;29963,947;38,00198
 701,75;11715,404;   74,367;30094,682;38,77720
 702,32;11660,559;   50,367;29901,914;38,89310
 702,90;11777,313;   52,467;30254,148;38,82183
 703,47;11951,369;   51,367;30428,881;39,17372
 704,05;12060,023;   67,767;30546,715;39,34603
 704,62;12111,979;   39,867;30587,848;39,51853
 705,19;12196,334;   43,667;30586,982;39,78830
 705,77;12229,889;   29,967;30618,314;39,88421
 706,34;12256,644;   61,667;30627,049;39,89800
 706,91;12168,198;   46,367;30673,883;39,57824
 707,49;12330,653;   57,267;30976,316;39,69523
 708,06;12441,309;   66,367;31089,049;39,88998
 708,64;12368,863;   25,767;31093,582;39,72953
 709,21;12393,919;   58,167;31179,316;39,63784
 709,78;12431,974;   41,367;31281,150;39,66291
 710,36;12530,028;   61,667;31419,684;39,76132
 710,93;12625,384;   50,567;31562,416;39,90504
 711,50;12692,639;   44,467;31506,049;40,20196
 712,08;12833,894;   76,567;31925,383;40,05589
 712,65;12867,648;   73,667;31775,916;40,35670
 713,22;12833,403;   69,067;31900,250;40,10010
 713,80;12995,458;   84,167;31966,883;40,49621
 714,37;13114,813;   55,767;31827,018;41,10334
 714,94;13216,068;   53,967;31727,551;41,55545
 715,52;13391,823;   47,867;31732,984;42,11427
 716,09;13461,378;   65,467;31891,918;42,09049
 716,66;13576,533;   73,467;31935,051;42,38040
 717,23;13524,788;   66,867;31908,484;42,26519
 717,81;13628,144;   50,168;31812,018;42,74932
 718,38;13654,099;   47,468;31671,252;43,02657
 718,95;13743,153;   59,068;31618,984;43,35907
 719,53;13864,008;   56,568;31661,418;43,68773
 720,10;13791,963;   59,968;31481,252;43,70285
 720,67;13756,718;   35,768;31355,984;43,80861
 721,24;13753,773;   59,468;31256,020;43,89686
 721,82;13839,028;   49,968;31236,053;44,21543
 722,39;13753,683;   64,068;31235,885;43,91664
 722,96;13874,838;   64,968;31261,420;44,26744
 723,53;13809,993;   88,268;31151,953;44,17288
 724,11;13868,648;   61,568;31207,486;44,33030
 724,68;13900,503;   71,568;31242,020;44,36553
 725,25;13936,958;   72,768;31399,953;44,25610
 725,82;14015,913;   96,068;31564,387;44,23447
 726,40;13976,968;   62,668;31714,820;43,96004
 726,97;13937,823;   62,168;31875,354;43,61605
 727,54;13966,378;   46,968;31801,486;43,83442
 728,11;14078,533;   49,568;32045,820;43,84565
 728,69;14142,388;   39,568;31938,953;44,21032
 729,26;14196,942;   53,568;32105,088;44,12700
 729,83;14247,698;   53,268;32264,621;44,06654
 730,40;14315,753;   66,768;32291,754;44,21720
 730,97;14490,607;   44,268;32590,588;44,38701
 731,55;14595,862;   41,468;32755,820;44,48932
 732,12;14666,018;   86,268;32841,656;44,51100
 732,69;14652,873;   66,968;32889,988;44,43803
 733,26;14739,628;   55,168;32930,520;44,66708
 733,83;14917,883;   41,168;32979,055;45,16597
 734,41;14975,638;   65,468;32991,590;45,28371
 734,98;15052,793;   51,368;33155,621;45,31570
 735,55;15175,147;   43,168;33183,656;45,66010
 736,12;15243,503;   65,968;33377,289;45,56269
 736,69;15235,958;   76,968;33377,922;45,52119
 737,26;15155,112;   57,468;33552,254;45,07461
 737,84;15266,867;   70,768;33487,188;45,47495
 738,41;15288,022;   63,168;33492,422;45,54351
 738,98;15315,277;   63,569;33375,055;45,78513
 739,55;15285,133;   49,669;33377,789;45,71354
 740,12;15368,188;   62,969;33678,023;45,53085
 740,69;15407,343;   70,569;33575,656;45,77446
 741,26;15537,197;   56,269;33557,391;46,21018
 741,83;15427,853;   53,869;33719,523;45,66667
 742,41;15353,107;   56,169;33833,055;45,28819
 742,98;15499,962;   91,469;33874,590;45,61003
 743,55;15484,317;   53,569;33836,824;45,67573
 744,12;15381,473;   50,469;33859,855;45,34541
 744,69;15325,027;   59,569;33848,492;45,17888
 745,26;15357,683;   42,169;33677,723;45,53370
 745,83;15419,638;   58,769;33854,355;45,45229
 746,40;15344,592;   57,969;33844,789;45,24434
 746,97;15268,547;   44,769;33828,125;45,06295
 747,55;15299,402;   62,269;33966,957;44,94108
 748,12;15299,558;   57,869;33910,191;45,02406
 748,69;15382,212;   68,769;33877,625;45,29418
 749,26;15402,167;   65,069;33958,559;45,25087
 749,83;15420,822;   42,569;33911,992;45,40453
 750,40;15433,077;   89,669;34158,824;45,03607
 750,97;15537,232;   96,269;34144,160;45,35072
 751,54;15548,787;   40,569;33980,793;45,69274
 752,11;15464,942;   52,969;33874,727;45,56822
 752,68;15444,297;   87,869;33912,859;45,39965
 753,25;15475,652;   60,269;33774,594;45,72354
 753,82;15533,907;   65,069;33810,527;45,83976
 754,39;15549,362;   75,169;33727,160;45,98299
 754,96;15504,317;   60,069;33616,395;46,02485
 755,53;15543,972;   29,469;33796,527;45,94567
 756,10;15492,927;   64,169;33720,961;45,84144
 756,67;15485,481;   73,369;33813,395;45,67902
 757,24;15478,837;   72,769;33740,426;45,75925
 757,81;15467,191;   16,469;33677,762;45,90056
 758,38;15471,047;   54,569;33822,695;45,65393
 758,95;15428,302;   79,469;33743,426;45,59426
 759,52;15401,457;   57,469;33615,859;45,72325
 760,09;15408,212;   68,570;33306,992;46,15033
 760,66;15342,467;   59,570;33309,727;45,96338
 761,23;15236,021;   91,070;33353,961;45,53107
 761,80;15174,377;   56,270;33295,793;45,48232
 762,37;15162,531;   68,970;33167,727;45,60160
 762,94;15110,786;   70,970;33187,461;45,41489
 763,51;14881,642;   36,070;32949,793;45,10450
 764,08;14931,396;   66,270;32998,527;45,13850
 764,65;14911,352;   69,570;32798,961;45,34695
 765,22;14758,007;   54,670;32804,496;44,89592
 765,79;14833,661;   77,370;32691,928;45,24449
 766,36;14755,416;   73,170;32743,063;44,94121
 766,93;14855,371;   68,970;32551,295;45,52138
 767,50;14818,826;   89,470;32828,328;44,99044
 768,07;14785,281;   63,870;32699,262;45,10873
 768,64;14722,036;   86,470;32572,596;45,05174
 769,21;14683,691;   57,970;32359,729;45,27841
 769,78;14766,446;   78,770;32244,963;45,66184
 770,34;14612,901;   45,570;32031,195;45,54337
 770,91;14635,456;   58,470;31921,430;45,74900
 771,48;14596,012;   62,370;31836,863;45,73996
 772,05;14511,066;   66,470;31610,697;45,79157
 772,62;14504,621;   42,670;31443,029;46,05664
 773,19;14618,876;   59,370;31579,764;46,19075
 773,76;14436,731;   71,070;31506,297;45,69925
 774,33;14370,386;   74,170;31447,330;45,56830
 774,90;14232,941;   52,870;31206,064;45,51723
 775,47;14212,296;   59,970;30957,498;45,80407
 776,03;14150,051;   73,470;30984,330;45,53927
 776,60;14174,106;   55,970;30757,863;45,98458
 777,17;14135,661;   65,470;30698,098;45,93204
 777,74;13970,516;   30,870;30522,031;45,71700
 778,31;14001,071;   68,970;30582,064;45,65942
 778,88;13909,926;   30,470;30366,898;45,75178
 779,45;13814,481;   75,770;30358,131;45,36869
 780,01;13830,736;   58,370;30299,664;45,54159
 780,58;13628,091;   60,570;30177,998;45,04874
 781,15;13569,946;   38,771;29979,432;45,19331
 781,72;13569,801;   66,771;29962,266;45,16744
 782,29;13413,156;   51,771;29667,100;45,11645
 782,86;13366,911;   55,571;29617,732;45,02831
 783,42;13311,065;   56,171;29598,166;44,86797
 783,99;13214,521;   66,671;29482,100;44,69712
 784,56;13216,976;   55,171;29320,232;44,97446
 785,13;13130,831;   40,271;29247,266;44,81995
 785,70;13057,786;   49,071;29060,299;44,84028
 786,26;13020,641;   51,671;28910,732;44,93899
 786,83;13051,195;   84,371;28889,166;45,01620
 787,40;12985,351;   57,171;28783,500;45,00464
 787,97;12908,706;   43,971;28581,133;45,08064
 788,54;12881,661;   70,371;28515,268;45,03898
 789,10;12793,815;   57,971;28344,400;45,02457
 789,67;12797,671;   70,371;28245,334;45,17237
 790,24;12756,626;   51,071;28193,768;45,14690
 790,81;12567,581;   88,271;27914,400;44,84745
 791,37;12565,735;   73,671;27872,135;44,93797
 791,94;12652,690;   70,771;27886,367;45,23333
 792,51;12635,245;   46,271;27539,201;45,78986
 793,08;12703,400;   69,771;27555,234;45,96477
 793,64;12525,556;   71,271;27455,168;45,48032
 794,21;12454,610;   69,671;27250,602;45,56481
 794,78;12357,266;   53,071;27147,035;45,41305
 795,35;12340,820;   73,471;27007,969;45,54512
 795,91;12136,775;   48,071;26789,301;45,20624
 796,48;12043,730;   55,771;26710,734;44,97459
 797,05;12005,285;   57,671;26624,369;44,97214
 797,62;11942,440;   41,971;26600,701;44,80813
 798,18;11855,195;   57,471;26410,736;44,76760
 798,75;11739,450;   56,571;26279,770;44,55169
 799,32;11680,205;   60,771;26209,102;44,43662
 799,88;11604,460;   55,971;26051,535;44,42484
 800,45;11477,215;   33,971;25945,270;44,16314
 801,02;11492,670;   65,271;25880,104;44,26679
 801,58;11375,125;   90,872;25660,436;44,13158
 802,15;11270,680;   72,872;25615,270;43,84008
 802,72;11104,936;   66,172;25404,703;43,56513
 803,28;11078,990;   49,172;25288,938;43,70016
 803,85;11049,545;   41,972;25144,871;43,84981
 804,42;11042,200;   77,772;24948,004;44,08655
 804,98;10983,455;  100,672;24935,537;43,82059
 805,55;10905,910;   56,972;24702,371;44,02014
 806,12;10849,165;   83,572;24611,004;43,89205
 806,68;10817,320;   66,472;24493,738;44,01167
 807,25;10885,275;   74,972;24436,271;44,37491
 807,82;10789,729;   86,872;24407,805;44,00677
 808,38;10768,085;   73,672;24367,037;44,02195
 808,95;10806,640;   62,972;24166,971;44,57214
 809,52;10763,495;   50,272;24162,004;44,43158
 810,08;10723,950;   55,172;23994,938;44,56509
 810,65;10746,805;   77,172;24169,672;44,28612
 811,21;10773,359;   69,972;24123,404;44,49838
 811,78;10675,215;   92,472;24337,539;43,64906
 812,35;10667,569;   64,972;24173,871;43,97794
 812,91;10606,325;   90,072;24239,705;43,54622
 813,48;10472,479;   68,172;24202,738;43,10957
 814,04;10482,135;   64,172;24088,373;43,36445
 814,61;10446,189;   77,572;24176,006;43,02610
 815,18;10172,045;   67,772;23892,539;42,41079
 815,74;10122,899;   69,772;23709,172;42,52700
 816,31;10071,354;   83,372;23614,406;42,44600
 816,87; 9949,210;   43,272;23489,641;42,24935
 817,44; 9876,665;   76,972;23452,273;41,92328
 818,00; 9799,220;   43,272;23159,506;42,20388
 818,57; 9774,475;   71,872;23076,340;42,17703
 819,14; 9655,430;   82,872;22924,273;41,90880
 819,70; 9679,784;   72,672;22792,707;42,28476
 820,27; 9625,239;   62,972;22691,941;42,25675
 820,83; 9558,095;   70,072;22541,373;42,22284
 821,40; 9576,350;   98,072;22431,908;42,43909
 821,96; 9435,404;   75,272;22315,541;42,08642
 822,53; 9454,959;   70,973;22257,574;42,29574
 823,09; 9444,914;   81,073;22073,309;42,57794
 823,66; 9393,869;   68,173;21862,541;42,78948
 824,22; 9465,124;   77,173;21851,674;43,11443
 824,79; 9425,079;   75,473;21561,408;43,51501
 825,35; 9391,734;   65,173;21648,041;43,21280
 825,92; 9302,089;   75,173;21398,875;43,27070
 826,48; 9233,244;   87,673;21501,309;42,70910
 827,05; 9268,799;   89,573;21448,242;42,97658
 827,61; 9086,354;   75,273;21249,076;42,55769
 828,18; 9067,609;   60,873;21191,209;42,62467
 828,74; 8943,664;   91,673;21053,543;42,22901
 829,31; 8976,520;   83,373;21002,176;42,51269
 829,87; 8911,174;   73,073;20733,709;42,77749
 830,44; 8887,929;   85,173;20631,443;42,84357
 831,00; 8840,584;   91,273;20673,977;42,50807
 831,57; 8783,139;  101,573;20631,609;42,28714
 832,13; 8609,794;   72,073;20323,344;42,15894
 832,69; 8577,249;   58,173;20309,477;42,06680
 833,26; 8529,404;   85,473;20322,711;41,72472
 833,82; 8483,359;   93,073;20197,744;41,73302
 834,39; 8434,614;   78,773;20137,477;41,65694
 834,95; 8441,169;   57,173;19959,410;42,12590
 835,52; 8408,524;   87,873;19851,744;42,10031
 836,08; 8514,479;   95,573;19951,877;42,39916
 836,64; 8466,434;   76,273;19800,711;42,53688
 837,21; 8414,089;   88,673;19552,443;42,77391
 837,77; 8445,644;   91,873;19491,777;43,06088
 838,34; 8464,398;   67,473;19470,012;43,27746
 838,90; 8429,054;   64,473;19306,045;43,47140
 839,46; 8416,608;   83,873;19312,479;43,33510
 840,03; 8444,464;   76,173;19300,811;43,52899
 840,59; 8358,818;   85,873;19175,645;43,33706
 841,16; 8380,573;  105,173;19156,578;43,43722
 841,72; 8199,528;   59,373;18965,512;43,05562
 842,28; 8192,783;   77,873;18857,246;43,21183
 842,85; 8221,938;   95,573;18812,578;43,41702
 843,41; 8247,193;  105,374;18740,813;43,68998
 843,97; 8200,148;   89,174;18686,846;43,61285
 844,54; 8087,503;  104,774;18624,979;43,10282
 845,10; 8017,559;   89,174;18523,713;43,00832
 845,67; 7930,213;   68,774;18413,445;42,85408
 846,23; 7931,969;   78,674;18361,080;42,95548
 846,79; 7861,023;   90,474;18265,613;42,75373
 847,36; 7758,479;   55,774;18179,047;42,50173
 847,92; 7714,133;   84,874;18034,680;42,50330
 848,48; 7666,688;   41,874;18039,213;42,36634
 849,04; 7645,744;   62,374;17949,447;42,39581
 849,61; 7639,298;   56,274;17918,580;42,45266
 850,17; 7583,753;   68,174;17819,514;42,33810
 850,73; 7605,008;   71,474;17764,848;42,57828
 851,30; 7541,063;   46,074;17669,881;42,52764
 851,86; 7620,519;   75,874;17597,914;43,05803
 852,42; 7606,273;   51,174;17568,348;43,12967
 852,99; 7619,828;   79,274;17583,082;43,07951
 853,55; 7639,883;   83,174;17542,514;43,28176
 854,11; 7521,038;   70,074;17432,049;42,91542
 854,67; 7553,993;   85,474;17420,881;43,08246
 855,24; 7615,448;   51,874;17213,414;44,07282
 855,80; 7539,203;   76,874;17244,848;43,46657
 856,36; 7578,158;   80,574;17175,881;43,85756
 856,92; 7446,213;   54,474;17027,215;43,55065
 857,49; 7490,468;   81,274;17048,248;43,66833
 858,05; 7400,023;   67,274;16968,482;43,38594
 858,61; 7343,878;   65,774;17003,316;42,97025
 859,17; 7283,133;   77,374;16904,250;42,82292
 859,74; 7226,588;   82,074;16836,883;42,64157
 860,30; 7107,143;   93,074;16663,016;42,33008
 860,86; 7097,898;   72,074;16692,350;42,27261
 861,42; 7083,753;   74,674;16545,883;42,55352
 861,99; 7078,708;   54,674;16506,717;42,69399
 862,55; 6971,663;   66,374;16393,051;42,29452
 863,11; 6901,318;   75,174;16437,283;41,71922
 863,67; 6831,473;   61,274;16290,117;41,71707
 864,23; 6798,128;   80,175;16199,351;41,67678
 864,80; 6765,283;   69,175;16081,384;41,81877
 865,36; 6731,038;   71,875;16120,817;41,49285
 865,92; 6739,893;   96,175;16088,751;41,54251
 866,48; 6703,748;   67,375;15987,384;41,68574
 867,04; 6672,403;   60,675;15891,418;41,76512
 867,60; 6747,458;   99,375;15884,451;42,11625
 868,17; 6714,913;   93,675;15884,685;41,93043
 868,73; 6657,768;   82,775;15672,618;42,17485
 869,29; 6675,423;   59,475;15470,151;42,93094
 869,85; 6746,578;  100,475;15369,685;43,52617
 870,41; 6666,033;   80,575;15293,418;43,28880
 870,97; 6642,488;   92,975;15232,252;43,26173
 871,54; 6644,542;   84,175;15178,686;43,46194
 872,10; 6559,698;   84,275;15055,419;43,25269
 872,66; 6516,453;   66,775;14910,652;43,45009
 873,22; 6431,607;   81,975;14890,586;42,87797
 873,78; 6242,263;   65,275;14742,419;42,08576
 874,34; 6278,917;   95,075;14662,652;42,44935
 874,90; 6238,518;  109,775;14536,053;42,48319
 875,46; 6122,518;   96,375;14412,952;42,09206
 876,03; 6106,118;   86,475;14363,353;42,16358
 876,59; 6026,618;   64,475;14153,253;42,31838
 877,15; 6000,518;  101,475;14166,853;41,94017
 877,71; 5951,118;   78,275;14064,652;41,98973
 878,27; 5858,917;   95,675;13910,553;41,71765
 878,83; 5881,018;  114,275;13971,753;41,61466
 879,39; 5838,717;   91,075;14082,753;41,07901
 879,95; 5782,717;   86,275;13964,253;41,04663
 880,51; 5759,317;   75,175;13927,253;41,03458
 881,07; 5836,118;   82,375;13978,753;41,40462
 881,63; 5882,317;   92,575;13971,253;41,71681
 882,19; 5932,417;   82,675;13921,553;42,27035
 882,75; 5949,018;   86,275;14019,553;42,07727
 883,31; 5964,417;   95,575;14187,853;41,64581
 883,88; 6011,317;   96,375;14174,353;42,01557
 884,44; 6031,417;   76,175;14175,753;42,23703
 885,00; 6142,518;  106,075;14266,952;42,62760
 885,56; 6211,217;  101,675;14299,452;43,03168
 886,12; 6220,317;  109,875;14421,152;42,69669
 886,68; 6192,018;   90,775;14436,753;42,52929
 887,24; 6284,917;  102,475;14574,952;42,71862
 887,80; 6222,118;   86,975;14671,753;42,06538
 888,36; 6307,118;  106,275;14715,652;42,44426
 888,92; 6315,217;   98,975;14773,353;42,36120
 889,48; 6420,518;   99,575;14973,853;42,49580
 890,04; 6296,118;   95,275;14803,053;42,16030
 890,60; 6457,618;  117,475;15014,652;42,55936
 891,16; 6385,217;   99,875;15075,853;41,96950
 891,72; 6326,917;  113,275;15058,452;41,57624
 892,28; 6368,917;  112,475;15126,053;41,67190
 892,84; 6262,018;   93,775;15039,853;41,26998
 893,39; 6269,317;  117,575;15112,952;41,02426
 893,95; 6219,717;  112,975;15044,753;40,89762
 894,51; 6143,618;   66,375;14891,253;40,99354
 895,07; 6143,618;  127,375;14906,353;40,70811
 895,63; 5958,817;   74,275;14689,952;40,26185
 896,19; 6024,417;   90,375;14601,952;40,89178
 896,75; 5969,118;  105,175;14460,152;40,84954
 897,31; 5937,217;   82,775;14295,853;41,19053
 897,87; 5899,217;   98,175;14146,853;41,29244
 898,43; 5881,417;   87,775;14075,753;41,41873
 898,99; 5895,417;  109,175;14002,753;41,64689
 899,55; 5826,618;  109,475;13940,652;41,33518
 900,11; 5735,717;  104,975;13747,553;41,27330
 900,67; 5724,417;   91,375;13658,652;41,51933
 901,22; 5689,417;  108,375;13601,952;41,36073
 901,78; 5590,518;   91,275;13560,053;40,82956
 902,34; 5553,118;  103,075;13451,152;40,83017
 902,90; 5510,118;   73,575;13350,652;40,94683
 903,46; 5471,817;   95,775;13236,353;40,91177
 904,02; 5391,317;   88,075;13091,553;40,78326
 904,58; 5335,417;   67,075;12918,152;40,99534
 905,14; 5289,317;   63,975;12874,553;40,78928
 905,70; 5230,317;   66,775;12696,053;40,88549
 906,25; 5218,518;   84,375;12708,452;40,66945
 906,81; 5141,717;   87,675;12732,152;39,97035
 907,37; 5144,217;   79,275;12616,152;40,40035
 907,93; 5071,817;   74,775;12588,152;39,93360
 908,49; 5038,118;  101,875;12497,652;39,82197
 909,05; 4995,817;   89,675;12425,553;39,77133
 909,60; 4966,317;   86,575;12340,452;39,82203
 910,16; 4855,518;   67,675;12291,853;39,16699
 910,72; 4850,417;  100,475;12207,753;39,23213
 911,28; 4807,518;   90,875;12156,053;39,09302
 911,84; 4751,317;   79,575;12106,753;38,84321
 912,39; 4711,217;   73,475;12049,353;38,72570
 912,95; 4772,917;  104,475;12001,452;39,24058
 913,51; 4788,917;   85,375;11945,253;39,65928
 914,07; 4703,917;   83,775;11813,452;39,38849
 914,63; 4735,417;   64,775;11748,053;39,97716
 915,18; 4639,217;   77,475;11617,853;39,52854
 915,74; 4622,417;   63,975;11632,652;39,40332
 916,30; 4581,317;   61,475;11588,553;39,21065
 916,86; 4591,018;   83,575;11514,652;39,43148
 917,42; 4608,817;   82,275;11425,152;39,90647
 917,97; 4512,118;   75,375;11265,452;39,64890
 918,53; 4468,618;   67,775;11196,253;39,54577
 919,09; 4435,917;   88,975;11223,753;39,03933
 919,65; 4408,018;   83,375;11083,452;39,31466
 920,20; 4346,018;   61,875;10983,053;39,22784
 920,76; 4247,917;   65,475;10849,452;38,78386
 921,32; 4209,317;   82,675;10770,952;38,60905
 921,87; 4150,817;   97,475;10670,253;38,33753
 922,43; 4026,917;   64,675;10561,353;37,74759
 922,99; 3998,117;   61,875;10406,753;38,05016
 923,55; 3940,317;   63,775;10357,353;37,65982
 924,10; 3892,117;   73,575;10282,853;37,40267
 924,66; 3858,718;   78,675;10170,152;37,45777
 925,22; 3755,917;   43,275;10093,952;36,93923
 925,77; 3724,117;   66,075; 9927,053;37,09614
 926,33; 3712,218;   90,375; 9903,253;36,90908
 926,89; 3617,018;   71,975; 9692,753;36,84777
 927,44; 3540,817;   52,175; 9580,553;36,61318
 928,00; 3498,617;   66,875; 9533,753;36,24999
 928,56; 3504,417;   80,375; 9372,253;36,84984
 929,12; 3422,117;   72,775; 9275,152;36,39649
 929,67; 3397,518;   67,575; 9091,053;36,90310
 930,23; 3335,718;   50,975; 8915,253;37,05595
 930,78; 3353,117;  100,675; 8842,553;37,20531
 931,34; 3233,817;   61,975; 8632,152;37,01023
 931,90; 3185,218;   61,675; 8494,353;37,04093
 932,45; 3092,317;   78,775; 8290,753;36,69691
 933,01; 2978,917;   52,975; 8024,453;36,70515
 933,57; 2912,417;   72,175; 7753,252;36,97714
 934,12; 2761,518;   70,475; 7399,553;36,71734
 934,68; 2639,317;   59,075; 7020,252;37,06618
 935,24; 2486,917;   67,875; 6614,752;36,94956
 935,79; 2354,617;   72,975; 6254,853;36,90857
 936,35; 2198,917;   91,375; 5812,252;36,83950
 936,90; 2017,118;   80,275; 5348,752;36,76285
 937,46; 1866,917;   72,775; 4956,953;36,73377
 938,02; 1692,517;   63,375; 4549,152;36,31795
 938,57; 1593,417;   73,175; 4265,053;36,26638
 939,13; 1495,818;   70,575; 3986,752;36,39372
 939,68; 1366,218;   57,375; 3713,452;35,79909
 940,24; 1286,718;   68,775; 3504,052;35,45398
 940,79; 1287,718;   91,875; 3391,052;36,24669
 941,35; 1211,417;   79,675; 3217,552;36,06713
 941,91; 1134,218;   71,375; 3122,252;34,83727
 942,46; 1117,818;   75,075; 3063,552;34,89210
 943,02; 1095,517;   65,375; 3050,752;34,50627
 943,57; 1088,818;   61,275; 2982,452;35,17563
 944,13; 1081,618;   67,375; 2974,452;34,88874
 944,68; 1093,917;   65,975; 3041,752;34,54366
 945,24; 1128,618;   82,275; 3060,052;35,13837
 945,79; 1111,718;   68,775; 3104,052;34,36070
 946,35; 1131,517;   51,775; 3194,752;34,35413
 946,90; 1216,917;   98,575; 3283,552;35,11304
 947,46; 1205,218;   52,175; 3311,052;35,38159
 948,01; 1223,417;   51,575; 3390,052;35,10110
 948,57; 1305,318;   86,775; 3552,952;35,15523
 949,12; 1279,917;   65,875; 3613,353;34,22270
 949,68; 1342,417;   76,275; 3732,653;34,62833
 950,23; 1363,718;   70,075; 3833,252;34,37634
 950,79; 1403,618;   75,775; 3933,452;34,42078
 951,34; 1429,218;   83,275; 4070,952;33,75254
 951,90; 1424,618;   57,475; 4140,853;33,48068
 952,45; 1466,818;   81,075; 4292,152;32,90708
 953,01; 1485,218;   65,975; 4364,252;33,01887
 953,56; 1551,318;   87,975; 4500,853;33,16073
 954,12; 1506,218;   42,075; 4567,553;32,35333
 954,67; 1539,218;   70,875; 4720,453;31,58013
 955,23; 1540,417;   61,975; 4804,553;31,17382
 955,78; 1567,118;   67,175; 4882,953;31,14642
 956,33; 1574,318;   58,575; 4947,252;31,00516
 956,89; 1578,718;   53,475; 5038,553;30,59616
 957,44; 1587,718;   53,675; 5170,752;29,97888
 958,00; 1590,818;   49,475; 5238,353;29,70474
 958,55; 1627,517;   70,475; 5313,953;29,69484
 959,10; 1608,218;   52,375; 5370,252;29,25683
 959,66; 1645,818;   74,275; 5488,752;29,02482
 960,21; 1674,017;   78,475; 5567,453;29,06812
 960,77; 1646,517;   54,275; 5606,152;28,67935
 961,32; 1678,618;   48,375; 5663,453;29,03330
 961,87; 1704,917;   79,775; 5738,752;28,71795
 962,43; 1697,917;   68,975; 5780,652;28,51951
 962,98; 1747,618;   76,175; 5828,652;29,05605
 963,54; 1682,118;   27,075; 5820,652;28,56685
 964,09; 1730,218;   56,275; 5873,953;28,77338
 964,64; 1721,118;   64,975; 5901,053;28,37766
 965,20; 1717,318;   44,375; 5966,652;28,24830
 965,75; 1699,618;   66,575; 5976,353;27,63289
 966,30; 1703,517;   75,275; 6068,553;27,16781
 966,86; 1702,118;   62,975; 6121,953;27,05312
 967,41; 1675,417;   81,075; 6084,453;26,55742
 967,96; 1682,017;   75,175; 6108,953;26,63079
 968,52; 1697,618;   81,775; 6126,353;26,73210
 969,07; 1645,218;   72,975; 6120,152;25,99961
 969,62; 1635,718;   77,175; 6134,953;25,72796
 970,18; 1575,017;   57,575; 6147,652;24,91664
 970,73; 1558,917;   66,475; 6203,553;24,31845
 971,28; 1587,818;   95,775; 6197,053;24,45459
 971,84; 1538,718;   55,075; 6118,752;24,46770
 972,39; 1530,818;   95,875; 6148,652;23,70717
 972,94; 1521,417;   54,975; 6140,652;24,09662
 973,49; 1481,718;   64,575; 6141,252;23,32101
 974,05; 1481,818;   64,375; 6178,053;23,18478
 974,60; 1479,917;   88,575; 6213,252;22,71699
 975,15; 1489,917;   77,675; 6231,553;22,94882
 975,71; 1425,917;   62,375; 6121,453;22,50413
 976,26; 1449,017;   77,575; 6110,252;22,73356
 976,81; 1462,818;   90,675; 6134,152;22,70452
 977,36; 1466,118;   84,775; 6156,953;22,74872
 977,92; 1479,118;   90,175; 6209,353;22,69819
 978,47; 1472,318;   77,175; 6060,252;23,31814
 979,02; 1461,917;   95,475; 6085,652;22,81139
 979,57; 1469,517;   86,775; 6058,453;23,15501
 980,13; 1440,818;   76,175; 6038,752;22,88679
 980,68; 1463,818;   77,075; 6010,553;23,37150
 981,23; 1474,917;   89,175; 6054,652;23,22936
 981,78; 1467,417;   82,075; 5974,152;23,51195
 982,33; 1470,917;   79,275; 5893,252;23,93615
 982,89; 1463,017;   94,375; 5938,152;23,42051
 983,44; 1405,618;   65,675; 5935,853;22,82627
 983,99; 1445,417;  104,775; 5949,453;22,93783
 984,54; 1424,818;   81,475; 5900,053;23,08713
 985,09; 1408,517;   87,275; 5873,752;22,83328
 985,65; 1375,517;   69,375; 5811,853;22,74528
 986,20; 1378,917;  106,575; 5791,152;22,38236
 986,75; 1350,417;   95,875; 5823,953;21,90163
 987,30; 1333,318;   97,175; 5726,053;21,96073
 987,85; 1308,618;   92,475; 5721,353;21,60542
 988,40; 1300,618;   96,675; 5693,953;21,50943
 988,96; 1298,618;  114,875; 5666,553;21,32225
 989,51; 1305,517;  108,875; 5644,053;21,61886
 990,06; 1280,017;  128,275; 5680,853;20,74248
 990,61; 1220,417;   93,575; 5569,053;20,57980
 991,16; 1215,318;  104,375; 5558,053;20,37052
 991,71; 1166,318;   79,875; 5505,853;20,02298
 992,26; 1187,218;   93,475; 5457,252;20,39127
 992,81; 1157,618;   75,075; 5427,053;20,22696
 993,37; 1194,917;  113,475; 5390,553;20,49321
 993,92; 1172,718;  108,375; 5368,953;20,23243
 994,47; 1156,017;  117,475; 5329,652;19,92531
 995,02; 1164,417;  118,475; 5313,252;20,13450
 995,57; 1123,917;   90,875; 5274,652;19,92837
 996,12; 1136,618;  133,575; 5247,553;19,61375
 996,67; 1138,318;  132,375; 5191,652;19,88313
 997,22; 1101,218;   99,875; 5128,652;19,91225
 997,77; 1126,218;  115,275; 5110,553;20,23796
 998,32; 1078,017;  103,775; 5015,652;19,83442
 998,87; 1100,618;  114,275; 5018,752;20,11106
 999,42; 1064,118;  101,675; 4972,553;19,75912
 999,97; 1032,017;  109,975; 4956,353;19,02539
1000,53; 1044,517;  123,475; 4993,752;18,91150
1001,08; 1023,617;   98,375; 4879,053;19,35379
1001,63; 1011,218;  144,475; 4878,053;18,31052
1002,18;  931,718;   85,075; 4777,453;18,04293
1002,73;  970,318;  131,375; 4813,853;17,91664
1003,28;  929,718;  103,575; 4811,953;17,54622
1003,83;  902,818;  119,075; 4691,752;17,13968
1004,38;  921,718;  137,775; 4703,152;17,17147
1004,93;  864,218;  114,375; 4680,953;16,42023
1005,48;  867,518;  104,075; 4573,053;17,08316
1006,03;  818,018;  112,775; 4525,652;15,98147
1006,58;  802,718;  111,475; 4486,553;15,79955
1007,13;  770,818;   94,475; 4466,252;15,47065
1007,68;  753,518;  104,975; 4462,453;14,88344
1008,23;  778,718;  114,575; 4425,853;15,40477
1008,78;  759,018;  107,375; 4384,152;15,23677
1009,33;  745,417;  121,875; 4307,752;14,89634
1009,88;  709,518;   84,775; 4329,553;14,71791
1010,43;  713,417;  118,875; 4320,752;14,14945
1010,98;  701,518;  100,675; 4310,053;14,27390
1011,52;  671,617;   97,075; 4264,953;13,78501
1012,07;  718,318;  144,475; 4319,252;13,74546
1012,62;  675,218;  103,875; 4259,152;13,74980
1013,17;  671,018;   97,175; 4172,053;14,08245
1013,72;  663,917;   94,575; 4143,453;14,06174
1014,27;  668,518;  100,275; 4105,853;14,18628
1014,82;  640,818;   86,875; 4042,952;14,00232
1015,37;  606,818;   84,375; 3964,853;13,46336
1015,92;  645,417;  109,475; 3894,252;14,16048
1016,47;  634,117;   90,275; 3819,452;14,58344
1017,02;  589,417;   81,075; 3732,153;13,92308
1017,57;  609,818;   96,475; 3718,853;14,17142
1018,11;  598,417;   77,275; 3656,252;14,56121
1018,66;  609,617;  120,175; 3636,552;13,91894
1019,21;  589,218;  109,675; 3579,552;13,82016
1019,76;  548,617;   77,675; 3497,353;13,77155
1020,31;  546,718;   71,975; 3446,452;14,06862
1020,86;  544,318;   96,175; 3448,052;13,36990
1021,41;  521,018;   80,175; 3387,052;13,33108
1021,96;  516,917;   83,675; 3385,853;13,11990
1022,50;  545,917;  105,975; 3332,952;13,63327
1023,05;  505,418;   94,675; 3288,052;12,86232
1023,60;  486,017;   97,975; 3251,353;12,30561
1024,15;  475,818;   81,075; 3184,853;12,71813
1024,70;  481,418;   95,075; 3176,252;12,53879
1025,25;  466,117;   81,175; 3127,452;12,63649
1025,79;  482,318;  101,175; 3110,752;12,66432
1026,34;  476,017;   83,475; 3044,653;13,25630
1026,89;  470,717;  102,175; 3039,052;12,54879
1027,44;  454,017;   95,875; 2952,952;12,53527
1027,99;  465,617;   93,475; 2944,552;13,05270
1028,53;  456,017;   89,675; 2900,052;13,03535
1029,08;  457,517;  114,775; 2876,653;12,40976
1029,63;  449,517;  114,875; 2854,952;12,21288
1030,18;  436,617;   92,075; 2788,552;12,77750
1030,73;  434,517;   91,175; 2739,552;12,96426
1031,27;  434,517;   85,875; 2715,252;13,25951
1031,82;  429,117;   81,875; 2686,452;13,33201
1032,37;  446,617;   98,875; 2688,853;13,42647
1032,92;  439,418;  100,575; 2675,452;13,15956
1033,46;  413,717;   99,775; 2599,252;12,56033
1034,01;  413,318;   78,375; 2582,952;13,37321
1034,56;  428,717;   98,875; 2559,252;13,40617
1035,11;  417,318;   92,375; 2523,552;13,36564
1035,65;  399,017;   87,575; 2478,052;13,02846
1036,20;  410,617;   99,375; 2454,452;13,21581
1036,75;  440,717;  118,675; 2446,353;13,83536
1037,29;  399,617;   90,275; 2398,252;13,40319
1037,84;  365,818;   78,375; 2347,252;12,66893
1038,39;  397,918;   91,075; 2329,952;13,70520
1038,94;  366,918;   73,075; 2277,153;13,33177
1039,48;  372,617;   83,575; 2278,552;13,16836
1040,03;  385,318;  102,875; 2245,252;13,18360
1040,58;  364,217;  101,175; 2194,552;12,56546
1041,12;  363,818;   91,375; 2191,653;12,97174
1041,67;  337,818;  101,075; 2166,752;11,46077
1042,22;  360,517;  118,475; 2145,252;11,94223
1042,76;  340,517;   99,275; 2118,452;11,94756
1043,31;  330,918;   90,675; 2060,653;12,19519
1043,86;  339,017;   98,875; 2044,252;12,34426
1044,40;  331,418;   92,975; 2018,052;12,38613
1044,95;  325,418;   94,175; 1988,552;12,20678
1045,50;  290,517;   75,375; 1934,353;11,57316
1046,04;  321,217;  114,375; 1930,453;11,38952
1046,59;  300,818;   96,175; 1878,353;11,48272
1047,13;  308,717;  121,075; 1879,453;10,67134
1047,68;  293,217;  115,675; 1860,052;10,17799
1048,23;  298,818;  118,775; 1866,752;10,30005
1048,77;  278,918;   90,175; 1784,953;11,13671
1049,32;  285,517;  104,175; 1785,953;10,78279
1049,86;  292,117;   92,675; 1760,552;11,95786
1050,41;  272,318;   82,475; 1735,552;11,48419
1050,96;  278,418;  100,875; 1698,652;11,11184
1051,50;  268,517;  101,675; 1663,252;10,68423
1052,05;  277,117;   94,675; 1664,052;11,62515
1052,59;  259,818;   82,975; 1624,152;11,47451
1053,14;  251,318;   84,475; 1582,652;11,13636
1053,69;  247,617;   98,475; 1571,453;10,12524
1054,23;  271,017;  104,575; 1569,052;11,36532
1054,78;  253,617;  100,775; 1550,152;10,54539
1055,32;  273,818;  123,075; 1550,453;10,56080
1055,87;  214,417;   68,875; 1491,752;10,22874
1056,41;  221,417;   78,775; 1469,552;10,25631
1056,96;  222,818;   96,775; 1451,052; 9,30699
1057,50;  250,617;  113,375; 1470,853;10,11011
1058,05;  211,518;   82,075; 1401,953; 9,80716
1058,59;  241,318;   95,875; 1396,552;11,18206
1059,14;  227,518;  103,575; 1370,453; 9,78331
1059,68;  200,117;   75,975; 1329,353; 9,90464
1060,23;  247,917;  126,875; 1383,752; 9,63041
1060,77;  226,318;   97,375; 1317,052;10,57185
1061,32;  227,217;  108,575; 1320,652; 9,78836
1061,86;  213,217;  111,175; 1289,752; 8,65811
1062,41;  213,717;   93,975; 1242,953;10,42166
1062,95;  202,818;  109,575; 1230,853; 8,31574
1063,50;  203,117;  111,075; 1230,052; 8,22559
1064,04;  195,917;   90,475; 1197,453; 9,52526
1064,59;  209,318;  114,775; 1210,052; 8,63183
1065,13;  204,518;  103,475; 1170,552; 9,46909
1065,68;  196,018;  107,275; 1161,353; 8,41897
1066,22;  210,318;  115,875; 1166,453; 8,98958
1066,76;  218,217;  130,175; 1145,252; 8,67348
1067,31;  179,318;   99,875; 1110,552; 7,86032
1067,85;  196,117;  100,975; 1090,252; 9,61737
1068,40;  192,518;  110,275; 1095,353; 8,34884
1068,94;  181,318;   99,175; 1079,353; 8,38037
1069,49;  180,518;   98,175; 1041,652; 8,72755
1070,03;  180,417;  111,175; 1034,353; 7,50045
1070,57;  180,417;   88,775; 1012,852; 9,91719
1071,12;  162,417;   75,875;  987,153; 9,49683
1071,66;  228,717;  131,775; 1039,953;10,67440
1072,21;  196,518;  112,475; 1011,352; 9,34972
1072,75;  168,717;  104,475;  978,552; 7,34975
1073,29;  169,818;   77,075;  942,453;10,71700
1073,84;  184,018;   95,975;  941,153;10,41704
1074,38;  176,717;   93,875;  928,253; 9,92866
1074,92;  182,117;  107,275;  940,153; 8,98601
1075,47;  186,018;  112,775;  938,852; 8,86630
1076,01;  213,917;  121,775;  926,253;11,45371
1076,56;  175,617;   97,275;  891,953; 9,85840
1077,10;  158,318;   86,075;  865,253; 9,27164
1077,64;  171,018;   97,875;  884,453; 9,29883
1078,19;  198,717;  123,175;  887,753; 9,88029
1078,73;  181,217;   98,775;  853,852;10,91842
1079,27;  180,617;  121,075;  875,552; 7,89188
1079,81;  186,717;  121,375;  860,953; 8,83511
1080,36;  168,417;  105,975;  836,052; 8,55286
1080,90;  169,318;   96,375;  819,753;10,08360
1081,44;  151,717;   82,475;  789,552; 9,79277
1081,99;  140,018;   70,375;  771,753; 9,92939
1082,53;  168,217;  113,075;  798,653; 8,04322
1083,07;  181,417;  104,175;  791,453;11,23891
1083,62;  162,417;  101,275;  772,552; 9,10838
1084,16;  163,417;   98,975;  782,453; 9,42862
1084,70;  164,217;  107,475;  767,153; 8,60155
1085,24;  177,217;  108,775;  750,653;10,66286
1085,79;  160,617;  109,175;  747,552; 8,05832
1086,33;  152,717;   99,075;  711,453; 8,75971
1086,87;  166,217;  102,075;  714,852;10,46750
1087,41;  150,318;   84,475;  686,852;10,93044
1087,96;  172,717;  124,575;  732,552; 7,91847
1088,50;  159,217;  112,075;  696,953; 8,06023
1089,04;  175,018;  121,775;  715,153; 8,97279
1089,58;  146,018;   82,375;  655,953;11,09571
1090,13;  151,217;  102,975;  653,153; 8,76853
1090,67;  162,417;  101,775;  678,753;10,51037
1091,21;  142,518;   92,075;  651,852; 9,01117
1091,75;  150,518;  106,875;  647,153; 8,07779
1092,29;  165,518;  105,875;  642,552;11,11329
1092,84;  152,417;  105,975;  628,352; 8,89060
1093,38;  181,917;  128,175;  662,753;10,05327
1093,92;  173,917;  113,475;  640,052;11,47837
1094,46;  179,617;  128,175;  638,852;10,07338
1095,00;  144,018;   93,975;  602,052; 9,84938
1095,54;  148,318;   89,975;  591,352;11,63644
1096,09;  148,717;  114,975;  597,352; 6,99504
1096,63;  163,518;  117,175;  598,453; 9,62906
1097,17;  147,318;  102,575;  573,052; 9,51002
1097,71;  179,717;  122,875;  582,453;12,36842
1098,25;  149,217;  103,275;  553,653;10,20089
1098,79;  168,318;  104,775;  568,753;13,69517
1099,33;  156,217;  111,975;  572,052; 9,61631
1099,88;  160,117;  110,775;  562,253;10,92911
1100,42;  122,118;   83,275;  521,253; 8,86861

