0146 ELITRO MELMAN
Integration time [ms]:   8,000
Averaging Nr. [scans]: 10
Smoothing Nr. [pixels]: 0
Data measured with spectrometer [name]: 7314920SP
Wave   ;Sample   ;Dark     ;Reference;Reflectance
[nm]   ;[counts] ;[counts] ;[counts] ;[%]

 199,42;  109,335;   63,873;  150,055;52,75171
 200,02;  108,394;   92,669;  145,732;29,63423
 200,62;   66,440;   67,563;   88,793;-5,28968
 201,22;  102,941;   86,969;  138,011;31,29287
 201,82;  105,879;   66,174;  141,790;52,50820
 202,42;  123,778;  101,668;  154,973;41,47735
 203,03;   78,798;   60,168;   91,775;58,94237
 203,63;   89,434;   69,967;  109,037;49,82581
 204,23;  105,280;   70,671;  129,903;58,43034
 204,83;   90,602;   74,567;  123,718;32,62443
 205,43;   91,035;   56,673;  123,555;51,37775
 206,03;   69,886;   50,167;   90,459;48,94165
 206,63;   85,131;   68,865;  100,007;52,23351
 207,24;  127,306;   74,675;  162,566;59,88226
 207,84;   56,070;   39,967;   83,699;36,82318
 208,44;   77,241;   50,669;   95,011;59,92652
 209,04;   64,147;   47,365;   85,066;44,51399
 209,64;  112,240;   69,972;  127,998;72,84290
 210,24;   76,202;   45,367;   97,218;59,46882
 210,84;   76,257;   51,469;  101,970;49,08457
 211,44;  102,121;   86,470;  122,908;42,95303
 212,05;   66,447;   60,865;   99,266;14,53708
 212,65;   90,898;   66,368;  112,975;52,63145
 213,25;  108,478;   93,768;  142,073;30,45113
 213,85;  100,011;   84,465;  114,904;51,07162
 214,45;   73,502;   53,367;  100,418;42,79444
 215,05;   64,457;   39,369;  100,070;41,33079
 215,65;   69,973;   55,169;  105,630;29,33787
 216,25;   61,802;   40,267;   82,518;50,96966
 216,85;   63,825;   34,069;   89,651;53,53612
 217,45;   79,698;   49,068;   97,375;63,40675
 218,05;   88,069;   58,270;  112,886;54,56012
 218,66;   58,309;   28,769;   75,692;62,95600
 219,26;   46,934;   26,567;   79,337;38,59568
 219,86;   58,449;   36,771;   81,584;48,37370
 220,46;   90,553;   54,270;  104,127;72,77400
 221,06;   79,480;   51,871;  115,903;43,11821
 221,66;   80,928;   43,471;  103,481;62,41765
 222,26;   72,740;   39,772;  102,398;52,64223
 222,86;   93,846;   67,268;  118,954;51,42172
 223,46;   69,802;   51,767;   88,918;48,54567
 224,06;   95,264;   64,971;  120,343;54,70869
 224,66;   92,601;   57,570;  105,805;72,62423
 225,26;   90,805;   48,169;  113,748;65,01406
 225,86;   78,488;   42,173;  112,376;51,72795
 226,46;   80,462;   49,968;  102,913;57,59461
 227,06;   65,901;   27,670;   87,705;63,68003
 227,66;   59,495;   37,665;   74,845;58,71464
 228,27;   54,653;   29,270;   96,227;37,90936
 228,87;  110,685;   89,170;  143,046;39,93372
 229,47;   60,356;   29,172;   92,357;49,35243
 230,07;   37,905;   11,169;   59,648;55,14878
 230,67;   63,525;   38,169;   84,651;54,55110
 231,27;   52,453;   27,670;   76,327;50,93399
 231,87;   70,325;   43,169;  100,751;47,16136
 232,47;  101,274;   43,775;  132,047;65,13882
 233,07;   60,215;   42,965;   75,547;52,94462
 233,67;   72,398;   53,768;   94,275;45,99196
 234,27;   46,886;    0,567;   53,259;87,90635
 234,87;   69,249;   34,771;  106,084;48,34702
 235,47;   51,805;   16,169;   74,148;61,46290
 236,07;   43,975;   30,266;   72,042;32,81492
 236,67;   54,139;   49,966;   85,180;11,84793
 237,27;   70,867;   28,873;  109,074;52,36123
 237,87;   65,901;   25,370;   99,805;54,45062
 238,47;   38,694;   14,269;   68,032;45,43036
 239,07;   65,224;   33,272;   95,738;51,15036
 239,67;   89,882;   43,477;  131,421;52,76651
 240,27;   77,088;   46,773;  119,176;41,86931
 240,87;   83,683;   50,773;  119,533;47,86188
 241,47;   53,204;   39,164;   76,131;37,98009
 242,07;   60,930;   39,968;   92,894;39,60569
 242,67;   45,151;  -11,027;   77,914;63,16332
 243,27;   26,302;    7,767;   46,418;47,95529
 243,87;   75,864;   48,671;  108,343;45,57138
 244,47;   67,680;   22,371;   99,703;58,59083
 245,07;   30,757;    2,669;   55,770;52,89581
 245,67;   56,098;   31,068;   85,575;45,92065
 246,27;   44,931;   34,965;   69,007;29,27737
 246,87;   36,346;   26,668;   63,154;26,52443
 247,46;   18,340;   19,663;   23,793;-32,03447
 248,06;   50,669;   20,470;   69,786;61,23475
 248,66;   69,040;   31,072;  105,898;50,74134
 249,26;   44,875;   32,366;   70,742;32,59526
 249,86;   68,488;   42,873;  102,176;43,19280
 250,46;   55,790;   16,775;   93,507;50,84642
 251,06;   45,898;   22,168;   65,375;54,92149
 251,66;   40,533;   20,771;   64,724;44,96081
 252,26;   38,807;   38,866;   70,261;-0,18951
 252,86;   42,057;   35,969;   89,070;11,46529
 253,46;    5,302;   -8,033;   22,118;44,22808
 254,06;   47,759;   31,766;   79,483;33,51652
 254,66;   57,435;   34,973;  100,155;34,46107
 255,26;   79,904;   39,073;  118,836;51,19004
 255,86;   40,504;   37,464;   55,631;16,73460
 256,46;   46,621;   19,870;   70,208;53,14314
 257,05;   47,617;   23,570;   59,565;66,80521
 257,65;   74,849;   38,071;   97,684;61,69406
 258,25;   71,056;   37,372;  101,457;52,56041
 258,85;   41,657;   15,669;   51,770;71,98751
 259,45;   19,825;    6,869;   42,951;35,90845
 260,05;   58,702;   46,667;   85,818;30,74057
 260,65;   49,307;   45,066;   83,561;11,01569
 261,25;   54,964;   29,371;   85,943;45,24033
 261,85;   23,112;   -0,129;   47,622;48,67166
 262,45;   67,657;   46,169;  109,270;34,05365
 263,04;   75,419;   53,073;  116,295;35,34590
 263,64;   61,450;   33,767;   77,097;63,88915
 264,24;   74,096;   37,671;   89,062;70,87820
 264,84;  100,947;   58,974;  138,671;52,66552
 265,44;   36,582;   26,368;   67,716;24,70333
 266,04;   67,627;   48,865;   71,464;83,02155
 266,64;   48,938;   39,866;   86,780;19,33781
 267,24;   50,339;   40,166;   68,980;35,30287
 267,84;   35,478;   24,668;   76,573;20,82523
 268,43;   73,214;   48,368;   95,935;52,23386
 269,03;   70,209;   46,969;   87,892;56,79163
 269,63;   72,091;   58,566;   92,402;39,97162
 270,23;   18,195;   10,765;   39,045;26,27290
 270,83;   60,607;   55,266;   83,161;19,14494
 271,43;   33,766;   23,967;   58,856;28,08514
 272,03;   73,482;   64,168;   99,116;26,65197
 272,62;   46,273;   23,269;   68,730;50,60235
 273,22;   45,085;   11,970;   61,046;67,47644
 273,82;   20,021;   17,460;   26,403;28,63691
 274,42;   33,920;   25,164;   46,890;40,30081
 275,02;   43,999;   34,864;   60,388;35,79080
 275,62;   71,056;   31,972;  100,457;57,06847
 276,21;   47,737;   22,770;   69,267;53,69552
 276,81;   59,370;   46,767;   71,099;51,79779
 277,41;   52,344;   22,971;   96,341;40,03394
 278,01;   27,499;   21,364;   42,788;28,63706
 278,61;   69,341;   38,869;   83,811;67,80439
 279,20;   79,888;   65,473;  119,076;26,89164
 279,80;    3,265;    6,762;   11,539;-73,20157
 280,40;   53,375;   36,866;   79,742;38,50344
 281,00;   18,941;   -4,331;   33,311;61,82622
 281,60;   54,531;   20,774;   74,812;62,46945
 282,20;   54,521;   36,670;   70,108;53,38594
 282,79;   46,214;   29,568;   70,135;41,03348
 283,39;   18,391;   17,466;   44,702; 3,39515
 283,99;   18,415;   23,165;   34,347;-42,46831
 284,59;   20,189;   16,869;   45,289;11,68132
 285,19;   28,786;   27,067;   57,759; 5,60252
 285,78;   38,821;   23,270;   63,808;38,36215
 286,38;   45,931;   39,665;   59,207;32,06733
 286,98;   36,714;   35,168;   73,535; 4,02939
 287,58;   21,180;    4,771;   61,403;28,97558
 288,17;   41,104;    8,973;   80,336;45,02433
 288,77;   62,070;   19,976;   92,504;58,03839
 289,37;   27,357;   11,269;   57,670;34,67209
 289,97;   52,215;   48,965;   66,647;18,38421
 290,57;   54,776;   46,672;   93,260;17,39555
 291,16;   79,082;   63,868;  102,616;39,26481
 291,76;   31,285;    5,570;   47,346;61,55383
 292,36;   47,034;   34,367;   58,137;53,28963
 292,96;   32,572;   -3,127;   60,117;56,44638
 293,55;   33,570;   24,267;   65,399;22,61886
 294,15;   36,437;   26,870;   62,567;26,80058
 294,75;   45,131;   42,065;   66,207;12,70249
 295,35;   38,582;   21,068;   52,016;56,59274
 295,94;   46,954;   42,967;   66,740;16,77483
 296,54;   47,762;   30,768;   70,613;42,64885
 297,14;   58,828;   29,971;   76,881;61,51531
 297,73;   11,979;   12,165;   40,085;-0,66594
 298,33;   39,759;   28,066;   57,583;39,61471
 298,93;   43,746;   41,968;   82,554; 4,37980
 299,53;   43,108;   24,872;   69,079;41,25126
 300,12;   22,528;  -12,229;   59,481;48,46860
 300,72;   55,850;   41,567;   91,197;28,77881
 301,32;   62,449;   25,771;   99,584;49,69003
 301,92;   18,436;    3,664;   33,050;50,26819
 302,51;   37,618;   11,567;   49,978;67,82274
 303,11;   38,086;   14,667;   48,759;68,69527
 303,71;   52,794;   21,369;   82,132;51,71682
 304,30;   24,943;    5,466;   38,423;59,09786
 304,90;   39,059;   19,666;   44,283;78,77912
 305,50;   40,195;   18,565;   64,345;47,24783
 306,09;   29,375;   15,466;   49,042;41,42460
 306,69;   66,596;   34,171;   90,262;57,80794
 307,29;   19,105;   18,760;   33,144; 2,39953
 307,88;   66,389;   43,269;   72,489;79,12406
 308,48;   35,053;    0,070;   49,727;70,44915
 309,08;   -3,992;   -4,437;   11,774; 2,74753
 309,68;   27,379;   22,365;   39,585;29,11726
 310,27;   30,873;   20,169;   49,830;36,08858
 310,87;   40,162;   23,468;   54,813;53,25716
 311,47;   64,702;   54,967;   92,918;25,65217
 312,06;   54,063;   47,865;   68,426;30,14586
 312,66;   68,982;   51,168;  100,016;36,46890
 313,26;   77,533;   48,571;   96,224;60,77578
 313,85;   59,186;   38,267;   65,959;75,54384
 314,45;   72,541;   42,969;   86,611;67,76189
 315,04;   57,163;   52,165;   81,826;16,85135
 315,64;   43,850;   21,267;   47,897;84,80403
 316,24;   54,453;   40,770;   85,627;30,50354
 316,83;   61,475;   40,366;   76,742;58,02909
 317,43;   49,966;   35,167;   68,156;44,85943
 318,03;   55,872;   39,063;   70,012;54,31137
 318,62;   77,533;   73,061;   94,820;20,55111
 319,22;   46,778;    7,668;   66,973;65,94672
 319,82;   63,982;   40,768;   93,516;44,00987
 320,41;   79,894;   59,069;   98,732;52,50406
 321,01;  103,395;   80,465;  115,945;64,62832
 321,60;   79,020;   81,164;  102,790;-9,91353
 322,20;  100,935;   67,673;  132,855;51,03015
 322,80;   72,950;   54,567;   91,797;49,37703
 323,39;   71,383;   65,764;   94,828;19,33395
 323,99;   79,407;   61,766;  102,661;43,13598
 324,59;   79,272;   73,063;   97,512;25,39454
 325,18;   66,518;   40,967;   92,178;49,89421
 325,78;   80,679;   76,365;  108,885;13,26580
 326,37;   90,898;   74,868;  108,075;48,27282
 326,97;   82,550;   63,267;  111,497;39,98134
 327,57;   39,740;   42,263;   76,493;-7,37072
 328,16;   73,904;   60,864;   93,631;39,79643
 328,76;   89,554;   50,467;  110,140;65,50332
 329,35;  100,849;   56,871;  137,484;54,55410
 329,95;   76,921;   27,470;   91,308;77,46342
 330,54;   83,702;   52,167;   94,018;75,35097
 331,14;   49,970;   26,967;   82,599;41,34939
 331,74;   73,595;   54,165;   96,145;46,28407
 332,33;   67,853;   35,370;  108,127;44,64582
 332,93;   56,236;   43,764;   79,250;35,14574
 333,52;   76,791;   42,466;   93,102;67,78747
 334,12;   99,209;   72,069;  140,392;39,72427
 334,71;   64,975;   50,666;   87,942;38,38592
 335,31;   86,086;   63,267;  119,859;40,32295
 335,90;   46,144;   32,362;   53,836;64,18154
 336,50;   51,831;   30,665;   77,207;45,47844
 337,10;   79,573;   38,769;  121,530;49,30381
 337,69;   79,931;   51,765;   93,707;67,15591
 338,29;   55,234;   30,467;  101,037;35,09557
 338,88;   52,746;   22,468;   99,854;39,12564
 339,48;   73,928;   57,862;  111,677;29,85518
 340,07;   74,323;   48,566;  107,321;43,83719
 340,67;   83,549;   31,171;  124,784;55,95130
 341,26;   75,175;   48,466;   98,942;52,91362
 341,86;   97,405;   61,469;  138,348;46,74303
 342,45;   86,489;   45,669;  142,689;42,07372
 343,05;   79,589;   27,269;  115,689;59,17212
 343,64;   79,239;   47,366;  122,480;42,43175
 344,24;   56,531;   28,765;   92,107;43,83596
 344,83;   82,115;   71,365;  121,747;21,33832
 345,43;   68,554;   29,667;  114,240;45,98138
 346,02;   69,625;   41,469;  124,351;33,97178
 346,62;   94,933;   40,971;  140,424;54,25833
 347,21;   76,679;   42,165;  131,985;38,42571
 347,81;   77,876;   26,172;  140,560;45,20073
 348,40;   54,404;   29,064;  100,731;35,35813
 349,00;   66,072;   49,163;  137,712;19,09529
 349,59;  103,785;   65,870;  177,846;33,85964
 350,19;   80,233;   32,571;  139,424;44,60486
 350,78;   78,086;   55,467;  140,759;26,52013
 351,38;   53,925;   15,869;  140,951;30,42524
 351,97;   70,654;   26,767;  136,040;40,16348
 352,57;   72,853;   42,570;  155,827;26,73828
 353,16;   49,083;   30,564;  134,328;17,84745
 353,76;   81,885;   38,770;  169,846;32,89288
 354,35;   56,105;   27,669;  160,148;21,46422
 354,95;   89,237;   43,970;  182,067;32,77910
 355,54;   70,278;   38,368;  163,973;25,40454
 356,14;   86,105;   40,069;  164,749;36,92328
 356,73;   53,028;   29,162;  145,176;20,57192
 357,32;   55,794;   13,769;  164,432;27,89326
 357,92;   68,892;   17,772;  181,419;31,23792
 358,51;   97,708;   43,372;  214,179;31,81130
 359,11;   86,176;   36,772;  212,360;28,13645
 359,70;   74,717;   28,470;  189,965;28,63640
 360,30;   83,465;   54,562;  188,039;21,65405
 360,89;   61,246;   31,168;  188,054;19,17167
 361,48;  101,837;   55,570;  216,467;28,75566
 362,08;   77,866;   19,867;  187,156;34,66973
 362,67;   78,640;   39,763;  192,693;25,42146
 363,27;  113,818;   60,767;  247,678;28,38315
 363,86;   93,395;   35,765;  215,745;32,02023
 364,46;  118,304;   44,664;  257,231;34,64325
 365,05;  124,930;   64,659;  254,989;31,66665
 365,64;  125,542;   50,960;  269,706;34,09522
 366,24;  147,234;   38,558;  309,432;40,12062
 366,83;  160,600;   43,255;  335,383;40,16892
 367,43;  181,057;   51,545;  352,843;42,98464
 368,02;  205,248;   34,646;  399,757;46,72603
 368,61;  255,655;   62,239;  475,425;46,81097
 369,21;  238,944;   32,419;  445,299;50,02064
 369,80;  287,930;   43,007;  526,947;50,61026
 370,39;  341,803;   62,006;  604,971;51,53127
 370,99;  339,779;   42,089;  615,416;51,92322
 371,58;  349,794;   22,974;  630,953;53,75511
 372,18;  399,769;   37,166;  701,603;54,57305
 372,77;  384,809;   42,449;  679,385;53,75103
 373,36;  411,474;   42,747;  690,836;56,89457
 373,96;  388,451;   35,135;  639,498;58,46091
 374,55;  387,571;   29,844;  621,406;60,47171
 375,14;  348,693;   42,849;  573,826;57,60024
 375,74;  331,117;   69,157;  543,276;55,25200
 376,33;  280,478;   45,964;  464,589;56,02008
 376,92;  250,788;   33,278;  447,997;52,44749
 377,52;  330,232;   86,103;  548,460;52,80090
 378,11;  277,636;   46,703;  457,203;56,25660
 378,71;  306,172;   73,011;  514,270;52,83995
 379,30;  338,057;   59,517;  553,928;56,33783
 379,89;  359,295;   59,813;  556,103;60,34422
 380,49;  353,853;   31,018;  568,185;60,09959
 381,08;  388,335;   70,306;  570,990;63,51879
 381,67;  390,574;   55,008;  555,483;67,04948
 382,26;  364,635;   41,706;  539,390;64,88624
 382,86;  360,800;   54,003;  516,041;66,40079
 383,45;  391,416;   50,412;  562,105;66,64214
 384,04;  398,984;   38,712;  553,886;69,93198
 384,64;  391,891;   49,014;  566,760;66,22496
 385,23;  404,266;   64,406;  560,509;68,50598
 385,82;  443,782;   59,615;  592,774;72,05491
 386,42;  481,586;   61,024;  659,022;70,32841
 387,01;  462,159;   55,414;  580,541;77,45656
 387,60;  479,269;   69,009;  590,140;78,72506
 388,20;  486,216;   37,712;  590,805;81,09002
 388,79;  524,101;   72,418;  665,563;76,15043
 389,38;  491,035;   32,106;  564,890;86,13779
 389,97;  544,350;   45,415;  640,955;83,77867
 390,57;  547,139;   71,114;  654,038;81,66150
 391,16;  580,539;   62,514;  655,838;87,30886
 391,75;  560,211;   52,713;  638,562;86,62605
 392,34;  617,904;   60,821;  696,694;87,60915
 392,94;  624,833;   44,718;  689,683;89,94522
 393,53;  613,846;   41,016;  666,612;91,56552
 394,12;  679,175;   53,023;  719,105;94,00516
 394,72;  686,527;   54,213;  706,122;96,99425
 395,31;  670,282;   42,115;  694,874;96,23268
 395,90;  718,502;   42,924;  732,881;97,91596
 396,49;  752,833;   58,028;  779,187;96,34549
 397,09;  747,273;   47,417;  749,188;99,72723
 397,68;  816,966;   44,025;  800,719;102,14708
 398,27;  832,389;   54,626;  809,652;103,01143
 398,86;  811,630;   43,125;  807,657;100,51961
 399,45;  876,967;   56,630;  844,037;104,18215
 400,05;  849,376;   23,820;  799,518;106,42754
 400,64;  870,965;   56,419;  831,001;105,15932
 401,23;  909,840;   53,920;  859,956;106,18882
 401,82;  930,640;   67,220;  868,256;107,78792
 402,42;  959,020;   62,921;  873,953;110,48865
 403,01; 1014,766;   81,525;  912,919;112,25013
 403,60; 1033,495;   68,532;  940,513;110,66331
 404,19; 1020,034;   76,024;  931,900;110,29751
 404,78; 1046,747;   57,522;  909,929;116,05077
 405,38; 1066,074;   68,332;  984,210;108,93834
 405,97; 1076,557;   63,226;  953,933;113,76707
 406,56; 1109,080;   71,528; 1004,366;111,22538
 407,15; 1120,708;   68,829;  989,442;114,25856
 407,74; 1145,719;   80,730; 1026,758;112,57479
 408,34; 1126,006;   50,933; 1018,629;111,09617
 408,93; 1181,547;   59,531; 1016,234;117,27942
 409,52; 1186,809;   51,435; 1041,359;114,69301
 410,11; 1238,779;   84,931; 1090,453;114,75112
 410,70; 1208,037;   54,727; 1027,230;118,59186
 411,29; 1230,648;   58,628; 1030,847;120,55108
 411,89; 1250,657;   60,535; 1093,938;115,16535
 412,48; 1254,264;   48,228; 1051,606;120,19756
 413,07; 1283,818;   65,033; 1101,446;117,59651
 413,66; 1305,325;   78,135; 1102,119;119,84467
 414,25; 1333,964;   63,337; 1142,311;117,76251
 414,84; 1345,947;   69,431; 1102,434;123,57328
 415,44; 1367,988;   91,530; 1155,939;119,92169
 416,03; 1363,000;   76,637; 1161,173;118,60952
 416,62; 1392,891;   76,138; 1168,687;120,52122
 417,21; 1368,698;   75,334; 1158,843;119,36805
 417,80; 1418,780;   65,037; 1162,871;123,31040
 418,39; 1427,283;   78,440; 1179,201;122,53729
 418,98; 1397,334;   55,634; 1143,405;123,34394
 419,58; 1395,570;   64,033; 1142,067;123,51531
 420,17; 1403,177;   52,735; 1164,540;121,46390
 420,76; 1418,300;   72,537; 1192,873;120,12138
 421,35; 1398,873;   60,236; 1155,197;122,25425
 421,94; 1468,383;   88,340; 1223,501;121,57242
 422,53; 1430,115;   61,540; 1195,320;120,70902
 423,12; 1433,139;   64,039; 1190,766;121,51131
 423,71; 1425,057;   60,835; 1162,138;123,87347
 424,30; 1447,052;   85,236; 1210,695;121,00101
 424,90; 1426,944;   39,438; 1163,809;123,40288
 425,49; 1434,467;   70,140; 1216,242;119,04066
 426,08; 1456,467;   80,240; 1209,641;121,85453
 426,67; 1384,589;   57,436; 1168,257;119,47495
 427,26; 1449,102;   60,343; 1230,391;118,69245
 427,85; 1424,160;   63,238; 1209,968;118,67846
 428,44; 1459,122;   68,442; 1218,093;120,96535
 429,03; 1450,458;   85,341; 1233,155;118,93188
 429,62; 1440,242;   78,941; 1240,296;117,21664
 430,21; 1442,013;   81,443; 1277,807;113,72541
 430,80; 1429,720;   70,445; 1235,381;116,68245
 431,39; 1417,645;   53,344; 1246,926;114,30305
 431,99; 1381,957;   78,535; 1206,838;115,52058
 432,58; 1410,739;   82,639; 1251,166;113,65597
 433,17; 1389,725;   69,735; 1238,319;112,95638
 433,76; 1413,043;   71,347; 1288,314;110,24924
 434,35; 1431,388;   88,245; 1292,462;111,53669
 434,94; 1437,251;   70,849; 1318,887;109,48398
 435,53; 1412,349;   78,643; 1278,669;111,13976
 436,12; 1425,929;   70,044; 1294,267;110,75477
 436,71; 1431,247;   87,740; 1303,239;110,53128
 437,30; 1406,510;   76,941; 1299,177;108,78172
 437,89; 1438,473;   76,245; 1320,802;109,45480
 438,48; 1434,386;   65,942; 1305,731;110,37711
 439,07; 1425,007;   95,238; 1347,147;106,21937
 439,66; 1476,623;   83,648; 1375,711;107,81016
 440,25; 1471,529;   85,844; 1390,567;106,20532
 440,84; 1494,230;   79,850; 1387,984;108,12194
 441,43; 1516,920;   78,054; 1440,985;105,57142
 442,02; 1530,294;   79,650; 1411,022;108,95856
 442,61; 1556,345;   93,344; 1397,226;112,20345
 443,20; 1568,614;   94,249; 1446,625;109,02039
 443,79; 1558,148;   74,546; 1412,957;110,84804
 444,38; 1638,671;   84,248; 1461,789;112,84038
 444,97; 1654,768;   84,146; 1466,359;113,63097
 445,56; 1687,516;  101,846; 1477,038;115,30539
 446,15; 1739,806;   81,651; 1522,539;115,07868
 446,74; 1711,361;   58,644; 1462,286;117,74492
 447,33; 1818,048;   82,646; 1538,357;119,21339
 447,92; 1840,974;   78,151; 1570,720;118,10664
 448,51; 1870,284;   89,746; 1586,019;118,99823
 449,10; 1916,136;   92,045; 1608,840;120,25956
 449,69; 1959,826;   73,950; 1627,741;121,37254
 450,28; 1981,907;   66,948; 1608,251;124,24284
 450,87; 2015,875;   78,647; 1656,333;122,78926
 451,46; 2085,103;   96,048; 1702,208;123,83911
 452,05; 2128,930;   70,950; 1715,384;125,14822
 452,64; 2157,210;   70,850; 1725,182;126,11496
 453,23; 2204,585;  113,752; 1794,936;124,36671
 453,82; 2234,158;   83,451; 1800,660;125,24431
 454,40; 2255,910;   65,450; 1786,682;127,26118
 454,99; 2351,961;  101,253; 1871,891;127,11284
 455,58; 2314,212;   69,747; 1832,095;127,35652
 456,17; 2410,765;   63,852; 1873,634;129,67936
 456,76; 2415,374;   67,751; 1918,820;126,82525
 457,35; 2472,371;   78,348; 1930,490;129,25702
 457,94; 2497,824;   66,954; 1978,929;127,13926
 458,53; 2492,442;   67,350; 2010,101;124,82774
 459,12; 2588,623;   82,657; 2111,116;123,54037
 459,71; 2576,739;   58,148; 2060,071;125,80861
 460,30; 2574,223;   84,448; 2087,511;124,29839
 460,89; 2599,074;   57,551; 2129,920;122,63854
 461,48; 2645,524;   75,954; 2173,829;122,48446
 462,06; 2647,962;   68,050; 2187,303;121,73684
 462,65; 2627,335;   48,249; 2176,527;121,18178
 463,24; 2691,279;   87,456; 2288,680;118,28977
 463,83; 2637,262;   54,450; 2229,803;118,73069
 464,42; 2690,151;   88,349; 2333,687;115,87572
 465,01; 2682,210;   73,050; 2336,482;115,27451
 465,60; 2652,594;   64,050; 2384,322;111,56208
 466,19; 2686,125;   73,354; 2462,829;109,34498
 466,77; 2623,006;   81,551; 2462,939;106,72158
 467,36; 2673,307;   69,457; 2459,256;108,95684
 467,95; 2659,521;   79,551; 2466,098;108,10473
 468,54; 2683,788;   71,954; 2513,866;106,95855
 469,13; 2654,369;   69,452; 2535,977;104,79997
 469,72; 2648,884;   67,555; 2582,723;102,63046
 470,31; 2679,816;   87,855; 2629,242;101,98999
 470,90; 2667,646;   76,750; 2652,044;100,60585
 471,48; 2672,339;   32,057; 2671,875;100,01756
 472,07; 2746,427;  125,747; 2686,454;102,34206
 472,66; 2778,513;   67,853; 2748,412;101,12293
 473,25; 2793,406;   68,351; 2723,339;102,63907
 473,84; 2830,936;   55,955; 2766,545;102,37554
 474,43; 2895,746;   55,459; 2843,049;101,89042
 475,01; 2956,204;   69,254; 2885,926;102,49508
 475,60; 3013,268;   49,755; 2882,364;104,62132
 476,19; 3111,635;   74,158; 2956,932;105,36643
 476,78; 3136,907;   71,057; 2964,456;105,96014
 477,37; 3185,368;   59,355; 2945,364;108,31612
 477,95; 3307,248;   75,656; 3018,661;109,80583
 478,54; 3322,261;   63,253; 3023,691;110,08534
 479,13; 3378,961;   56,253; 3070,291;110,24109
 479,72; 3478,156;   81,154; 3090,147;112,89497
 480,31; 3528,978;   63,459; 3167,468;111,64655
 480,89; 3543,804;   60,254; 3171,026;111,98346
 481,48; 3615,589;   46,260; 3214,084;112,67448
 482,07; 3626,788;   61,654; 3233,866;112,38636
 482,66; 3674,877;   52,853; 3253,650;113,16005
 483,25; 3775,689;   78,960; 3319,884;114,06406
 483,83; 3770,020;   59,954; 3325,385;113,61641
 484,42; 3808,824;   54,354; 3355,129;113,74513
 485,01; 3854,502;   65,958; 3400,413;113,61809
 485,60; 3889,320;   73,764; 3490,590;111,66959
 486,18; 3909,647;   66,956; 3490,761;112,23451
 486,77; 3863,585;   67,252; 3519,736;109,95947
 487,36; 3896,336;   58,464; 3561,750;109,55062
 487,95; 3936,069;   59,161; 3640,781;108,24452
 488,53; 3896,353;   54,461; 3642,522;107,07432
 489,12; 3898,556;   50,563; 3722,252;104,80170
 489,71; 3892,397;   38,062; 3680,357;105,82158
 490,30; 3884,521;   61,460; 3742,503;103,85809
 490,88; 3930,185;   87,561; 3859,141;101,88367
 491,47; 3854,572;   60,663; 3867,512;99,66009
 492,06; 3859,892;   62,563; 3920,615;98,42609
 492,65; 3820,217;   59,161; 3947,060;96,73749
 493,23; 3839,573;   54,860; 3982,825;96,35304
 493,82; 3777,245;   65,853; 4018,031;93,90750
 494,41; 3750,249;   51,361; 4066,179;92,13090
 494,99; 3752,136;   73,655; 4126,945;90,75297
 495,58; 3741,221;   86,060; 4224,403;88,32426
 496,17; 3706,579;   56,356; 4198,681;88,12017
 496,76; 3745,448;   65,356; 4276,761;87,38393
 497,34; 3701,955;   54,557; 4305,235;85,80744
 497,93; 3689,139;   66,057; 4350,675;84,56020
 498,52; 3720,110;   60,059; 4454,387;83,29034
 499,10; 3712,613;   75,862; 4533,217;81,58988
 499,69; 3696,142;   55,360; 4537,006;81,23760
 500,28; 3708,078;   37,959; 4592,068;80,58918
 500,86; 3701,965;   62,862; 4698,539;78,50209
 501,45; 3741,065;   53,462; 4730,438;78,84587
 502,04; 3755,097;   53,362; 4813,958;77,75781
 502,62; 3795,079;   70,956; 4856,181;77,82547
 503,21; 3776,711;   57,856; 4939,699;76,17728
 503,80; 3841,128;   69,662; 5015,577;76,25417
 504,38; 3842,374;   58,460; 5081,425;75,33227
 504,97; 3839,928;   49,962; 5122,776;74,71132
 505,56; 3915,030;   70,859; 5194,989;75,02095
 506,14; 3942,652;   64,064; 5263,709;74,59331
 506,73; 3902,031;   23,565; 5292,507;73,60997
 507,32; 3962,795;   62,865; 5376,045;73,40105
 507,90; 3975,789;   70,860; 5443,284;72,68468
 508,49; 4008,647;   58,865; 5500,366;72,58626
 509,08; 4029,204;   67,264; 5571,931;71,97420
 509,66; 4068,005;   69,960; 5677,644;71,29584
 510,25; 4107,801;   63,561; 5737,400;71,27871
 510,83; 4160,332;   45,165; 5855,607;70,82364
 511,42; 4186,362;   61,968; 5895,913;70,69648
 512,01; 4195,784;   59,164; 5980,328;69,86159
 512,59; 4228,329;   46,562; 6041,676;69,75291
 513,18; 4209,149;   59,961; 6114,379;68,53157
 513,77; 4286,791;   42,257; 6171,797;69,24719
 514,35; 4277,376;   37,763; 6190,255;68,90889
 514,94; 4378,913;   58,662; 6323,517;68,96010
 515,52; 4333,275;   48,166; 6358,342;67,90791
 516,11; 4388,215;   80,665; 6474,047;67,37514
 516,69; 4338,894;   41,959; 6446,727;67,08963
 517,28; 4355,918;   83,358; 6541,973;66,15289
 517,87; 4317,387;   45,558; 6604,054;65,13428
 518,45; 4301,250;   74,858; 6626,192;64,51194
 519,04; 4303,398;   54,258; 6707,970;63,86119
 519,62; 4288,492;   55,863; 6774,114;63,00195
 520,21; 4287,491;   24,466; 6828,002;62,65896
 520,79; 4293,098;   52,068; 7000,875;61,03249
 521,38; 4235,237;   52,960; 6995,363;60,24250
 521,97; 4342,546;   43,068; 7141,554;60,56894
 522,55; 4232,614;   67,759; 7195,230;58,43385
 523,14; 4251,430;   26,759; 7180,289;59,05715
 523,72; 4264,453;   77,561; 7383,422;57,30868
 524,31; 4236,131;   71,665; 7406,107;56,77960
 524,89; 4245,482;   48,468; 7526,815;56,12221
 525,48; 4224,238;   21,666; 7603,580;55,42891
 526,06; 4261,684;   56,264; 7633,128;55,50343
 526,65; 4377,101;   72,370; 7803,105;55,68332
 527,23; 4356,260;   46,262; 7840,596;55,29656
 527,82; 4500,518;   37,967; 7905,978;56,71765
 528,41; 4594,522;   67,366; 8041,021;56,77643
 528,99; 4767,547;   66,365; 8108,167;58,45932
 529,58; 4868,745;   42,562; 8168,736;59,39059
 530,16; 5055,749;   49,461; 8315,379;60,56542
 530,75; 5267,667;   73,964; 8417,069;62,25144
 531,33; 5440,238;   45,566; 8440,980;64,25737
 531,92; 5620,005;   48,560; 8567,344;65,40189
 532,50; 5936,037;   87,770; 8706,468;67,85558
 533,09; 6074,511;   65,665; 8807,204;68,73900
 533,67; 6272,382;   63,458; 8952,011;69,85304
 534,26; 6451,757;   65,760; 9007,665;71,41652
 534,84; 6651,917;   68,461; 9127,061;72,67631
 535,42; 6847,268;   61,564; 9205,969;74,20607
 536,01; 6999,092;   79,263; 9330,215;74,80127
 536,59; 7115,091;   43,366; 9482,202;74,92158
 537,18; 7286,941;   77,360; 9568,605;75,96033
 537,76; 7441,960;   56,972; 9764,700;76,07329
 538,35; 7544,830;   59,368; 9892,694;76,12339
 538,93; 7686,483;   72,664; 9941,828;77,14756
 539,52; 7767,101;   57,370;10111,405;76,68295
 540,10; 7989,573;   63,269;10309,029;77,36180
 540,69; 8047,488;   68,763;10444,071;76,90109
 541,27; 8153,712;   58,262;10514,917;77,41912
 541,85; 8251,858;   47,366;10658,783;77,31759
 542,44; 8346,989;   56,460;10765,484;77,41629
 543,02; 8528,873;   80,369;10952,729;77,70625
 543,61; 8677,802;   77,067;11102,218;78,01013
 544,19; 8701,043;   55,066;11264,023;77,13453
 544,78; 8738,507;   62,766;11296,562;77,22894
 545,36; 8872,342;   77,469;11521,011;76,85447
 545,94; 8934,668;   54,564;11563,069;77,16123
 546,53; 9044,528;   52,771;11724,882;77,03626
 547,11; 9178,077;   90,668;11879,873;77,08246
 547,70; 9194,441;   75,860;11954,706;76,76319
 548,28; 9228,348;   47,965;12093,066;76,21673
 548,86; 9392,947;   81,365;12327,767;76,03525
 549,45; 9486,746;   33,768;12364,953;76,65912
 550,03; 9608,234;   76,467;12507,537;76,67697
 550,62; 9690,075;   63,566;12662,842;76,40526
 551,20; 9804,702;   61,467;12808,418;76,43581
 551,78; 9841,636;   61,164;12952,850;75,86651
 552,37;10003,768;   55,864;13112,469;76,19059
 552,95;10061,115;   56,765;13214,547;76,03371
 553,54;10135,231;   49,965;13393,207;75,58333
 554,12;10215,650;   67,167;13498,797;75,55660
 554,70;10406,277;   67,568;13736,973;75,63394
 555,29;10457,879;   61,965;13856,285;75,36373
 555,87;10550,669;   60,170;13987,786;75,32157
 556,45;10631,196;   57,162;14154,058;75,00967
 557,04;10745,570;   43,667;14376,600;74,66653
 557,62;10806,570;   68,867;14525,499;74,27528
 558,20;10966,645;   42,671;14799,940;74,02435
 558,79;11072,298;  100,368;14905,875;74,10709
 559,37;11168,402;   49,867;15000,418;74,36873
 559,95;11207,609;   46,669;15169,691;73,80099
 560,54;11311,861;   71,768;15324,613;73,69178
 561,12;11422,507;   50,866;15485,562;73,67583
 561,70;11505,325;   50,369;15679,551;73,29210
 562,29;11675,229;   61,768;15810,994;73,73989
 562,87;11761,945;   73,168;16023,953;73,28026
 563,45;11901,346;   71,068;16194,754;73,37204
 564,04;11886,561;   54,362;16227,195;73,16095
 564,62;12020,394;   37,769;16438,332;73,06228
 565,20;12136,265;   59,962;16715,838;72,50476
 565,78;12245,263;   70,765;16797,326;72,78542
 566,37;12416,559;   71,066;17011,283;72,87683
 566,95;12490,773;   52,969;17124,330;72,85772
 567,53;12642,896;   67,262;17308,857;72,93777
 568,12;12660,747;   62,265;17367,766;72,80045
 568,70;12823,600;   85,264;17565,889;72,87117
 569,28;12909,926;   61,069;17745,252;72,65734
 569,86;13030,687;   67,767;17910,758;72,64993
 570,45;13223,589;   78,569;18124,689;72,84125
 571,03;13210,081;   53,962;18259,898;72,26280
 571,61;13400,232;   46,571;18424,824;72,66012
 572,19;13355,908;   54,263;18395,773;72,52208
 572,78;13560,798;   70,668;18668,975;72,53418
 573,36;13735,168;   84,264;18797,668;72,94720
 573,94;13736,636;   44,064;18892,750;72,64470
 574,52;13819,178;   54,559;19030,768;72,53619
 575,11;13939,404;   37,264;19159,830;72,70018
 575,69;14026,339;   53,566;19268,680;72,71762
 576,27;14143,169;   47,161;19391,381;72,86935
 576,85;14244,067;   43,264;19549,668;72,80072
 577,44;14333,196;   30,262;19814,158;72,29584
 578,02;14395,010;   32,159;19753,887;72,82755
 578,60;14521,819;   50,464;20073,791;72,27248
 579,18;14582,056;   51,963;20160,752;72,25742
 579,76;14635,884;   40,264;20300,129;72,04204
 580,35;14772,721;   60,170;20436,707;72,20339
 580,93;14820,966;   59,667;20641,557;71,71984
 581,51;14951,737;   24,770;20697,168;72,20724
 582,09;14969,276;   58,663;20755,756;72,04207
 582,67;15009,502;   49,567;20971,318;71,50422
 583,26;15156,762;   28,568;21227,014;71,36464
 583,84;15223,052;   14,164;21413,709;71,07108
 584,42;15298,999;   48,064;21513,287;71,04951
 585,00;15478,438;   81,366;21772,180;70,98430
 585,58;15532,370;   25,167;21912,299;70,85078
 586,17;15590,753;   46,761;21948,521;70,97143
 586,75;15584,091;    6,666;22026,902;70,74141
 587,33;15669,418;   47,767;22191,678;70,54603
 587,91;15739,591;   74,866;22390,201;70,19713
 588,49;15763,797;   63,962;22349,758;70,44772
 589,07;15751,882;   45,468;22403,215;70,25043
 589,65;15677,154;   28,267;22444,439;69,81070
 590,24;15762,181;   42,562;22447,799;70,16047
 590,82;15799,917;   28,261;22484,160;70,23391
 591,40;15795,252;   41,464;22520,209;70,08304
 591,98;15901,193;   45,759;22558,227;70,42957
 592,56;15891,217;   61,161;22699,961;69,92445
 593,14;15911,494;   43,359;22728,928;69,94815
 593,72;15977,531;   29,765;22889,107;69,76476
 594,30;15932,710;   36,759;22797,486;69,83938
 594,89;16064,884;   41,364;22862,428;70,21373
 595,47;16109,854;   38,961;22922,623;70,22867
 596,05;16098,971;   30,267;23003,799;69,94442
 596,63;16131,570;   31,167;23056,199;69,92565
 597,21;16276,675;   36,766;23145,441;70,27624
 597,79;16236,454;   35,467;23166,039;70,04145
 598,37;16209,705;   36,669;23222,748;69,75322
 598,95;16345,091;   50,766;23305,301;70,06945
 599,53;16211,691;   46,757;23207,996;69,79305
 600,11;16287,716;   48,665;23341,947;69,71560
 600,70;16159,572;   57,363;23315,111;69,23374
 601,28;16223,451;   38,564;23424,809;69,20687
 601,86;16185,891;   61,766;23355,102;69,22205
 602,44;16105,217;   23,661;23449,660;68,64832
 603,02;16051,863;   38,656;23576,521;68,03169
 603,60;16067,534;   54,858;23663,232;67,82625
 604,18;15938,924;   69,263;23594,734;67,45736
 604,76;15814,576;   59,263;23642,154;66,80823
 605,34;15508,527;   27,565;23530,764;65,86747
 605,92;15261,333;   59,561;23453,719;64,98106
 606,50;15131,681;   17,662;23498,998;64,36609
 607,08;14816,438;   31,666;23394,881;63,28227
 607,66;14609,675;   39,266;23561,643;61,94276
 608,24;14274,786;   46,067;23522,059;60,60966
 608,82;14003,804;   26,164;23532,031;59,46447
 609,40;13620,923;   46,466;23471,021;57,94969
 609,98;13263,083;   18,864;23505,928;56,38942
 610,56;12984,737;   43,861;23497,662;55,17603
 611,14;12706,179;   30,765;23481,086;54,05220
 611,72;12498,747;   42,665;23572,467;52,93747
 612,30;12296,860;   24,962;23468,496;52,34662
 612,88;12225,814;   60,659;23517,730;51,86136
 613,46;12118,381;   21,862;23505,697;51,50998
 614,04;11973,678;   30,068;23461,873;50,97179
 614,62;11933,869;   41,561;23489,982;50,71688
 615,20;11858,382;   52,768;23402,416;50,56014
 615,78;11783,873;   25,569;23463,430;50,16799
 616,36;11809,235;   41,364;23400,150;50,37878
 616,94;11686,975;    7,666;23272,242;50,20211
 617,52;11599,166;   24,067;23373,656;49,57303
 618,10;11651,562;   63,559;23336,107;49,79258
 618,68;11552,059;   17,966;23253,184;49,64056
 619,26;11556,514;   39,268;23398,834;49,30419
 619,84;11485,124;   18,963;23277,133;49,29950
 620,42;11504,331;   31,165;23313,506;49,27841
 621,00;11552,831;   28,865;23209,607;49,71353
 621,58;11683,441;   38,760;23216,406;50,24100
 622,16;11736,417;   49,270;23335,164;50,18981
 622,74;11873,274;   47,066;23327,742;50,79839
 623,32;11936,943;   42,166;23291,223;51,16241
 623,90;12125,248;   66,971;23311,484;51,87580
 624,48;12233,980;   32,662;23196,598;52,67377
 625,05;12346,480;   34,562;23105,098;53,36642
 625,63;12452,780;   52,962;23188,799;53,59572
 626,21;12494,660;   38,262;23117,596;53,97209
 626,79;12646,302;   53,967;23219,719;54,35755
 627,37;12610,013;   28,162;23090,717;54,55532
 627,95;12580,782;   72,768;23200,215;54,08299
 628,53;12578,631;   49,365;23176,607;54,17536
 629,11;12581,846;   48,259;23043,449;54,50525
 629,69;12584,394;   53,369;23256,932;54,00474
 630,27;12523,624;   80,763;23105,434;54,04143
 630,84;12441,280;   43,862;23021,197;53,95499
 631,42;12425,766;   54,367;23319,656;53,17535
 632,00;12373,178;   45,459;23125,768;53,41228
 632,58;12327,088;   50,263;23105,172;53,25037
 633,16;12311,601;   49,870;23096,906;53,20307
 633,74;12189,199;   56,264;23018,488;52,83867
 634,32;12064,385;   45,661;23007,842;52,34139
 634,90;12081,785;   51,970;23195,746;51,97862
 635,47;11882,105;   38,860;23035,645;51,49957
 636,05;11708,685;   37,461;22989,342;50,85084
 636,63;11545,331;   45,965;23104,807;49,86966
 637,21;11471,483;   67,464;23150,529;49,40427
 637,79;11298,011;   71,465;23192,904;48,55470
 638,37;11022,600;   54,055;23070,883;47,65446
 638,94;10871,779;   33,265;23100,686;46,98624
 639,52;10698,179;   41,665;23195,285;46,02526
 640,10;10580,468;   64,264;23215,900;45,42316
 640,68;10424,452;   54,164;23175,334;44,85192
 641,26;10377,036;   35,864;23250,268;44,54636
 641,84;10332,521;   39,164;23235,002;44,37588
 642,41;10271,305;   28,264;23192,936;44,21837
 642,99;10296,688;   48,464;23145,568;44,37017
 643,57;10419,873;   22,064;23158,402;44,94146
 644,15;10487,557;   27,064;23178,035;45,18382
 644,73;10623,941;   37,564;23277,568;45,55239
 645,30;10692,426;   55,264;23230,303;45,89922
 645,88;10828,210;   44,964;23362,635;46,24495
 646,46;10908,994;   59,264;23447,568;46,38955
 647,04;10925,678;   51,864;23367,902;46,63663
 647,61;11048,362;   46,564;23396,336;47,11737
 648,19;10996,446;   61,664;23433,369;46,78641
 648,77;10937,230;   26,264;23442,002;46,59672
 649,35;10914,614;   51,064;23590,137;46,15114
 649,92;10796,599;   42,464;23596,070;45,65812
 650,50;10621,783;   30,064;23551,104;45,03083
 651,08;10494,667;   39,964;23450,537;44,65804
 651,66;10404,552;   21,864;23534,770;44,15740
 652,23;10242,235;   39,064;23561,004;43,37725
 652,81;10261,720;   36,464;23644,137;43,31327
 653,39;10134,304;   56,164;23647,170;42,72026
 653,97;10082,688;   37,065;23882,504;42,12807
 654,54;10051,572;   23,565;23823,137;42,13524
 655,12;10134,656;   30,965;23831,971;42,45069
 655,70;10306,141;   42,065;23962,805;42,90869
 656,28;10375,524;   32,765;23947,037;43,24932
 656,85;10538,309;   44,065;24051,070;43,71326
 657,43;10642,393;   -1,035;23831,305;44,65960
 658,01;10888,978;   21,465;24078,539;45,17388
 658,58;11098,562;   55,165;24234,371;45,67312
 659,16;11214,846;   51,965;24154,105;46,31489
 659,74;11438,930;   59,465;24338,039;46,87040
 660,32;11600,514;   71,665;24327,672;47,52987
 660,89;11641,498;   34,265;24347,305;47,74077
 661,47;11821,683;   51,665;24464,939;48,21155
 662,05;11791,866;   25,365;24587,373;47,90529
 662,62;11923,051;   59,665;24584,006;48,37392
 663,20;11922,734;   80,665;24740,139;48,02239
 663,78;11895,919;   47,965;24902,773;47,66866
 664,35;11877,903;   52,465;24921,006;47,55180
 664,93;11868,287;   64,465;25123,539;47,10398
 665,51;11870,371;   49,565;25170,973;47,05471
 666,08;11809,556;   30,165;25185,707;46,82622
 666,66;12019,939;   47,465;25667,539;46,73083
 667,23;12045,024;   51,765;25732,773;46,70089
 667,81;12165,809;   65,865;25889,307;46,85643
 668,39;12142,192;   43,265;26047,141;46,52740
 668,96;12397,376;   54,665;26309,074;47,01195
 669,54;12593,961;   38,765;26408,408;47,61231
 670,12;12784,645;   51,165;26808,740;47,58832
 670,69;12954,329;   64,165;26950,674;47,94287
 671,27;13158,613;   25,565;27096,008;48,51435
 671,84;13188,697;   40,665;27105,240;48,58023
 672,42;13347,682;   66,265;27253,875;48,85099
 673,00;13556,766;   57,165;27531,408;49,13548
 673,57;13561,550;   59,965;27276,441;49,60813
 674,15;13707,334;   64,065;27613,475;49,52291
 674,72;13613,618;   58,565;27536,209;49,33121
 675,30;13665,103;   69,466;27513,541;49,53942
 675,88;13841,087;   36,266;27573,176;50,13206
 676,45;13911,371;   59,466;27677,309;50,15564
 677,03;13920,255;   67,866;27525,043;50,45089
 677,60;14049,039;   41,466;27770,576;50,51577
 678,18;14272,623;   59,466;27877,510;51,09330
 678,76;14326,107;   40,766;27809,143;51,44464
 679,33;14413,592;   57,666;27813,176;51,72280
 679,91;14545,275;   44,266;27813,311;52,22005
 680,48;14665,360;   28,766;27740,242;52,81781
 681,06;14913,044;   50,866;27735,176;53,68448
 681,63;14975,028;   37,566;27736,209;53,92850
 682,21;15164,912;   67,966;27797,543;54,44348
 682,78;15146,297;   20,566;27459,576;55,12491
 683,36;15325,681;   46,966;27565,510;55,52152
 683,93;15462,064;   30,466;27450,645;56,27826
 684,51;15557,549;   26,166;27477,277;56,57834
 685,08;15710,733;   38,966;27733,711;56,58751
 685,66;15688,417;   53,066;27694,045;56,56584
 686,24;15894,401;   33,766;27796,578;57,12907
 686,81;15897,686;   57,666;27899,910;56,89204
 687,39;15903,770;   38,866;27807,844;57,13175
 687,96;15986,554;   54,166;27850,479;57,31835
 688,54;16021,038;   30,866;27984,811;57,20184
 689,11;15998,723;   26,966;28043,545;57,00823
 689,69;16112,807;   29,666;28019,279;57,46110
 690,26;16235,291;   59,466;28289,313;57,30044
 690,84;16151,075;   50,066;28239,846;57,11648
 691,41;16197,759;   35,966;28403,879;56,97209
 691,98;16254,943;   31,466;28427,912;57,13207
 692,56;16429,328;   32,866;28437,445;57,72471
 693,13;16593,611;   64,866;28655,080;57,81260
 693,71;16616,896;   24,466;28657,912;57,94772
 694,28;16838,480;   41,966;28715,945;58,57755
 694,86;17027,764;   47,266;28928,879;58,79345
 695,43;17144,348;   61,366;29100,912;58,82661
 696,01;17393,432;   36,266;29145,547;59,62760
 696,58;17564,416;   42,167;29083,879;60,33477
 697,16;17730,400;   38,067;29126,414;60,82275
 697,73;17960,285;   63,467;29338,246;61,13391
 698,30;18007,270;   51,867;29223,980;61,54989
 698,88;18153,453;   40,467;29558,613;61,36221
 699,45;18320,637;   35,367;29765,848;61,50345
 700,03;18461,521;   56,067;29750,980;61,98184
 700,60;18530,807;   56,267;29850,613;62,00686
 701,18;18795,291;   61,867;29963,947;62,64923
 701,75;18892,574;   74,367;30094,682;62,68491
 702,32;18763,559;   50,367;29901,914;62,68751
 702,90;18880,043;   52,467;30254,148;62,33950
 703,47;18981,227;   51,367;30428,881;62,31537
 704,05;18979,111;   67,767;30546,715;62,04723
 704,62;19004,494;   39,867;30587,848;62,08144
 705,19;18971,580;   43,667;30586,982;61,97072
 705,77;19194,063;   29,967;30618,314;62,65162
 706,34;19374,648;   61,667;30627,049;63,18580
 706,91;19368,332;   46,367;30673,883;63,08695
 707,49;19651,217;   57,267;30976,316;63,37177
 708,06;19774,000;   66,367;31089,049;63,52653
 708,64;19747,184;   25,767;31093,582;63,47861
 709,21;19950,568;   58,167;31179,316;63,91924
 709,78;20163,453;   41,367;31281,150;64,41173
 710,36;20395,537;   61,667;31419,684;64,84425
 710,93;20619,820;   50,567;31562,416;65,27466
 711,50;20832,904;   44,467;31506,049;66,07563
 712,08;21077,090;   76,567;31925,383;65,93816
 712,65;21137,873;   73,667;31775,916;66,44389
 713,22;21264,059;   69,067;31900,250;66,58562
 713,80;21296,242;   84,167;31966,883;66,53158
 714,37;21376,727;   55,767;31827,018;67,10771
 714,94;21408,510;   53,967;31727,551;67,42067
 715,52;21542,195;   47,867;31732,984;67,83730
 716,09;21615,578;   65,467;31891,918;67,71132
 716,66;21538,162;   73,467;31935,051;67,36857
 717,23;21534,547;   66,867;31908,484;67,42019
 717,81;21684,730;   50,168;31812,018;68,11493
 718,38;21571,615;   47,468;31671,252;68,06316
 718,95;21544,500;   59,068;31618,984;68,07823
 719,53;21607,984;   56,568;31661,418;68,19022
 720,10;21424,268;   59,968;31481,252;67,99308
 720,67;21382,152;   35,768;31355,984;68,15529
 721,24;21293,137;   59,468;31256,020;68,06415
 721,82;21272,920;   49,968;31236,053;68,05263
 722,39;21349,504;   64,068;31235,885;68,28423
 722,96;21488,488;   64,968;31261,420;68,67294
 723,53;21425,473;   88,268;31151,953;68,68858
 724,11;21547,557;   61,568;31207,486;68,98493
 724,68;21497,141;   71,568;31242,020;68,73681
 725,25;21702,926;   72,768;31399,953;69,04597
 725,82;21892,109;   96,068;31564,387;69,26344
 726,40;21947,193;   62,668;31714,820;69,14072
 726,97;22037,178;   62,168;31875,354;69,07516
 727,54;22300,662;   46,968;31801,486;70,08040
 728,11;22365,246;   49,568;32045,820;69,74466
 728,69;22410,830;   39,568;31938,953;70,13070
 729,26;22623,115;   53,568;32105,088;70,41646
 729,83;22668,299;   53,268;32264,621;70,20826
 730,40;22801,184;   66,768;32291,754;70,54903
 730,97;22850,367;   44,268;32590,588;70,07274
 731,55;23038,551;   41,468;32755,820;70,29662
 732,12;23090,936;   86,268;32841,656;70,23170
 732,69;23175,219;   66,968;32889,988;70,40257
 733,26;23260,104;   55,168;32930,520;70,58460
 733,83;23384,287;   41,168;32979,055;70,87012
 734,41;23458,271;   65,468;32991,590;71,04634
 734,98;23453,057;   51,368;33155,621;70,69088
 735,55;23607,541;   43,168;33183,656;71,10448
 736,12;23723,824;   65,968;33377,289;71,02047
 736,69;23732,609;   76,968;33377,922;71,03593
 737,26;23801,293;   57,468;33552,254;70,88812
 737,84;23685,777;   70,768;33487,188;70,66888
 738,41;23679,361;   63,168;33492,422;70,64529
 738,98;23677,145;   63,569;33375,055;70,88719
 739,55;23629,830;   49,669;33377,789;70,75155
 740,12;23726,814;   62,969;33678,023;70,39657
 740,69;23658,799;   70,569;33575,656;70,40194
 741,26;23728,281;   56,269;33557,391;70,66036
 741,83;23765,766;   53,869;33719,523;70,43349
 742,41;23777,650;   56,169;33833,055;70,22992
 742,98;23898,635;   91,469;33874,590;70,47059
 743,55;23986,418;   53,569;33836,824;70,84234
 744,12;23859,504;   50,469;33859,855;70,42138
 744,69;23948,486;   59,569;33848,492;70,70044
 745,26;23876,072;   42,169;33677,723;70,85926
 745,83;23990,855;   58,769;33854,355;70,81424
 746,40;24025,141;   57,969;33844,789;70,93645
 746,97;24022,123;   44,769;33828,125;70,97387
 747,55;24083,508;   62,269;33966,957;70,84931
 748,12;24123,293;   57,869;33910,191;71,08943
 748,69;24056,877;   68,769;33877,625;70,95214
 749,26;24204,160;   65,069;33958,559;71,22044
 749,83;24182,844;   42,569;33911,992;71,27454
 750,40;24366,129;   89,669;34158,824;71,25642
 750,97;24284,412;   96,269;34144,160;71,04153
 751,54;24306,598;   40,569;33980,793;71,49637
 752,11;24239,480;   52,969;33874,727;71,51169
 752,68;24310,965;   87,869;33912,859;71,61302
 753,25;24181,449;   60,269;33774,594;71,54579
 753,82;24167,135;   65,069;33810,527;71,42314
 754,39;24210,918;   75,169;33727,160;71,72161
 754,96;24139,502;   60,069;33616,395;71,75825
 755,53;24124,887;   29,469;33796,527;71,35776
 756,10;24077,471;   64,169;33720,961;71,34757
 756,67;24075,754;   73,369;33813,395;71,13920
 757,24;24032,238;   72,769;33740,426;71,16465
 757,81;23845,723;   16,469;33677,762;70,79126
 758,38;23943,707;   54,569;33822,695;70,74464
 758,95;24023,691;   79,469;33743,426;71,12718
 759,52;23949,775;   57,469;33615,859;71,19622
 760,09;23693,061;   68,570;33306,992;71,07585
 760,66;23592,244;   59,570;33309,727;70,77463
 761,23;23650,729;   91,070;33353,961;70,82866
 761,80;23454,912;   56,270;33295,793;70,39404
 762,37;23552,896;   68,970;33167,727;70,95108
 762,94;23515,480;   70,970;33187,461;70,79407
 763,51;23352,164;   36,070;32949,793;70,84004
 764,08;23277,148;   66,270;32998,527;70,48068
 764,65;23112,232;   69,570;32798,961;70,40358
 765,22;23206,518;   54,670;32804,496;70,69304
 765,79;23060,902;   77,370;32691,928;70,47016
 766,36;23155,986;   73,170;32743,063;70,65471
 766,93;23341,170;   68,970;32551,295;71,64573
 767,50;23318,555;   89,470;32828,328;70,95264
 768,07;23257,139;   63,870;32699,262;71,06784
 768,64;23186,422;   86,470;32572,596;71,10713
 769,21;23013,607;   57,970;32359,729;71,06622
 769,78;23128,391;   78,770;32244,963;71,65791
 770,34;22754,574;   45,570;32031,195;70,99753
 770,91;22746,760;   58,470;31921,430;71,20585
 771,48;22797,143;   62,370;31836,863;71,55039
 772,05;22711,828;   66,470;31610,697;71,78923
 772,62;22551,813;   42,670;31443,029;71,68435
 773,19;22705,695;   59,370;31579,764;71,84658
 773,76;22595,381;   71,070;31506,297;71,65309
 774,33;22394,764;   74,170;31447,330;71,14551
 774,90;22131,648;   52,870;31206,064;70,87164
 775,47;22181,633;   59,970;30957,498;71,59687
 776,03;22122,217;   73,470;30984,330;71,33010
 776,60;21979,301;   55,970;30757,863;71,40710
 777,17;21904,686;   65,470;30698,098;71,29397
 777,74;21706,369;   30,870;30522,031;71,08781
 778,31;21742,854;   68,970;30582,064;71,03142
 778,88;21528,738;   30,470;30366,898;70,86618
 779,45;21355,922;   75,770;30358,131;70,27243
 780,01;21356,006;   58,370;30299,664;70,42568
 780,58;21207,189;   60,570;30177,998;70,21389
 781,15;20983,773;   38,771;29979,432;69,95504
 781,72;21009,459;   66,771;29962,266;70,05299
 782,29;20964,342;   51,771;29667,100;70,61401
 782,86;21018,926;   55,571;29617,732;70,91279
 783,42;20779,611;   56,171;29598,166;70,14909
 783,99;20757,295;   66,671;29482,100;70,33936
 784,56;20682,279;   55,171;29320,232;70,48374
 785,13;20549,563;   40,271;29247,266;70,22048
 785,70;20472,348;   49,071;29060,299;70,39784
 786,26;20419,232;   51,671;28910,732;70,57597
 786,83;20397,717;   84,371;28889,166;70,52071
 787,40;20438,801;   57,171;28783,500;70,95104
 787,97;20268,584;   43,971;28581,133;70,87114
 788,54;20292,068;   70,371;28515,268;71,09077
 789,10;20226,953;   57,971;28344,400;71,30268
 789,67;20172,236;   70,371;28245,334;71,34655
 790,24;20038,820;   51,071;28193,768;71,02286
 790,81;19722,105;   88,271;27914,400;70,55899
 791,37;19656,488;   73,671;27872,135;70,44568
 791,94;19715,473;   70,771;27886,367;70,62477
 792,51;19490,158;   46,271;27539,201;70,72323
 793,08;19418,941;   69,771;27555,234;70,39783
 793,64;19277,025;   71,271;27455,168;70,13521
 794,21;19212,510;   69,671;27250,602;70,42746
 794,78;19063,094;   53,071;27147,035;70,16331
 795,35;18985,379;   73,471;27007,969;70,21444
 795,91;18770,863;   48,071;26789,301;70,01470
 796,48;18626,547;   55,771;26710,734;69,67099
 797,05;18528,230;   57,671;26624,369;69,52524
 797,62;18452,916;   41,971;26600,701;69,32163
 798,18;18129,299;   57,471;26410,736;68,57529
 798,75;17983,883;   56,571;26279,770;68,36432
 799,32;18098,768;   60,771;26209,102;68,98336
 799,88;17966,553;   55,971;26051,535;68,89861
 800,45;17775,137;   33,971;25945,270;68,46884
 801,02;17695,820;   65,271;25880,104;68,29620
 801,58;17687,305;   90,872;25660,436;68,81789
 802,15;17448,289;   72,872;25615,270;68,02579
 802,72;17418,473;   66,172;25404,703;68,48187
 803,28;17296,758;   49,172;25288,938;68,33497
 803,85;17125,740;   41,972;25144,871;68,05496
 804,42;17192,824;   77,772;24948,004;68,81742
 804,98;17075,510;  100,672;24935,537;68,35084
 805,55;17041,594;   56,972;24702,371;68,91599
 806,12;16973,377;   83,572;24611,004;68,86088
 806,68;16908,262;   66,472;24493,738;68,94668
 807,25;16875,146;   74,972;24436,271;68,96255
 807,82;16851,631;   86,872;24407,805;68,93140
 808,38;16781,314;   73,672;24367,037;68,77451
 808,95;16719,498;   62,972;24166,971;69,10275
 809,52;16683,184;   50,272;24162,004;68,98265
 810,08;16644,268;   55,172;23994,938;69,29515
 810,65;16622,852;   77,172;24169,672;68,67564
 811,21;16581,234;   69,972;24123,404;68,64410
 811,78;16569,119;   92,472;24337,539;67,95876
 812,35;16500,404;   64,972;24173,871;68,17164
 812,91;16511,287;   90,072;24239,705;67,99778
 813,48;16529,371;   68,172;24202,738;68,20590
 814,04;16464,156;   64,172;24088,373;68,26443
 814,61;16347,641;   77,572;24176,006;67,51505
 815,18;16210,425;   67,772;23892,539;67,75576
 815,74;16228,108;   69,772;23709,172;68,35341
 816,31;16158,793;   83,372;23614,406;68,31583
 816,87;15894,577;   43,272;23489,641;67,60665
 817,44;15918,062;   76,972;23452,273;67,76849
 818,00;15695,445;   43,272;23159,506;67,71074
 818,57;15767,229;   71,872;23076,340;68,22743
 819,14;15722,113;   82,872;22924,273;68,46883
 819,70;15635,198;   72,672;22792,707;68,49693
 820,27;15570,982;   62,972;22691,941;68,53167
 820,83;15537,466;   70,072;22541,373;68,83177
 821,40;15509,051;   98,072;22431,908;69,00283
 821,96;15451,935;   75,272;22315,541;69,13883
 822,53;15424,419;   70,973;22257,574;69,20143
 823,09;15410,503;   81,073;22073,309;69,70383
 823,66;15384,688;   68,173;21862,541;70,27740
 824,22;15312,771;   77,173;21851,674;69,96991
 824,79;15112,556;   75,473;21561,408;69,98570
 825,35;15164,939;   65,173;21648,041;69,96182
 825,92;15056,224;   75,173;21398,875;70,25539
 826,48;14874,008;   87,673;21501,309;69,05103
 827,05;14832,292;   89,573;21448,242;69,02452
 827,61;14682,477;   75,273;21249,076;68,98715
 828,18;14546,261;   60,873;21191,209;68,55257
 828,74;14558,145;   91,673;21053,543;69,01327
 829,31;14446,229;   83,373;21002,176;68,66003
 829,87;14330,913;   73,073;20733,709;69,00969
 830,44;14250,097;   85,173;20631,443;68,94158
 831,00;14135,581;   91,273;20673,977;68,23354
 831,57;14087,466;  101,573;20631,609;68,12405
 832,13;13905,050;   72,073;20323,344;68,30671
 832,69;13805,134;   58,173;20309,477;67,88186
 833,26;13775,618;   85,473;20322,711;67,64829
 833,82;13766,603;   93,073;20197,744;68,01170
 834,39;13656,986;   78,773;20137,477;67,69238
 834,95;13539,471;   57,173;19959,410;67,74262
 835,52;13530,255;   87,873;19851,744;68,01492
 836,08;13593,639;   95,573;19951,877;67,97874
 836,64;13517,723;   76,273;19800,711;68,14617
 837,21;13462,707;   88,673;19552,443;68,71245
 837,77;13465,791;   91,873;19491,777;68,93806
 838,34;13423,476;   67,473;19470,012;68,83637
 838,90;13294,960;   64,473;19306,045;68,75991
 839,46;13265,744;   83,873;19312,479;68,55344
 840,03;13282,328;   76,173;19300,811;68,69391
 840,59;13245,412;   85,873;19175,645;68,93503
 841,16;13155,296;  105,173;19156,578;68,49953
 841,72;12984,681;   59,373;18965,512;68,36567
 842,28;12876,465;   77,873;18857,246;68,15239
 842,85;12812,648;   95,573;18812,578;67,94396
 843,41;12764,733;  105,374;18740,813;67,93164
 843,97;12657,018;   89,174;18686,846;67,57751
 844,54;12603,302;  104,774;18624,979;67,48591
 845,10;12491,785;   89,174;18523,713;67,27921
 845,67;12434,270;   68,774;18413,445;67,40647
 846,23;12296,154;   78,674;18361,080;66,82644
 846,79;12249,538;   90,474;18265,613;66,89943
 847,36;12012,622;   55,774;18179,047;65,97510
 847,92;12042,106;   84,874;18034,680;66,61483
 848,48;12022,591;   41,874;18039,213;66,56938
 849,04;11976,075;   62,374;17949,447;66,60509
 849,61;11969,759;   56,274;17918,580;66,69623
 850,17;12028,743;   68,174;17819,514;67,37840
 850,73;11976,027;   71,474;17764,848;67,28255
 851,30;12006,212;   46,074;17669,881;67,86353
 851,86;11911,996;   75,874;17597,914;67,54991
 852,42;12002,979;   51,174;17568,348;68,22907
 852,99;12037,464;   79,274;17583,082;68,31765
 853,55;11937,048;   83,174;17542,514;67,89417
 854,11;11874,933;   70,074;17432,049;67,99260
 854,67;11923,316;   85,474;17420,881;68,28708
 855,24;11786,700;   51,874;17213,414;68,37863
 855,80;11800,085;   76,874;17244,848;68,28535
 856,36;11874,669;   80,574;17175,881;68,99025
 856,92;11706,854;   54,474;17027,215;68,65349
 857,49;11700,938;   81,274;17048,248;68,48401
 858,05;11561,021;   67,274;16968,482;68,00548
 858,61;11575,706;   65,774;17003,316;67,95515
 859,17;11480,490;   77,374;16904,250;67,76728
 859,74;11403,574;   82,074;16836,883;67,57165
 860,30;11300,258;   93,074;16663,016;67,63563
 860,86;11282,442;   72,074;16692,350;67,44995
 861,42;11229,127;   74,674;16545,883;67,72091
 861,99;11181,011;   54,674;16506,717;67,62891
 862,55;11053,395;   66,374;16393,051;67,29490
 863,11;11142,679;   75,174;16437,283;67,64106
 863,67;11009,063;   61,274;16290,117;67,45884
 864,23;11048,147;   80,175;16199,351;68,04301
 864,80;10967,332;   69,175;16081,384;68,06155
 865,36;11081,516;   71,875;16120,817;68,60041
 865,92;11022,000;   96,175;16088,751;68,31811
 866,48;10989,185;   67,375;15987,384;68,60429
 867,04;11019,769;   60,675;15891,418;69,22665
 867,60;10974,452;   99,375;15884,451;68,89468
 868,17;11042,437;   93,675;15884,685;69,33541
 868,73;10915,721;   82,775;15672,618;69,48720
 869,29;10856,604;   59,475;15470,151;70,06266
 869,85;10837,389;  100,475;15369,685;70,31742
 870,41;10691,773;   80,575;15293,418;69,75158
 870,97;10622,558;   92,975;15232,252;69,55142
 871,54;10563,741;   84,175;15178,686;69,42634
 872,10;10500,626;   84,275;15055,419;69,57619
 872,66;10280,910;   66,775;14910,652;68,81043
 873,22;10294,594;   81,975;14890,586;68,96406
 873,78;10060,878;   65,275;14742,419;68,10319
 874,34;10025,763;   95,075;14662,652;68,16980
 874,90;10027,362;  109,775;14536,053;68,74668
 875,46; 9836,362;   96,375;14412,952;68,03293
 876,03; 9813,263;   86,475;14363,353;68,12966
 876,59; 9638,362;   64,475;14153,253;67,95399
 877,15; 9591,662;  101,475;14166,853;67,47197
 877,71; 9525,063;   78,275;14064,652;67,54278
 878,27; 9432,862;   95,675;13910,553;67,58791
 878,83; 9508,862;  114,275;13971,753;67,79435
 879,39; 9518,263;   91,075;14082,753;67,37711
 879,95; 9397,862;   86,275;13964,253;67,09614
 880,51; 9310,263;   75,175;13927,253;66,66933
 881,07; 9392,763;   82,375;13978,753;66,99866
 881,63; 9446,963;   92,575;13971,253;67,40115
 882,19; 9475,362;   82,675;13921,553;67,87174
 882,75; 9557,463;   86,275;14019,553;67,97530
 883,31; 9672,162;   95,575;14187,853;67,95628
 883,88; 9615,963;   96,375;14174,353;67,62042
 884,44; 9639,662;   76,175;14175,753;67,82818
 885,00; 9791,963;  106,075;14266,952;68,39893
 885,56; 9824,662;  101,675;14299,452;68,48246
 886,12; 9882,263;  109,875;14421,152;68,28452
 886,68; 9858,662;   90,775;14436,753;68,08798
 887,24; 9950,463;  102,475;14574,952;68,04632
 887,80; 9839,463;   86,975;14671,753;66,86758
 888,36; 9941,362;  106,275;14715,652;67,32037
 888,92; 9978,662;   98,975;14773,353;67,32611
 889,48;10073,362;   99,575;14973,853;67,05393
 890,04;10018,263;   95,275;14803,053;67,46762
 890,60;10137,563;  117,475;15014,652;67,26165
 891,16; 9989,662;   99,875;15075,853;66,03767
 891,72; 9946,463;  113,275;15058,452;65,79506
 892,28;10021,662;  112,475;15126,053;66,00150
 892,84; 9892,862;   93,775;15039,853;65,56294
 893,39; 9872,563;  117,575;15112,952;65,05330
 893,95; 9805,362;  112,975;15044,753;64,91114
 894,51; 9754,963;   66,375;14891,253;65,35358
 895,07; 9689,563;  127,375;14906,353;64,70128
 895,63; 9537,862;   74,275;14689,952;64,74956
 896,19; 9520,063;   90,375;14601,952;64,98045
 896,75; 9442,263;  105,175;14460,152;65,04425
 897,31; 9430,263;   82,775;14295,853;65,76681
 897,87; 9335,963;   98,175;14146,853;65,75557
 898,43; 9300,662;   87,775;14075,753;65,86289
 898,99; 9255,563;  109,175;14002,753;65,83176
 899,55; 9120,463;  109,475;13940,652;65,14983
 900,11; 9024,063;  104,975;13747,553;65,37685
 900,67; 8874,763;   91,375;13658,652;64,73950
 901,22; 8827,063;  108,375;13601,952;64,61361
 901,78; 8718,963;   91,275;13560,053;64,05695
 902,34; 8645,362;  103,075;13451,152;63,99639
 902,90; 8522,162;   73,575;13350,652;63,63288
 903,46; 8428,162;   95,775;13236,353;63,40960
 904,02; 8288,063;   88,075;13091,553;63,05996
 904,58; 8154,563;   67,075;12918,152;62,93237
 905,14; 8060,063;   63,975;12874,553;62,41785
 905,70; 7851,763;   66,775;12696,053;61,64238
 906,25; 7842,563;   84,375;12708,452;61,45548
 906,81; 7782,563;   87,675;12732,152;60,85572
 907,37; 7646,263;   79,275;12616,152;60,35783
 907,93; 7583,962;   74,775;12588,152;60,00928
 908,49; 7491,362;  101,875;12497,652;59,61294
 909,05; 7489,563;   89,675;12425,553;59,98671
 909,60; 7320,263;   86,575;12340,452;59,03183
 910,16; 7272,563;   67,675;12291,853;58,93965
 910,72; 7273,263;  100,475;12207,753;59,24360
 911,28; 7196,362;   90,875;12156,053;58,89252
 911,84; 7195,763;   79,575;12106,753;59,16756
 912,39; 7157,462;   73,475;12049,353;59,15214
 912,95; 7120,862;  104,475;12001,452;58,97622
 913,51; 7082,862;   85,375;11945,253;59,00134
 914,07; 7022,163;   83,775;11813,452;59,15242
 914,63; 6999,462;   64,775;11748,053;59,35567
 915,18; 6878,563;   77,475;11617,853;58,93297
 915,74; 6821,663;   63,975;11632,652;58,41366
 916,30; 6775,362;   61,475;11588,553;58,24449
 916,86; 6775,862;   83,575;11514,652;58,54468
 917,42; 6636,962;   82,275;11425,152;57,78681
 917,97; 6495,763;   75,375;11265,452;57,37572
 918,53; 6422,063;   67,775;11196,253;57,09934
 919,09; 6368,962;   88,975;11223,753;56,39975
 919,65; 6174,962;   83,375;11083,452;55,37768
 920,20; 6091,263;   61,875;10983,053;55,20822
 920,76; 5917,862;   65,475;10849,452;54,26929
 921,32; 5829,163;   82,675;10770,952;53,76440
 921,87; 5659,163;   97,475;10670,253;52,60384
 922,43; 5525,063;   64,675;10561,353;52,02015
 922,99; 5423,362;   61,875;10406,753;51,82746
 923,55; 5323,763;   63,775;10357,353;51,09970
 924,10; 5226,862;   73,575;10282,853;50,47651
 924,66; 5170,063;   78,675;10170,152;50,45235
 925,22; 5008,763;   43,275;10093,952;49,40451
 925,77; 4924,163;   66,075; 9927,053;49,26578
 926,33; 4884,763;   90,375; 9903,253;48,85812
 926,89; 4806,663;   71,975; 9692,753;49,21315
 927,44; 4689,763;   52,175; 9580,553;48,67133
 928,00; 4586,362;   66,875; 9533,753;47,74000
 928,56; 4524,763;   80,375; 9372,253;47,83089
 929,12; 4450,962;   72,775; 9275,152;47,57670
 929,67; 4351,163;   67,575; 9091,053;47,47158
 930,23; 4266,663;   50,975; 8915,253;47,55816
 930,78; 4213,462;  100,675; 8842,553;47,04696
 931,34; 4045,462;   61,975; 8632,152;46,48080
 931,90; 3936,462;   61,675; 8494,353;45,94967
 932,45; 3766,863;   78,775; 8290,753;44,91107
 933,01; 3591,163;   52,975; 8024,453;44,38559
 933,57; 3456,063;   72,175; 7753,252;44,05485
 934,12; 3206,762;   70,475; 7399,553;42,79239
 934,68; 2991,863;   59,075; 7020,252;42,13062
 935,24; 2784,262;   67,875; 6614,752;41,49134
 935,79; 2560,262;   72,975; 6254,853;40,23515
 936,35; 2344,863;   91,375; 5812,252;39,39059
 936,90; 2150,163;   80,275; 5348,752;39,28816
 937,46; 1946,463;   72,775; 4956,953;38,36240
 938,02; 1761,762;   63,375; 4549,152;37,86161
 938,57; 1655,363;   73,175; 4265,053;37,74412
 939,13; 1510,162;   70,575; 3986,752;36,76002
 939,68; 1369,063;   57,375; 3713,452;35,87691
 940,24; 1289,262;   68,775; 3504,052;35,52806
 940,79; 1248,762;   91,875; 3391,052;35,06594
 941,35; 1193,463;   79,675; 3217,552;35,49493
 941,91; 1118,063;   71,375; 3122,252;34,30775
 942,46; 1106,162;   75,075; 3063,552;34,50210
 943,02; 1085,162;   65,375; 3050,752;34,15942
 943,57; 1053,563;   61,275; 2982,452;33,96875
 944,13; 1074,863;   67,375; 2974,452;34,65637
 944,68; 1082,262;   65,975; 3041,752;34,15200
 945,24; 1089,762;   82,275; 3060,052;33,83354
 945,79; 1054,463;   68,775; 3104,052;32,47438
 946,35; 1072,762;   51,775; 3194,752;32,48472
 946,90; 1146,963;   98,575; 3283,552;32,91664
 947,46; 1104,863;   52,175; 3311,052;32,30215
 948,01; 1099,363;   51,575; 3390,052;31,38519
 948,57; 1180,063;   86,775; 3552,952;31,54159
 949,12; 1139,963;   65,875; 3613,353;30,27750
 949,68; 1177,863;   76,275; 3732,653;30,12784
 950,23; 1173,963;   70,075; 3833,252;29,33392
 950,79; 1165,662;   75,775; 3933,452;28,25243
 951,34; 1166,162;   83,275; 4070,952;27,15584
 951,90; 1156,563;   57,475; 4140,853;26,91614
 952,45; 1162,162;   81,075; 4292,152;25,67247
 953,01; 1129,863;   65,975; 4364,252;24,75149
 953,56; 1168,863;   87,975; 4500,853;24,49394
 954,12; 1151,863;   42,075; 4567,553;24,52310
 954,67; 1141,262;   70,875; 4720,453;23,02118
 955,23; 1168,162;   61,975; 4804,553;23,32460
 955,78; 1169,963;   67,175; 4882,953;22,89947
 956,33; 1154,162;   58,575; 4947,252;22,41071
 956,89; 1165,963;   53,475; 5038,553;22,31635
 957,44; 1191,863;   53,675; 5170,752;22,24292
 958,00; 1181,463;   49,475; 5238,353;21,81565
 958,55; 1221,363;   70,475; 5313,953;21,94894
 959,10; 1214,662;   52,375; 5370,252;21,85623
 959,66; 1260,063;   74,275; 5488,752;21,90031
 960,21; 1254,662;   78,475; 5567,453;21,42817
 960,77; 1244,963;   54,275; 5606,152;21,44657
 961,32; 1230,563;   48,375; 5663,453;21,05381
 961,87; 1255,162;   79,775; 5738,752;20,77032
 962,43; 1239,762;   68,975; 5780,652;20,49814
 962,98; 1251,762;   76,175; 5828,652;20,43619
 963,54; 1210,563;   27,075; 5820,652;20,42758
 964,09; 1219,262;   56,275; 5873,953;19,99058
 964,64; 1203,963;   64,975; 5901,053;19,51632
 965,20; 1176,963;   44,375; 5966,652;19,12419
 965,75; 1141,563;   66,575; 5976,353;18,18998
 966,30; 1133,563;   75,275; 6068,553;17,65791
 966,86; 1118,863;   62,975; 6121,953;17,42683
 967,41; 1065,563;   81,075; 6084,453;16,39889
 967,96; 1057,963;   75,175; 6108,953;16,28810
 968,52; 1051,963;   81,775; 6126,353;16,05054
 969,07;  992,263;   72,975; 6120,152;15,20193
 969,62;  982,563;   77,175; 6134,953;14,94587
 970,18;  964,563;   57,575; 6147,652;14,89287
 970,73;  947,263;   66,475; 6203,553;14,35190
 971,28;  950,463;   95,775; 6197,053;14,00834
 971,84;  898,263;   55,075; 6118,752;13,90555
 972,39;  933,963;   95,875; 6148,652;13,84633
 972,94;  898,963;   54,975; 6140,652;13,86842
 973,49;  884,763;   64,575; 6141,252;13,49730
 974,05;  892,763;   64,375; 6178,053;13,54974
 974,60;  914,063;   88,575; 6213,252;13,47806
 975,15;  921,063;   77,675; 6231,553;13,70498
 975,71;  860,263;   62,375; 6121,453;13,16846
 976,26;  907,763;   77,575; 6110,252;13,76151
 976,81;  927,862;   90,675; 6134,152;13,85274
 977,36;  903,463;   84,775; 6156,953;13,48260
 977,92;  912,563;   90,175; 6209,353;13,43951
 978,47;  899,662;   77,175; 6060,252;13,74690
 979,02;  905,963;   95,475; 6085,652;13,53028
 979,57;  884,463;   86,775; 6058,453;13,35785
 980,13;  849,662;   76,175; 6038,752;12,97237
 980,68;  841,763;   77,075; 6010,553;12,88768
 981,23;  855,362;   89,175; 6054,652;12,84369
 981,78;  825,662;   82,075; 5974,152;12,62012
 982,33;  800,263;   79,275; 5893,252;12,40093
 982,89;  803,463;   94,375; 5938,152;12,13406
 983,44;  755,963;   65,675; 5935,853;11,75923
 983,99;  793,162;  104,775; 5949,453;11,77802
 984,54;  764,763;   81,475; 5900,053;11,74321
 985,09;  747,362;   87,275; 5873,752;11,40741
 985,65;  714,763;   69,375; 5811,853;11,23883
 986,20;  731,063;  106,575; 5791,152;10,98565
 986,75;  728,362;   95,875; 5823,953;11,04188
 987,30;  691,162;   97,175; 5726,053;10,55250
 987,85;  691,763;   92,475; 5721,353;10,64666
 988,40;  680,362;   96,675; 5693,953;10,42806
 988,96;  693,862;  114,875; 5666,553;10,42905
 989,51;  681,263;  108,875; 5644,053;10,34091
 990,06;  720,463;  128,275; 5680,853;10,66509
 990,61;  676,662;   93,575; 5569,053;10,64907
 991,16;  687,162;  104,375; 5558,053;10,68614
 991,71;  662,563;   79,875; 5505,853;10,73885
 992,26;  662,862;   93,475; 5457,252;10,61542
 992,81;  676,862;   75,075; 5427,053;11,24421
 993,37;  700,162;  113,475; 5390,553;11,11766
 993,92;  685,662;  108,375; 5368,953;10,97384
 994,47;  704,763;  117,475; 5329,652;11,26760
 995,02;  692,963;  118,475; 5313,252;11,05894
 995,57;  660,362;   90,875; 5274,652;10,98596
 996,12;  695,563;  133,575; 5247,553;10,98924
 996,67;  671,362;  132,375; 5191,652;10,65345
 997,22;  640,063;   99,875; 5128,652;10,74193
 997,77;  662,662;  115,275; 5110,553;10,95810
 998,32;  624,162;  103,775; 5015,652;10,59447
 998,87;  619,662;  114,275; 5018,752;10,30461
 999,42;  607,263;  101,675; 4972,553;10,37980
 999,97;  599,162;  109,975; 4956,353;10,09388
1000,53;  599,463;  123,475; 4993,752; 9,77331
1001,08;  576,763;   98,375; 4879,053;10,00669
1001,63;  587,563;  144,475; 4878,053; 9,36052
1002,18;  522,162;   85,075; 4777,453; 9,31484
1002,73;  577,063;  131,375; 4813,853; 9,51820
1003,28;  541,963;  103,575; 4811,953; 9,31080
1003,83;  536,563;  119,075; 4691,752; 9,13004
1004,38;  546,063;  137,775; 4703,152; 8,94313
1004,93;  532,763;  114,375; 4680,953; 9,16195
1005,48;  513,862;  104,075; 4573,053; 9,16960
1006,03;  494,663;  112,775; 4525,652; 8,65393
1006,58;  503,962;  111,475; 4486,553; 8,97098
1007,13;  476,862;   94,475; 4466,252; 8,74673
1007,68;  496,563;  104,975; 4462,453; 8,98656
1008,23;  508,462;  114,575; 4425,853; 9,13621
1008,78;  503,263;  107,375; 4384,152; 9,25668
1009,33;  503,563;  121,875; 4307,752; 9,11846
1009,88;  464,163;   84,775; 4329,553; 8,93775
1010,43;  478,263;  118,875; 4320,752; 8,55302
1010,98;  468,663;  100,675; 4310,053; 8,74209
1011,52;  473,063;   97,075; 4264,953; 9,02108
1012,07;  509,462;  144,475; 4319,252; 8,74268
1012,62;  471,263;  103,875; 4259,152; 8,84147
1013,17;  478,563;   97,175; 4172,053; 9,35948
1013,72;  461,063;   94,575; 4143,453; 9,05158
1014,27;  468,763;  100,275; 4105,853; 9,19936
1014,82;  426,163;   86,875; 4042,952; 8,57636
1015,37;  436,063;   84,375; 3964,853; 9,06300
1015,92;  450,862;  109,475; 3894,252; 9,02001
1016,47;  420,663;   90,275; 3819,452; 8,85953
1017,02;  401,862;   81,075; 3732,153; 8,78610
1017,57;  423,962;   96,475; 3718,853; 9,04068
1018,11;  393,862;   77,275; 3656,252; 8,84575
1018,66;  429,263;  120,175; 3636,552; 8,78994
1019,21;  393,862;  109,675; 3579,552; 8,19013
1019,76;  380,563;   77,675; 3497,353; 8,85719
1020,31;  366,163;   71,975; 3446,452; 8,71802
1020,86;  376,663;   96,175; 3448,052; 8,36807
1021,41;  360,063;   80,175; 3387,052; 8,46380
1021,96;  365,563;   83,675; 3385,853; 8,53641
1022,50;  383,462;  105,975; 3332,952; 8,59899
1023,05;  363,163;   94,675; 3288,052; 8,40763
1023,60;  373,163;   97,975; 3251,353; 8,72675
1024,15;  356,263;   81,075; 3184,853; 8,86621
1024,70;  383,663;   95,075; 3176,252; 9,36614
1025,25;  344,962;   81,175; 3127,452; 8,65934
1025,79;  380,263;  101,175; 3110,752; 9,27331
1026,34;  359,962;   83,475; 3044,653; 9,33708
1026,89;  360,063;  102,175; 3039,052; 8,78101
1027,44;  347,663;   95,875; 2952,952; 8,81276
1027,99;  358,362;   93,475; 2944,552; 9,29079
1028,53;  348,763;   89,675; 2900,052; 9,21896
1029,08;  358,063;  114,775; 2876,653; 8,80877
1029,63;  354,362;  114,875; 2854,952; 8,74017
1030,18;  342,462;   92,075; 2788,552; 9,28573
1030,73;  329,663;   91,175; 2739,552; 9,00504
1031,27;  331,962;   85,875; 2715,252; 9,35915
1031,82;  329,763;   81,875; 2686,452; 9,51738
1032,37;  348,763;   98,875; 2688,853; 9,64825
1032,92;  331,663;  100,575; 2675,452; 8,97470
1033,46;  316,563;   99,775; 2599,252; 8,67331
1034,01;  307,862;   78,375; 2582,952; 9,16272
1034,56;  323,862;   98,875; 2559,252; 9,14443
1035,11;  316,962;   92,375; 2523,552; 9,23781
1035,65;  310,263;   87,575; 2478,052; 9,31561
1036,20;  326,063;   99,375; 2454,452; 9,62548
1036,75;  328,763;  118,675; 2446,353; 9,02563
1037,29;  313,263;   90,275; 2398,252; 9,66160
1037,84;  274,263;   78,375; 2347,252; 8,63368
1038,39;  301,163;   91,075; 2329,952; 9,38361
1038,94;  258,962;   73,075; 2277,153; 8,43380
1039,48;  280,862;   83,575; 2278,552; 8,98813
1040,03;  289,462;  102,875; 2245,252; 8,70937
1040,58;  273,962;  101,175; 2194,552; 8,25401
1041,12;  272,462;   91,375; 2191,653; 8,62207
1041,67;  276,063;  101,075; 2166,752; 8,47119
1042,22;  296,163;  118,475; 2145,252; 8,76700
1042,76;  276,063;   99,275; 2118,452; 8,75542
1043,31;  271,862;   90,675; 2060,653; 9,19744
1043,86;  270,362;   98,875; 2044,252; 8,81513
1044,40;  276,163;   92,975; 2018,052; 9,51585
1044,95;  267,563;   94,175; 1988,552; 9,15274
1045,50;  255,863;   75,375; 1934,353; 9,70897
1046,04;  275,362;  114,375; 1930,453; 8,86457
1046,59;  256,462;   96,175; 1878,353; 8,99391
1047,13;  288,063;  121,075; 1879,453; 9,49668
1047,68;  259,462;  115,675; 1860,052; 8,24291
1048,23;  271,862;  118,775; 1866,752; 8,75798
1048,77;  250,663;   90,175; 1784,953; 9,46953
1049,32;  257,263;  104,175; 1785,953; 9,10272
1049,86;  256,663;   92,675; 1760,552; 9,83211
1050,41;  240,462;   82,475; 1735,552; 9,55717
1050,96;  242,762;  100,875; 1698,652; 8,88030
1051,50;  257,263;  101,675; 1663,252; 9,96348
1052,05;  246,962;   94,675; 1664,052; 9,70369
1052,59;  239,863;   82,975; 1624,152;10,17972
1053,14;  220,262;   84,475; 1582,652; 9,06351
1053,69;  241,663;   98,475; 1571,453; 9,72096
1054,23;  255,663;  104,575; 1569,052;10,31682
1054,78;  235,462;  100,775; 1550,152; 9,29278
1055,32;  254,863;  123,075; 1550,453; 9,23284
1055,87;  214,262;   68,875; 1491,752;10,21785
1056,41;  213,163;   78,775; 1469,552; 9,66276
1056,96;  205,363;   96,775; 1451,052; 8,01811
1057,50;  253,762;  113,375; 1470,853;10,34179
1058,05;  196,262;   82,075; 1401,953; 8,65137
1058,59;  221,563;   95,875; 1396,552; 9,66323
1059,14;  235,663;  103,575; 1370,453;10,42623
1059,68;  190,762;   75,975; 1329,353; 9,15825
1060,23;  241,063;  126,875; 1383,752; 9,08501
1060,77;  219,462;   97,375; 1317,052;10,00982
1061,32;  218,462;  108,575; 1320,652; 9,06605
1061,86;  219,863;  111,175; 1289,752; 9,22192
1062,41;  212,462;   93,975; 1242,953;10,31243
1062,95;  209,163;  109,575; 1230,853; 8,88161
1063,50;  217,063;  111,075; 1230,052; 9,47182
1064,04;  196,363;   90,475; 1197,453; 9,56546
1064,59;  224,563;  114,775; 1210,052;10,02372
1065,13;  200,262;  103,475; 1170,552; 9,07033
1065,68;  206,762;  107,275; 1161,353; 9,43835
1066,22;  209,462;  115,875; 1166,453; 8,90820
1066,76;  224,063;  130,175; 1145,252; 9,24929
1067,31;  192,262;   99,875; 1110,552; 9,14115
1067,85;  193,462;  100,975; 1090,252; 9,34899
1068,40;  204,563;  110,275; 1095,353; 9,57158
1068,94;  193,962;   99,175; 1079,353; 9,67044
1069,49;  194,762;   98,175; 1041,652;10,23739
1070,03;  191,762;  111,175; 1034,353; 8,72936
1070,57;  177,063;   88,775; 1012,852; 9,55412
1071,12;  163,762;   75,875;  987,153; 9,64443
1071,66;  229,163;  131,775; 1039,953;10,72340
1072,21;  211,563;  112,475; 1011,352;11,02347
1072,75;  194,462;  104,475;  978,552;10,29514
1073,29;  172,962;   77,075;  942,453;11,08042
1073,84;  183,663;   95,975;  941,153;10,37504
1074,38;  171,863;   93,875;  928,253; 9,34679
1074,92;  183,962;  107,275;  940,153; 9,20754
1075,47;  205,462;  112,775;  938,852;11,22019
1076,01;  203,762;  121,775;  926,253;10,19140
1076,56;  169,663;   97,275;  891,953; 9,10904
1077,10;  161,262;   86,075;  865,253; 9,64960
1077,64;  181,063;   97,875;  884,453;10,57588
1078,19;  200,563;  123,175;  887,753;10,12160
1078,73;  171,462;   98,775;  853,852; 9,62649
1079,27;  193,762;  121,075;  875,552; 9,63415
1079,81;  195,462;  121,375;  860,953;10,01754
1080,36;  185,363;  105,975;  836,052;10,87385
1080,90;  181,962;   96,375;  819,753;11,83165
1081,44;  160,762;   82,475;  789,552;11,07198
1081,99;  145,863;   70,375;  771,753;10,76275
1082,53;  190,962;  113,075;  798,653;11,36086
1083,07;  172,462;  104,175;  791,453; 9,93594
1083,62;  181,063;  101,275;  772,552;11,88592
1084,16;  166,962;   98,975;  782,453; 9,94729
1084,70;  170,363;  107,475;  767,153; 9,53307
1085,24;  184,262;  108,775;  750,653;11,76042
1085,79;  168,962;  109,175;  747,552; 9,36554
1086,33;  163,863;   99,075;  711,453;10,57967
1086,87;  169,262;  102,075;  714,852;10,96442
1087,41;  156,663;   84,475;  686,852;11,98377
1087,96;  190,962;  124,575;  732,552;10,91940
1088,50;  173,163;  112,075;  696,953;10,44450
1089,04;  182,863;  121,775;  715,153;10,29488
1089,58;  150,762;   82,375;  655,953;11,92297
1090,13;  159,762;  102,975;  653,153;10,32167
1090,67;  168,063;  101,775;  678,753;11,48875
1091,21;  151,363;   92,075;  651,852;10,59126
1091,75;  164,563;  106,875;  647,153;10,67738
1092,29;  167,962;  105,875;  642,552;11,56886
1092,84;  168,262;  105,975;  628,352;11,92385
1093,38;  193,962;  128,175;  662,753;12,30645
1093,92;  182,762;  113,475;  640,052;13,15808
1094,46;  180,262;  128,175;  638,852;10,19969
1095,00;  160,762;   93,975;  602,052;13,14514
1095,54;  150,262;   89,975;  591,352;12,02437
1096,09;  169,863;  114,975;  597,352;11,37854
1096,63;  177,163;  117,175;  598,453;12,46422
1097,17;  158,262;  102,575;  573,052;11,83638
1097,71;  174,462;  122,875;  582,453;11,22498
1098,25;  140,563;  103,275;  553,653; 8,27917
1098,79;  165,863;  104,775;  568,753;13,16605
1099,33;  154,762;  111,975;  572,052; 9,30006
1099,88;  149,762;  110,775;  562,253; 8,63553
1100,42;  140,962;   83,275;  521,253;13,17134

