0121 ELITRO
Integration time [ms]:   8,000
Averaging Nr. [scans]: 10
Smoothing Nr. [pixels]: 0
Data measured with spectrometer [name]: 7314920SP
Wave   ;Sample   ;Dark     ;Reference;Reflectance
[nm]   ;[counts] ;[counts] ;[counts] ;[%]

 199,42;   97,887;   63,873;  150,055;39,46796
 200,02;  106,667;   92,669;  145,732;26,38052
 200,62;   66,004;   67,563;   88,793;-7,34226
 201,22;   89,242;   86,969;  138,011; 4,45392
 201,82;   93,713;   66,174;  141,790;36,41947
 202,42;  123,775;  101,668;  154,973;41,47292
 203,03;   62,116;   60,168;   91,775; 6,16504
 203,63;   77,449;   69,967;  109,037;19,15038
 204,23;   95,819;   70,671;  129,903;42,45669
 204,83;   91,766;   74,567;  123,718;34,99153
 205,43;   84,587;   56,673;  123,555;41,73663
 206,03;   73,574;   50,167;   90,459;58,09390
 206,63;   67,706;   68,865;  100,007;-3,72192
 207,24;  103,947;   74,675;  162,566;33,30499
 207,84;   55,882;   39,967;   83,699;36,39280
 208,44;   63,042;   50,669;   95,011;27,90462
 209,04;   60,197;   47,365;   85,066;34,03722
 209,64;  101,537;   69,972;  127,998;54,39730
 210,24;   53,766;   45,367;   97,218;16,19782
 210,84;   64,034;   51,469;  101,970;24,88070
 211,44;   97,901;   86,470;  122,908;31,37225
 212,05;   70,897;   60,865;   99,266;26,12541
 212,65;   68,516;   66,368;  112,975; 4,61001
 213,25;   93,275;   93,768;  142,073;-1,02103
 213,85;   89,564;   84,465;  114,904;16,75191
 214,45;   65,866;   53,367;  100,418;26,56417
 215,05;   42,634;   39,369;  100,070; 5,37881
 215,65;   60,726;   55,169;  105,630;11,01188
 216,25;   48,566;   40,267;   82,518;19,64148
 216,85;   31,751;   34,069;   89,651;-4,17091
 217,45;   45,716;   49,068;   97,375;-6,93764
 218,05;   73,576;   58,270;  112,886;28,02536
 218,66;   35,159;   28,769;   75,692;13,61825
 219,26;   47,649;   26,567;   79,337;39,95085
 219,86;   53,135;   36,771;   81,584;36,51745
 220,46;   74,285;   54,270;  104,127;40,14438
 221,06;   75,219;   51,871;  115,903;36,46293
 221,66;   57,894;   43,471;  103,481;24,03406
 222,26;   54,037;   39,772;  102,398;22,77716
 222,86;   75,292;   67,268;  118,954;15,52375
 223,46;   63,166;   51,767;   88,918;30,68207
 224,06;   80,027;   64,971;  120,343;27,19087
 224,66;   81,760;   57,570;  105,805;50,14959
 225,26;   69,409;   48,169;  113,748;32,38826
 225,86;   64,012;   42,173;  112,376;31,10843
 226,46;   67,183;   49,968;  102,913;32,51529
 227,06;   44,260;   27,670;   87,705;27,63336
 227,66;   42,173;   37,665;   74,845;12,12351
 228,27;   46,585;   29,270;   96,227;25,85958
 228,87;  100,368;   89,170;  143,046;20,78503
 229,47;   64,928;   29,172;   92,357;56,58942
 230,07;   30,909;   11,169;   59,648;40,71845
 230,67;   50,951;   38,169;   84,651;27,49806
 231,27;   44,985;   27,670;   76,327;35,58539
 231,87;   52,251;   43,169;  100,751;15,77173
 232,47;   92,764;   43,775;  132,047;55,49746
 233,07;   47,914;   42,965;   75,547;15,18984
 233,67;   54,316;   53,768;   94,275; 1,35434
 234,27;   27,574;    0,567;   53,259;51,25482
 234,87;   59,335;   34,771;  106,084;34,44613
 235,47;   26,109;   16,169;   74,148;17,14396
 236,07;   40,732;   30,266;   72,042;25,05162
 236,67;   61,599;   49,966;   85,180;33,03311
 237,27;   57,071;   28,873;  109,074;35,15872
 237,87;   57,160;   25,370;   99,805;42,70795
 238,47;   23,467;   14,269;   68,032;17,10907
 239,07;   46,945;   33,272;   95,738;21,88814
 239,67;   75,057;   43,477;  131,421;35,90939
 240,27;   63,512;   46,773;  119,176;23,11934
 240,87;   63,863;   50,773;  119,533;19,03594
 241,47;   51,471;   39,164;   76,131;33,29374
 242,07;   41,000;   39,968;   92,894; 1,94967
 242,67;   28,579;  -11,027;   77,914;44,53040
 243,27;   34,066;    7,767;   46,418;68,04121
 243,87;   60,427;   48,671;  108,343;19,70132
 244,47;   60,219;   22,371;   99,703;48,94216
 245,07;   21,734;    2,669;   55,770;35,90329
 245,67;   47,116;   31,068;   85,575;29,44299
 246,27;   52,506;   34,965;   69,007;51,52700
 246,87;   39,292;   26,668;   63,154;34,59878
 247,46;   18,704;   19,663;   23,793;-23,21482
 248,06;   42,176;   20,470;   69,786;44,01464
 248,66;   35,137;   31,072;  105,898; 5,43172
 249,26;   33,932;   32,366;   70,742; 4,07975
 249,86;   51,612;   42,873;  102,176;14,73643
 250,46;   36,856;   16,775;   93,507;26,16970
 251,06;   30,616;   22,168;   65,375;19,55361
 251,66;   27,344;   20,771;   64,724;14,95435
 252,26;   28,215;   38,866;   70,261;-33,92584
 252,86;   33,334;   35,969;   89,070;-4,96227
 253,46;    6,866;   -8,033;   22,118;49,41345
 254,06;   33,840;   31,766;   79,483; 4,34651
 254,66;   47,987;   34,973;  100,155;19,96597
 255,26;   59,004;   39,073;  118,836;24,98763
 255,86;   42,671;   37,464;   55,631;28,66579
 256,46;   33,401;   19,870;   70,208;26,88117
 257,05;   30,152;   23,570;   59,565;18,28438
 257,65;   59,835;   38,071;   97,684;36,50977
 258,25;   63,828;   37,372;  101,457;41,28268
 258,85;   28,934;   15,669;   51,770;36,74415
 259,45;   15,751;    6,869;   42,951;24,61519
 260,05;   44,066;   46,667;   85,818;-6,64406
 260,65;   51,115;   45,066;   83,561;15,71353
 261,25;   41,927;   29,371;   85,943;22,19501
 261,85;   15,802;   -0,129;   47,622;33,36332
 262,45;   56,634;   46,169;  109,270;16,58452
 263,04;   66,995;   53,073;  116,295;22,02152
 263,64;   51,041;   33,767;   77,097;39,86605
 264,24;   52,911;   37,671;   89,062;29,65398
 264,84;   90,930;   58,974;  138,671;40,09631
 265,44;   43,125;   26,368;   67,716;40,52664
 266,04;   55,656;   48,865;   71,464;30,04978
 266,64;   49,899;   39,866;   86,780;21,38436
 267,24;   40,999;   40,166;   68,980; 2,88827
 267,84;   45,975;   24,668;   76,573;41,05026
 268,43;   68,408;   48,368;   95,935;42,13079
 269,03;   49,759;   46,969;   87,892; 6,81788
 269,63;   65,023;   58,566;   92,402;19,08425
 270,23;   18,273;   10,765;   39,045;26,54730
 270,83;   59,215;   55,266;   83,161;14,15640
 271,43;   35,133;   23,967;   58,856;32,00272
 272,03;   67,425;   64,168;   99,116; 9,31945
 272,62;   33,026;   23,269;   68,730;21,46186
 273,22;   25,468;   11,970;   61,046;27,50459
 273,82;   15,369;   17,460;   26,403;-23,38791
 274,42;   20,463;   25,164;   46,890;-21,63495
 275,02;   29,522;   34,864;   60,388;-20,93115
 275,62;   61,728;   31,972;  100,457;43,44895
 276,21;   27,993;   22,770;   69,267;11,23320
 276,81;   51,182;   46,767;   71,099;18,14646
 277,41;   36,886;   22,971;   96,341;18,96498
 278,01;   21,122;   21,364;   42,788;-1,13127
 278,61;   59,142;   38,869;   83,811;45,11044
 279,20;   79,012;   65,473;  119,076;25,25808
 279,80;    5,795;    6,762;   11,539;-20,23802
 280,40;   42,032;   36,866;   79,742;12,04780
 281,00;   18,142;   -4,331;   33,311;59,70349
 281,60;   44,338;   20,774;   74,812;43,60647
 282,20;   51,101;   36,670;   70,108;43,15862
 282,79;   31,608;   29,568;   70,135; 5,02935
 283,39;   15,523;   17,466;   44,702;-7,13289
 283,99;   20,614;   23,165;   34,347;-22,80931
 284,59;   19,418;   16,869;   45,289; 8,96657
 285,19;   31,274;   27,067;   57,759;13,70765
 285,78;   32,601;   23,270;   63,808;23,01903
 286,38;   42,806;   39,665;   59,207;16,07249
 286,98;   39,608;   35,168;   73,535;11,57316
 287,58;   23,019;    4,771;   61,403;32,22197
 288,17;   30,104;    8,973;   80,336;29,61042
 288,77;   57,714;   19,976;   92,504;52,03298
 289,37;   22,934;   11,269;   57,670;25,13954
 289,97;   40,914;   48,965;   66,647;-45,52851
 290,57;   49,970;   46,672;   93,260; 7,07855
 291,16;   73,925;   63,868;  102,616;25,95479
 291,76;   24,068;    5,570;   47,346;44,27945
 292,36;   38,149;   34,367;   58,137;15,91105
 292,96;   21,520;   -3,127;   60,117;38,97208
 293,55;   31,682;   24,267;   65,399;18,02829
 294,15;   41,493;   26,870;   62,567;40,96389
 294,75;   40,606;   42,065;   66,207;-6,04371
 295,35;   21,825;   21,068;   52,016; 2,44592
 295,94;   35,190;   42,967;   66,740;-32,70972
 296,54;   34,783;   30,768;   70,613;10,07699
 297,14;   41,494;   29,971;   76,881;24,56372
 297,73;   18,981;   12,165;   40,085;24,41179
 298,33;   44,240;   28,066;   57,583;54,79556
 298,93;   58,992;   41,968;   82,554;41,94487
 299,53;   42,753;   24,872;   69,079;40,44861
 300,12;   16,694;  -12,229;   59,481;40,33306
 300,72;   59,041;   41,567;   91,197;35,20840
 301,32;   53,535;   25,771;   99,584;37,61473
 301,92;    4,555;    3,664;   33,050; 3,03234
 302,51;   27,357;   11,567;   49,978;41,10951
 303,11;   23,674;   14,667;   48,759;26,42017
 303,71;   30,867;   21,369;   82,132;15,63181
 304,30;   11,748;    5,466;   38,423;19,06199
 304,90;   20,940;   19,666;   44,283; 5,17540
 305,50;   41,973;   18,565;   64,345;51,13078
 306,09;   32,932;   15,466;   49,042;52,01769
 306,69;   50,311;   34,171;   90,262;28,77374
 307,29;   15,877;   18,760;   33,144;-20,04500
 307,88;   48,418;   43,269;   72,489;17,61919
 308,48;   11,385;    0,070;   49,727;22,78591
 309,08;   -5,079;   -4,437;   11,774;-3,96035
 309,68;   14,281;   22,365;   39,585;-46,94570
 310,27;   21,126;   20,169;   49,830; 3,22529
 310,87;   36,583;   23,468;   54,813;41,84156
 311,47;   54,866;   54,967;   92,918;-0,26674
 312,06;   40,189;   47,865;   68,426;-37,33210
 312,66;   61,925;   51,168;  100,016;22,02129
 313,26;   63,944;   48,571;   96,224;32,25973
 313,85;   55,174;   38,267;   65,959;61,05446
 314,45;   57,142;   42,969;   86,611;32,47670
 315,04;   65,289;   52,165;   81,826;44,24745
 315,64;   24,041;   21,267;   47,897;10,41591
 316,24;   50,685;   40,770;   85,627;22,10312
 316,83;   43,832;   40,366;   76,742; 9,52722
 317,43;   39,033;   35,167;   68,156;11,71713
 318,03;   41,588;   39,063;   70,012; 8,15716
 318,62;   82,011;   73,061;   94,820;41,13357
 319,22;   27,675;    7,668;   66,973;33,73590
 319,82;   61,425;   40,768;   93,516;39,16158
 320,41;   79,867;   59,069;   98,732;52,43716
 321,01;   93,573;   80,465;  115,945;36,94368
 321,60;   76,563;   81,164;  102,790;-21,27259
 322,20;   73,987;   67,673;  132,855; 9,68701
 322,80;   65,341;   54,567;   91,797;28,93872
 323,39;   60,830;   65,764;   94,828;-16,97627
 323,99;   76,415;   61,766;  102,661;35,82077
 324,59;   69,488;   73,063;   97,512;-14,62443
 325,18;   69,757;   40,967;   92,178;56,21963
 325,78;   73,981;   76,365;  108,885;-7,33132
 326,37;   76,216;   74,868;  108,075; 4,06115
 326,97;   75,841;   63,267;  111,497;26,07064
 327,57;   47,704;   42,263;   76,493;15,89619
 328,16;   69,771;   60,864;   93,631;27,18504
 328,76;   79,890;   50,467;  110,140;49,30835
 329,35;   85,935;   56,871;  137,484;36,05444
 329,95;   53,201;   27,470;   91,308;40,30733
 330,54;   67,766;   52,167;   94,018;37,27194
 331,14;   53,282;   26,967;   82,599;47,30236
 331,74;   69,573;   54,165;   96,145;36,70227
 332,33;   58,685;   35,370;  108,127;32,04474
 332,93;   47,055;   43,764;   79,250; 9,27432
 333,52;   59,323;   42,466;   93,102;33,29131
 334,12;   92,759;   72,069;  140,392;30,28278
 334,71;   58,132;   50,666;   87,942;20,02785
 335,31;   83,574;   63,267;  119,859;35,88347
 335,90;   36,354;   32,362;   53,836;18,58743
 336,50;   37,606;   30,665;   77,207;14,91317
 337,10;   64,426;   38,769;  121,530;31,00112
 337,69;   66,006;   51,765;   93,707;33,95369
 338,29;   54,649;   30,467;  101,037;34,26678
 338,88;   45,792;   22,468;   99,854;30,13941
 339,48;   67,662;   57,862;  111,677;18,21033
 340,07;   69,907;   48,566;  107,321;36,32163
 340,67;   64,935;   31,171;  124,784;36,06825
 341,26;   62,932;   48,466;   98,942;28,65827
 341,86;   87,809;   61,469;  138,348;34,26150
 342,45;   86,318;   45,669;  142,689;41,89693
 343,05;   58,618;   27,269;  115,689;35,45395
 343,64;   66,299;   47,366;  122,480;25,20471
 344,24;   48,206;   28,765;   92,107;30,69190
 344,83;   70,414;   71,365;  121,747;-1,88700
 345,43;   56,090;   29,667;  114,240;31,24378
 346,02;   49,051;   41,469;  124,351; 9,14757
 346,62;   75,344;   40,971;  140,424;34,56176
 347,21;   69,681;   42,165;  131,985;30,63433
 347,81;   57,670;   26,172;  140,560;27,53588
 348,40;   41,871;   29,064;  100,731;17,87120
 349,00;   59,588;   49,163;  137,712;11,77266
 349,59;   92,168;   65,870;  177,846;23,48551
 350,19;   60,944;   32,571;  139,424;26,55310
 350,78;   63,774;   55,467;  140,759; 9,73965
 351,38;   48,451;   15,869;  140,951;26,04823
 351,97;   46,890;   26,767;  136,040;18,41610
 352,57;   61,085;   42,570;  155,827;16,34760
 353,16;   50,730;   30,564;  134,328;19,43447
 353,76;   65,068;   38,770;  169,846;20,06327
 354,35;   57,709;   27,669;  160,148;22,67522
 354,95;   78,293;   43,970;  182,067;24,85427
 355,54;   63,775;   38,368;  163,973;20,22767
 356,14;   68,109;   40,069;  164,749;22,48968
 356,73;   60,562;   29,162;  145,176;27,06542
 357,32;   55,267;   13,769;  164,432;27,54378
 357,92;   59,361;   17,772;  181,419;25,41402
 358,51;   89,653;   43,372;  214,179;27,09555
 359,11;   75,570;   36,772;  212,360;22,09590
 359,70;   57,052;   28,470;  189,965;17,69805
 360,30;   70,395;   54,562;  188,039;11,86214
 360,89;   53,292;   31,168;  188,054;14,10170
 361,48;   95,693;   55,570;  216,467;24,93707
 362,08;   64,133;   19,867;  187,156;26,46044
 362,67;   56,804;   39,763;  192,693;11,14318
 363,27;   94,857;   60,767;  247,678;18,23889
 363,86;   72,073;   35,765;  215,745;20,17310
 364,46;   86,771;   44,664;  257,231;19,80916
 365,05;  109,368;   64,659;  254,989;23,49010
 365,64;  100,510;   50,960;  269,706;22,65198
 366,24;  103,917;   38,558;  309,432;24,12890
 366,83;  123,290;   43,255;  335,383;27,39711
 367,43;  156,331;   51,545;  352,843;34,77844
 368,02;  150,333;   34,646;  399,757;31,68534
 368,61;  188,493;   62,239;  475,425;30,55635
 369,21;  160,086;   32,419;  445,299;30,92114
 369,80;  198,068;   43,007;  526,947;32,04141
 370,39;  251,834;   62,006;  604,971;34,96137
 370,99;  237,379;   42,089;  615,416;34,06259
 371,58;  245,600;   22,974;  630,953;36,61746
 372,18;  276,477;   37,166;  701,603;36,01721
 372,77;  270,989;   42,449;  679,385;35,88117
 373,36;  288,662;   42,747;  690,836;37,94471
 373,96;  273,545;   35,135;  639,498;39,44810
 374,55;  269,518;   29,844;  621,406;40,51556
 375,14;  261,498;   42,849;  573,826;41,17855
 375,74;  268,120;   69,157;  543,276;41,96485
 376,33;  215,676;   45,964;  464,589;40,54038
 376,92;  192,845;   33,278;  447,997;38,47599
 377,52;  269,674;   86,103;  548,460;39,70320
 378,11;  201,923;   46,703;  457,203;37,81252
 378,71;  235,088;   73,011;  514,270;36,73062
 379,30;  238,434;   59,517;  553,928;36,18801
 379,89;  247,573;   59,813;  556,103;37,83275
 380,49;  242,685;   31,018;  568,185;39,40437
 381,08;  275,817;   70,306;  570,990;41,04612
 381,67;  265,394;   55,008;  555,483;42,03730
 382,26;  246,517;   41,706;  539,390;41,15289
 382,86;  262,190;   54,003;  516,041;45,05844
 383,45;  282,414;   50,412;  562,105;45,34005
 384,04;  248,531;   38,712;  553,886;40,72769
 384,64;  268,124;   49,014;  566,760;42,31996
 385,23;  271,701;   64,406;  560,509;41,78461
 385,82;  284,725;   59,615;  592,774;42,22190
 386,42;  336,607;   61,024;  659,022;46,08425
 387,01;  324,040;   55,414;  580,541;51,15458
 387,60;  327,145;   69,009;  590,140;49,53380
 388,20;  300,514;   37,712;  590,805;47,51495
 388,79;  361,660;   72,418;  665,563;48,76415
 389,38;  310,317;   32,106;  564,890;52,21841
 389,97;  342,241;   45,415;  640,955;49,84157
 390,57;  376,999;   71,114;  654,038;52,47422
 391,16;  384,199;   62,514;  655,838;54,21740
 391,75;  363,365;   52,713;  638,562;53,02588
 392,34;  406,604;   60,821;  696,694;54,37931
 392,94;  391,844;   44,718;  689,683;53,82092
 393,53;  397,092;   41,016;  666,612;56,91794
 394,12;  413,764;   53,023;  719,105;54,15868
 394,72;  435,557;   54,213;  706,122;58,49645
 395,31;  425,425;   42,115;  694,874;58,72153
 395,90;  448,998;   42,924;  732,881;58,85503
 396,49;  492,076;   58,028;  779,187;60,18759
 397,09;  472,226;   47,417;  749,188;60,53392
 397,68;  518,566;   44,025;  800,719;62,71236
 398,27;  535,150;   54,626;  809,652;63,64340
 398,86;  528,133;   43,125;  807,657;63,43849
 399,45;  569,904;   56,630;  844,037;65,18530
 400,05;  542,670;   23,820;  799,518;66,88816
 400,64;  572,928;   56,419;  831,001;66,68221
 401,23;  600,837;   53,920;  859,956;67,85269
 401,82;  604,737;   67,220;  868,256;67,10273
 402,42;  617,596;   62,921;  873,953;68,39123
 403,01;  647,866;   81,525;  912,919;68,11940
 403,60;  680,838;   68,532;  940,513;70,22013
 404,19;  694,582;   76,024;  931,900;72,27190
 404,78;  657,530;   57,522;  909,929;70,38985
 405,38;  705,497;   68,332;  984,210;69,56871
 405,97;  692,167;   63,226;  953,933;70,61141
 406,56;  732,052;   71,528; 1004,366;70,80798
 407,15;  726,386;   68,829;  989,442;71,42599
 407,74;  764,228;   80,730; 1026,758;72,24924
 408,34;  736,380;   50,933; 1018,629;70,83291
 408,93;  777,662;   59,531; 1016,234;75,06314
 409,52;  755,924;   51,435; 1041,359;71,16592
 410,11;  815,646;   84,931; 1090,453;72,67020
 410,70;  803,026;   54,727; 1027,230;76,94562
 411,29;  813,968;   58,628; 1030,847;77,69240
 411,89;  835,899;   60,535; 1093,938;75,03019
 412,48;  820,260;   48,228; 1051,606;76,94325
 413,07;  845,723;   65,033; 1101,446;75,32613
 413,66;  860,116;   78,135; 1102,119;76,36649
 414,25;  886,492;   63,337; 1142,311;76,29053
 414,84;  883,862;   69,431; 1102,434;78,84113
 415,44;  920,045;   91,530; 1155,939;77,83799
 416,03;  912,325;   76,637; 1161,173;77,05489
 416,62;  931,926;   76,138; 1168,687;78,32950
 417,21;  928,781;   75,334; 1158,843;78,76699
 417,80;  944,284;   65,037; 1162,871;80,08926
 418,39;  956,128;   78,440; 1179,201;79,73463
 418,98;  912,514;   55,634; 1143,405;78,77397
 419,58;  931,747;   64,033; 1142,067;80,49043
 420,17;  922,440;   52,735; 1164,540;78,22460
 420,76;  957,525;   72,537; 1192,873;78,99309
 421,35;  931,891;   60,236; 1155,197;79,60601
 421,94;  972,028;   88,340; 1223,501;77,84690
 422,53;  951,411;   61,540; 1195,320;78,48711
 423,12;  969,902;   64,039; 1190,766;80,39775
 423,71;  953,599;   60,835; 1162,138;81,06436
 424,30;  969,650;   85,236; 1210,695;78,58250
 424,90;  924,651;   39,438; 1163,809;78,72966
 425,49;  974,536;   70,140; 1216,242;78,91063
 426,08;  963,336;   80,240; 1209,641;78,19150
 426,67;  941,283;   57,436; 1168,257;79,56700
 427,26;  969,663;   60,343; 1230,391;77,71649
 427,85;  974,343;   63,238; 1209,968;79,45242
 428,44;  976,104;   68,442; 1218,093;78,95109
 429,03;  989,737;   85,341; 1233,155;78,79288
 429,62;  977,645;   78,941; 1240,296;77,38412
 430,21;  999,405;   81,443; 1277,807;76,72934
 430,80;  978,299;   70,445; 1235,381;77,93164
 431,39;  961,089;   53,344; 1246,926;76,05216
 431,99;  967,999;   78,535; 1206,838;78,83204
 432,58;  971,702;   82,639; 1251,166;76,08408
 433,17;  935,716;   69,735; 1238,319;74,10513
 433,76;  988,383;   71,347; 1288,314;75,35427
 434,35;  995,015;   88,245; 1292,462;75,29957
 434,94; 1003,576;   70,849; 1318,887;74,73550
 435,53;  989,338;   78,643; 1278,669;75,88962
 436,12;  990,397;   70,044; 1294,267;75,17859
 436,71; 1017,695;   87,740; 1303,239;76,50806
 437,30; 1022,762;   76,941; 1299,177;77,38447
 437,89; 1041,023;   76,245; 1320,802;77,51980
 438,48; 1028,471;   65,942; 1305,731;77,63651
 439,07; 1030,018;   95,238; 1347,147;74,66840
 439,66; 1084,842;   83,648; 1375,711;77,48804
 440,25; 1083,897;   85,844; 1390,567;76,49543
 440,84; 1107,535;   79,850; 1387,984;78,56115
 441,43; 1124,931;   78,054; 1440,985;76,81067
 442,02; 1122,802;   79,650; 1411,022;78,35166
 442,61; 1141,089;   93,344; 1397,226;80,35580
 443,20; 1186,043;   94,249; 1446,625;80,73158
 443,79; 1177,833;   74,546; 1412,957;82,43261
 444,38; 1215,918;   84,248; 1461,789;82,15140
 444,97; 1243,774;   84,146; 1466,359;83,89647
 445,56; 1266,049;  101,846; 1477,038;84,65753
 446,15; 1293,845;   81,651; 1522,539;84,12825
 446,74; 1269,681;   58,644; 1462,286;86,27820
 447,33; 1328,533;   82,646; 1538,357;85,58615
 447,92; 1362,061;   78,151; 1570,720;86,02018
 448,51; 1386,966;   89,746; 1586,019;86,69674
 449,10; 1412,790;   92,045; 1608,840;87,07472
 449,69; 1429,186;   73,950; 1627,741;87,22123
 450,28; 1478,850;   66,948; 1608,251;91,60445
 450,87; 1508,067;   78,647; 1656,333;90,60233
 451,46; 1537,201;   96,048; 1702,208;89,72659
 452,05; 1587,535;   70,950; 1715,384;92,22535
 452,64; 1627,394;   70,850; 1725,182;94,08899
 453,23; 1674,404;  113,752; 1794,936;92,83050
 453,82; 1687,370;   83,451; 1800,660;93,40262
 454,40; 1692,694;   65,450; 1786,682;94,53950
 454,99; 1758,913;  101,253; 1871,891;93,61939
 455,58; 1761,000;   69,747; 1832,095;95,96591
 456,17; 1801,662;   63,852; 1873,634;96,02321
 456,76; 1830,761;   67,751; 1918,820;95,24283
 457,35; 1900,818;   78,348; 1930,490;98,39796
 457,94; 1918,680;   66,954; 1978,929;96,84889
 458,53; 1915,978;   67,350; 2010,101;95,15516
 459,12; 2011,474;   82,657; 2111,116;95,08782
 459,71; 1988,334;   58,148; 2060,071;96,41662
 460,30; 2035,042;   84,448; 2087,511;97,38057
 460,89; 2051,161;   57,551; 2129,920;96,19959
 461,48; 2093,980;   75,954; 2173,829;96,19384
 462,06; 2137,619;   68,050; 2187,303;97,65556
 462,65; 2109,185;   48,249; 2176,527;96,83581
 463,24; 2161,448;   87,456; 2288,680;94,21995
 463,83; 2156,219;   54,450; 2229,803;96,61734
 464,42; 2215,376;   88,349; 2333,687;94,73084
 465,01; 2243,394;   73,050; 2336,482;95,88731
 465,60; 2256,102;   64,050; 2384,322;94,47393
 466,19; 2295,780;   73,354; 2462,829;93,00899
 466,77; 2278,445;   81,551; 2462,939;92,25267
 467,36; 2307,083;   69,457; 2459,256;93,63237
 467,95; 2303,737;   79,551; 2466,098;93,19679
 468,54; 2343,347;   71,954; 2513,866;93,01699
 469,13; 2319,612;   69,452; 2535,977;91,22794
 469,72; 2328,998;   67,555; 2582,723;89,91219
 470,31; 2343,582;   87,855; 2629,242;88,75965
 470,90; 2357,327;   76,750; 2652,044;88,55600
 471,48; 2354,166;   32,057; 2671,875;87,96474
 472,07; 2416,992;  125,747; 2686,454;89,47703
 472,66; 2406,938;   67,853; 2748,412;87,26108
 473,25; 2397,245;   68,351; 2723,339;87,71768
 473,84; 2402,823;   55,955; 2766,545;86,58144
 474,43; 2437,859;   55,459; 2843,049;85,46452
 475,01; 2432,039;   69,254; 2885,926;83,88570
 475,60; 2462,606;   49,755; 2882,364;85,18123
 476,19; 2522,917;   74,158; 2956,932;84,94453
 476,78; 2498,783;   71,057; 2964,456;83,90566
 477,37; 2527,906;   59,355; 2945,364;85,53512
 477,95; 2561,865;   75,656; 3018,661;84,47858
 478,54; 2548,913;   63,253; 3023,691;83,96259
 479,13; 2592,513;   56,253; 3070,291;84,14826
 479,72; 2643,264;   81,154; 3090,147;85,14840
 480,31; 2685,043;   63,459; 3167,468;84,45801
 480,89; 2665,539;   60,254; 3171,026;83,75043
 481,48; 2704,885;   46,260; 3214,084;83,92591
 482,07; 2730,747;   61,654; 3233,866;84,13980
 482,66; 2749,105;   52,853; 3253,650;84,23689
 483,25; 2827,285;   78,960; 3319,884;84,80067
 483,83; 2848,731;   59,954; 3325,385;85,40301
 484,42; 2887,480;   54,354; 3355,129;85,83216
 485,01; 2886,833;   65,958; 3400,413;84,59779
 485,60; 2922,763;   73,764; 3490,590;83,38145
 486,18; 2946,965;   66,956; 3490,761;84,11720
 486,77; 3000,804;   67,252; 3519,736;84,96930
 487,36; 3034,855;   58,464; 3561,750;84,95998
 487,95; 3051,344;   59,161; 3640,781;83,54272
 488,53; 3050,752;   54,461; 3642,522;83,50726
 489,12; 3053,796;   50,563; 3722,252;81,79431
 489,71; 3048,778;   38,062; 3680,357;82,65986
 490,30; 3120,669;   61,460; 3742,503;83,10712
 490,88; 3137,736;   87,561; 3859,141;80,87260
 491,47; 3081,088;   60,663; 3867,512;79,34186
 492,06; 3100,529;   62,563; 3920,615;78,74353
 492,65; 3093,820;   59,161; 3947,060;78,05394
 493,23; 3115,494;   54,860; 3982,825;77,91907
 493,82; 3098,721;   65,853; 4018,031;76,73917
 494,41; 3096,103;   51,361; 4066,179;75,83761
 494,99; 3094,523;   73,655; 4126,945;74,52879
 495,58; 3117,469;   86,060; 4224,403;73,25174
 496,17; 3026,049;   56,356; 4198,681;71,69145
 496,76; 3021,665;   65,356; 4276,761;70,19769
 497,34; 3002,758;   54,557; 4305,235;69,35837
 497,93; 2987,966;   66,057; 4350,675;68,19532
 498,52; 2978,626;   60,059; 4454,387;66,41670
 499,10; 2922,470;   75,862; 4533,217;63,86317
 499,69; 2900,210;   55,360; 4537,006;63,47780
 500,28; 2889,543;   37,959; 4592,068;62,61563
 500,86; 2902,795;   62,862; 4698,539;61,26254
 501,45; 2837,195;   53,462; 4730,438;59,51993
 502,04; 2821,778;   53,362; 4813,958;58,15273
 502,62; 2805,349;   70,956; 4856,181;57,14241
 503,21; 2816,932;   57,856; 4939,699;56,51710
 503,80; 2826,062;   69,662; 5015,577;55,73084
 504,38; 2787,394;   58,460; 5081,425;54,32914
 504,97; 2756,262;   49,962; 5122,776;53,34908
 505,56; 2778,368;   70,859; 5194,989;52,83841
 506,14; 2757,147;   64,064; 5263,709;51,79358
 506,73; 2712,306;   23,565; 5292,507;51,03000
 507,32; 2749,773;   62,865; 5376,045;50,57061
 507,90; 2750,885;   70,860; 5443,284;49,88484
 508,49; 2759,297;   58,865; 5500,366;49,62661
 509,08; 2800,971;   67,264; 5571,931;49,66163
 509,66; 2792,377;   69,960; 5677,644;48,54798
 510,25; 2806,628;   63,561; 5737,400;48,34586
 510,83; 2800,506;   45,165; 5855,607;47,42050
 511,42; 2868,483;   61,968; 5895,913;48,10665
 512,01; 2875,330;   59,164; 5980,328;47,56102
 512,59; 2908,862;   46,562; 6041,676;47,74387
 513,18; 2939,603;   59,961; 6114,379;47,56265
 513,77; 2941,691;   42,257; 6171,797;47,30264
 514,35; 3017,337;   37,763; 6190,255;48,42874
 514,94; 3056,470;   58,662; 6323,517;47,85120
 515,52; 3089,231;   48,166; 6358,342;48,19304
 516,11; 3137,514;   80,665; 6474,047;47,81271
 516,69; 3126,135;   41,959; 6446,727;48,15437
 517,28; 3185,425;   83,358; 6541,973;48,02992
 517,87; 3161,242;   45,558; 6604,054;47,50608
 518,45; 3230,209;   74,858; 6626,192;48,16348
 519,04; 3232,084;   54,258; 6707,970;47,76019
 519,62; 3246,429;   55,863; 6774,114;47,49102
 520,21; 3216,623;   24,466; 6828,002;46,91909
 520,79; 3288,816;   52,068; 7000,875;46,57992
 521,38; 3288,961;   52,960; 6995,363;46,61211
 521,97; 3294,592;   43,068; 7141,554;45,80587
 522,55; 3300,976;   67,759; 7195,230;45,36275
 523,14; 3295,968;   26,759; 7180,289;45,70063
 523,72; 3372,752;   77,561; 7383,422;45,10340
 524,31; 3333,706;   71,665; 7406,107;44,47565
 524,89; 3306,625;   48,468; 7526,815;43,56787
 525,48; 3294,599;   21,666; 7603,580;43,16763
 526,06; 3340,630;   56,264; 7633,128;43,34730
 526,65; 3351,860;   72,370; 7803,105;42,42145
 527,23; 3304,146;   46,262; 7840,596;41,79810
 527,82; 3290,057;   37,967; 7905,978;41,33307
 528,41; 3289,707;   67,366; 8041,021;40,41234
 528,99; 3235,597;   66,365; 8108,167;39,40948
 529,58; 3148,354;   42,562; 8168,736;38,21961
 530,16; 3130,003;   49,461; 8315,379;37,26799
 530,75; 3084,838;   73,964; 8417,069;36,08817
 531,33; 2958,199;   45,566; 8440,980;34,69313
 531,92; 2917,477;   48,560; 8567,344;33,67754
 532,50; 2860,293;   87,770; 8706,468;32,16870
 533,09; 2769,365;   65,665; 8807,204;30,92933
 533,67; 2651,792;   63,458; 8952,011;29,11986
 534,26; 2606,402;   65,760; 9007,665;28,41276
 534,84; 2548,820;   68,461; 9127,061;27,38126
 535,42; 2574,938;   61,564; 9205,969;27,48538
 536,01; 2650,329;   79,263; 9330,215;27,79245
 536,59; 2780,523;   43,366; 9482,202;28,99888
 537,18; 2984,110;   77,360; 9568,605;30,62559
 537,76; 3266,878;   56,972; 9764,700;33,06547
 538,35; 3614,900;   59,368; 9892,694;36,15798
 538,93; 3939,030;   72,664; 9941,828;39,17623
 539,52; 4235,360;   57,370;10111,405;41,55535
 540,10; 4624,526;   63,269;10309,029;44,51848
 540,69; 4911,979;   68,763;10444,071;46,68022
 541,27; 5165,470;   58,262;10514,917;48,84170
 541,85; 5423,040;   47,366;10658,783;50,65934
 542,44; 5586,385;   56,460;10765,484;51,63799
 543,02; 5791,426;   80,369;10952,729;52,52821
 543,61; 5950,366;   77,067;11102,218;53,27182
 544,19; 6078,948;   55,066;11264,023;53,74168
 544,78; 6114,415;   62,766;11296,562;53,87003
 545,36; 6293,442;   77,469;11521,011;54,31862
 545,94; 6329,438;   54,564;11563,069;54,52380
 546,53; 6397,094;   52,771;11724,882;54,35455
 547,11; 6521,175;   90,668;11879,873;54,54572
 547,70; 6560,610;   75,860;11954,706;54,59074
 548,28; 6603,998;   47,965;12093,066;54,42904
 548,86; 6676,797;   81,365;12327,767;53,85609
 549,45; 6712,292;   33,768;12364,953;54,15962
 550,03; 6807,049;   76,467;12507,537;54,14322
 550,62; 6856,332;   63,566;12662,842;53,91394
 551,20; 6965,466;   61,467;12808,418;54,16196
 551,78; 7005,155;   61,164;12952,850;53,86410
 552,37; 7156,938;   55,864;13112,469;54,38684
 552,95; 7138,014;   56,765;13214,547;53,81795
 553,54; 7190,406;   49,965;13393,207;53,51354
 554,12; 7256,341;   67,167;13498,797;53,52421
 554,70; 7388,575;   67,568;13736,973;53,55761
 555,29; 7436,281;   61,965;13856,285;53,45907
 555,87; 7513,977;   60,170;13987,786;53,51818
 556,45; 7528,479;   57,162;14154,058;52,99973
 557,04; 7606,082;   43,667;14376,600;52,76251
 557,62; 7689,982;   68,867;14525,499;52,71709
 558,20; 7777,286;   42,671;14799,940;52,41224
 558,79; 7909,917;  100,368;14905,875;52,74759
 559,37; 7883,366;   49,867;15000,418;52,39605
 559,95; 8024,959;   46,669;15169,691;52,75592
 560,54; 8076,783;   71,768;15324,613;52,48211
 561,12; 8123,115;   50,866;15485,562;52,29937
 561,70; 8231,251;   50,369;15679,551;52,34364
 562,29; 8314,500;   61,768;15810,994;52,40087
 562,87; 8401,491;   73,168;16023,953;52,21262
 563,45; 8487,892;   71,068;16194,754;52,20161
 564,04; 8510,546;   54,362;16227,195;52,28635
 564,62; 8595,567;   37,769;16438,332;52,17991
 565,20; 8688,395;   59,962;16715,838;51,80414
 565,78; 8801,089;   70,765;16797,326;52,19437
 566,37; 8845,540;   71,066;17011,283;51,79670
 566,95; 8852,826;   52,969;17124,330;51,54748
 567,53; 9042,278;   67,262;17308,857;52,05444
 568,12; 9037,598;   62,265;17367,766;51,86405
 568,70; 9183,922;   85,264;17565,889;52,04996
 569,28; 9211,751;   61,069;17745,252;51,74501
 569,86; 9277,474;   67,767;17910,758;51,61526
 570,45; 9408,418;   78,569;18124,689;51,70003
 571,03; 9449,286;   53,962;18259,898;51,60583
 571,61; 9547,443;   46,571;18424,824;51,69628
 572,19; 9525,621;   54,263;18395,773;51,63892
 572,78; 9636,616;   70,668;18668,975;51,43451
 573,36; 9763,238;   84,264;18797,668;51,72215
 573,94; 9809,055;   44,064;18892,750;51,80728
 574,52; 9873,943;   54,559;19030,768;51,74576
 575,11; 9929,871;   37,264;19159,830;51,73263
 575,69; 9967,099;   53,566;19268,680;51,59237
 576,27;10022,744;   47,161;19391,381;51,56881
 576,85;10116,839;   43,264;19549,668;51,64240
 577,44;10168,179;   30,262;19814,158;51,24328
 578,02;10193,126;   32,159;19753,887;51,52169
 578,60;10319,663;   50,464;20073,791;51,28618
 579,18;10365,796;   51,963;20160,752;51,29017
 579,76;10407,830;   40,264;20300,129;51,17293
 580,35;10457,201;   60,170;20436,707;51,02453
 580,93;10578,333;   59,667;20641,557;51,10641
 581,51;10588,393;   24,770;20697,168;51,10013
 582,09;10704,938;   58,663;20755,756;51,43850
 582,67;10739,365;   49,567;20971,318;51,09418
 583,26;10815,884;   28,568;21227,014;50,88730
 583,84;10910,247;   14,164;21413,709;50,91736
 584,42;10982,722;   48,064;21513,287;50,94127
 585,00;11099,398;   81,366;21772,180;50,79585
 585,58;11137,082;   25,167;21912,299;50,76917
 586,17;11186,752;   46,761;21948,521;50,86345
 586,75;11164,923;    6,666;22026,902;50,67274
 587,33;11262,357;   47,767;22191,678;50,64413
 587,91;11293,423;   74,866;22390,201;50,27286
 588,49;11394,878;   63,962;22349,758;50,84367
 589,07;11390,425;   45,468;22403,215;50,74285
 589,65;11365,591;   28,267;22444,439;50,57654
 590,24;11347,087;   42,562;22447,799;50,45483
 590,82;11370,420;   28,261;22484,160;50,50859
 591,40;11385,547;   41,464;22520,209;50,46582
 591,98;11413,135;   45,759;22558,227;50,49369
 592,56;11421,720;   61,161;22699,961;50,18181
 593,14;11445,734;   43,359;22728,928;50,26268
 593,72;11524,306;   29,765;22889,107;50,28378
 594,30;11480,526;   36,759;22797,486;50,27857
 594,89;11437,630;   41,364;22862,428;49,93749
 595,47;11614,752;   38,961;22922,623;50,58540
 596,05;11524,183;   30,267;23003,799;50,03112
 596,63;11540,782;   31,167;23056,199;49,98740
 597,21;11582,031;   36,766;23145,441;49,96074
 597,79;11621,990;   35,467;23166,039;50,09182
 598,37;11629,609;   36,669;23222,748;49,99957
 598,95;11727,823;   50,766;23305,301;50,21411
 599,53;11623,691;   46,757;23207,996;49,98409
 600,11;11738,014;   48,665;23341,947;50,18335
 600,70;11706,788;   57,363;23315,111;50,08836
 601,28;11733,247;   38,564;23424,809;50,00667
 601,86;11743,323;   61,766;23355,102;50,14978
 602,44;11728,920;   23,661;23449,660;49,96696
 603,02;11780,257;   38,656;23576,521;49,88388
 603,60;11784,117;   54,858;23663,232;49,68262
 604,18;11769,013;   69,263;23594,734;49,73226
 604,76;11688,137;   59,263;23642,154;49,31064
 605,34;11540,156;   27,565;23530,764;48,98308
 605,92;11463,012;   59,561;23453,719;48,74486
 606,50;11324,587;   17,662;23498,998;48,15282
 607,08;11163,698;   31,666;23394,881;47,64769
 607,66;11015,031;   39,266;23561,643;46,66095
 608,24;10706,774;   46,067;23522,059;45,41111
 608,82;10422,672;   26,164;23532,031;44,22942
 609,40;10009,707;   46,466;23471,021;42,53332
 609,98; 9663,730;   18,864;23505,928;41,06459
 610,56; 9260,160;   43,861;23497,662;39,29555
 611,14; 8847,881;   30,765;23481,086;37,59913
 611,72; 8392,297;   42,665;23572,467;35,48535
 612,30; 8051,345;   24,962;23468,496;34,23709
 612,88; 7783,976;   60,659;23517,730;32,92532
 613,46; 7565,887;   21,862;23505,697;32,12433
 614,04; 7577,075;   30,068;23461,873;32,20839
 614,62; 7658,744;   41,561;23489,982;32,48484
 615,20; 7908,925;   52,768;23402,416;33,64572
 615,78; 8114,126;   25,569;23463,430;34,51064
 616,36; 8384,455;   41,364;23400,150;35,71714
 616,94; 8644,231;    7,666;23272,242;37,12324
 617,52; 8934,833;   24,067;23373,656;38,16241
 618,10; 9157,551;   63,559;23336,107;39,07605
 618,68; 9382,340;   17,966;23253,184;40,30250
 619,26; 9624,508;   39,268;23398,834;41,03347
 619,84; 9734,213;   18,963;23277,133;41,77134
 620,42; 9835,806;   31,165;23313,506;42,11192
 621,00; 9844,806;   28,865;23209,607;42,34524
 621,58; 9923,610;   38,760;23216,406;42,64821
 622,16; 9995,052;   49,270;23335,164;42,71162
 622,74;10029,831;   47,066;23327,742;42,88005
 623,32; 9972,348;   42,166;23291,223;42,71219
 623,90;10038,235;   66,971;23311,484;42,89728
 624,48; 9974,087;   32,662;23196,598;42,91769
 625,05; 9942,587;   34,562;23105,098;42,94666
 625,63; 9868,587;   52,962;23188,799;42,42606
 626,21; 9798,046;   38,262;23117,596;42,28798
 626,79; 9730,065;   53,967;23219,719;41,76898
 627,37; 9600,970;   28,162;23090,717;41,50801
 627,95; 9521,125;   72,768;23200,215;40,85344
 628,53; 9433,405;   49,365;23176,607;40,57570
 629,11; 9194,359;   48,259;23043,449;39,77397
 629,69; 9134,467;   53,369;23256,932;39,13665
 630,27; 8955,213;   80,763;23105,434;38,54322
 630,84; 8692,087;   43,862;23021,197;37,63807
 631,42; 8507,833;   54,367;23319,656;36,33510
 632,00; 8263,143;   45,459;23125,768;35,60474
 632,58; 8108,879;   50,263;23105,172;34,95401
 633,16; 7941,560;   49,870;23096,906;34,24167
 633,74; 7746,022;   56,264;23018,488;33,48873
 634,32; 7512,936;   45,661;23007,842;32,51989
 634,90; 7401,568;   51,970;23195,746;31,75626
 635,47; 7252,877;   38,860;23035,645;31,36968
 636,05; 7211,836;   37,461;22989,342;31,25833
 636,63; 7218,505;   45,965;23104,807;31,10538
 637,21; 7225,930;   67,464;23150,529;31,01177
 637,79; 7347,464;   71,465;23192,904;31,46863
 638,37; 7410,490;   54,055;23070,883;31,96111
 638,94; 7496,681;   33,265;23100,686;32,35479
 639,52; 7688,281;   41,665;23195,285;33,02557
 640,10; 7847,377;   64,264;23215,900;33,61798
 640,68; 8040,537;   54,164;23175,334;34,54139
 641,26; 8120,196;   35,864;23250,268;34,82464
 641,84; 8275,055;   39,164;23235,002;35,50590
 642,41; 8318,113;   28,264;23192,936;35,78660
 642,99; 8465,272;   48,464;23145,568;36,44097
 643,57; 8554,132;   22,064;23158,402;36,87735
 644,15; 8562,690;   27,064;23178,035;36,86941
 644,73; 8650,950;   37,564;23277,568;37,06276
 645,30; 8604,309;   55,264;23230,303;36,88902
 645,88; 8701,368;   44,964;23362,635;37,12379
 646,46; 8660,527;   59,264;23447,568;36,77592
 647,04; 8629,286;   51,864;23367,902;36,78765
 647,61; 8539,646;   46,564;23396,336;36,37329
 648,19; 8553,704;   61,664;23433,369;36,33470
 648,77; 8465,563;   26,264;23442,002;36,04114
 649,35; 8436,622;   51,064;23590,137;35,62399
 649,92; 8378,682;   42,464;23596,070;35,39253
 650,50; 8337,040;   30,064;23551,104;35,31721
 651,08; 8262,800;   39,964;23450,537;35,12445
 651,66; 8212,759;   21,864;23534,770;34,83574
 652,23; 8113,018;   39,064;23561,004;34,32520
 652,81; 8142,176;   36,464;23644,137;34,33507
 653,39; 8195,136;   56,164;23647,170;34,50032
 653,97; 8136,595;   37,065;23882,504;33,96679
 654,54; 8079,954;   23,565;23823,137;33,85098
 655,12; 8147,113;   30,965;23831,971;34,10002
 655,70; 8160,672;   42,065;23962,805;33,93962
 656,28; 8152,331;   32,765;23947,037;33,95280
 656,85; 8209,890;   44,065;24051,070;34,01434
 657,43; 8130,849;   -1,035;23831,305;34,12121
 658,01; 8212,607;   21,465;24078,539;34,04879
 658,58; 8246,967;   55,165;24234,371;33,87953
 659,16; 8199,126;   51,965;24154,105;33,80265
 659,74; 8213,585;   59,465;24338,039;33,58566
 660,32; 8263,344;   71,665;24327,672;33,77175
 660,89; 8191,303;   34,265;24347,305;33,55006
 661,47; 8262,862;   51,665;24464,939;33,63415
 662,05; 8152,821;   25,365;24587,373;33,08954
 662,62; 8241,480;   59,665;24584,006;33,36202
 663,20; 8327,839;   80,665;24740,139;33,44424
 663,78; 8343,198;   47,965;24902,773;33,37476
 664,35; 8394,558;   52,465;24921,006;33,54476
 664,93; 8414,717;   64,465;25123,539;33,32227
 665,51; 8489,176;   49,565;25170,973;33,59529
 666,08; 8523,635;   30,165;25185,707;33,76381
 666,66; 8700,693;   47,465;25667,539;33,77519
 667,23; 8806,952;   51,765;25732,773;34,09207
 667,81; 8893,012;   65,865;25889,307;34,18269
 668,39; 9003,971;   43,265;26047,141;34,45912
 668,96; 9100,930;   54,665;26309,074;34,45617
 669,54; 9164,789;   38,765;26408,408;34,60807
 670,12; 9376,248;   51,165;26808,740;34,85025
 670,69; 9603,207;   64,165;26950,674;35,47892
 671,27; 9662,066;   25,565;27096,008;35,59787
 671,84; 9725,325;   40,665;27105,240;35,78353
 672,42; 9844,484;   66,265;27253,875;35,96572
 673,00; 9917,743;   57,165;27531,408;35,89026
 673,57; 9957,603;   59,965;27276,441;36,36634
 674,15;10022,361;   64,065;27613,475;36,14704
 674,72; 9976,021;   58,565;27536,209;36,09281
 675,30; 9965,180;   69,466;27513,541;36,05774
 675,88; 9985,038;   36,266;27573,176;36,12886
 676,45; 9991,297;   59,466;27677,309;35,96165
 677,03; 9950,257;   67,866;27525,043;35,99201
 677,60; 9875,915;   41,466;27770,576;35,46616
 678,18; 9931,074;   59,466;27877,510;35,48635
 678,76; 9931,233;   40,766;27809,143;35,61774
 679,33; 9873,992;   57,666;27813,176;35,36713
 679,91; 9850,852;   44,266;27813,311;35,31481
 680,48; 9742,911;   28,766;27740,242;35,05459
 681,06; 9750,470;   50,866;27735,176;35,03647
 681,63; 9763,229;   37,566;27736,209;35,11242
 682,21; 9737,888;   67,966;27797,543;34,87223
 682,78; 9628,247;   20,566;27459,576;35,01468
 683,36; 9622,506;   46,966;27565,510;34,79668
 683,93; 9602,765;   30,466;27450,645;34,90969
 684,51; 9633,424;   26,166;27477,277;34,99770
 685,08; 9766,083;   38,966;27733,711;35,12261
 685,66; 9813,142;   53,066;27694,045;35,31017
 686,24; 9860,001;   33,766;27796,578;35,39351
 686,81; 9855,260;   57,666;27899,910;35,18967
 687,39; 9918,520;   38,866;27807,844;35,57802
 687,96;10058,878;   54,166;27850,479;35,99295
 688,54;10166,837;   30,866;27984,811;36,25954
 689,11;10155,296;   26,966;28043,545;36,15120
 689,69;10294,756;   29,666;28019,279;36,67464
 690,26;10374,015;   59,466;28289,313;36,53774
 690,84;10258,974;   50,066;28239,846;36,21492
 691,41;10438,832;   35,966;28403,879;36,67124
 691,98;10443,191;   31,466;28427,912;36,66559
 692,56;10512,351;   32,866;28437,445;36,89364
 693,13;10613,310;   64,866;28655,080;36,89529
 693,71;10596,568;   24,466;28657,912;36,92221
 694,28;10574,128;   41,966;28715,945;36,73073
 694,86;10658,387;   47,266;28928,879;36,74005
 695,43;10742,246;   61,366;29100,912;36,78046
 696,01;10829,405;   36,266;29145,547;37,07800
 696,58;10807,664;   42,167;29083,879;37,06909
 697,16;10823,423;   38,067;29126,414;37,07793
 697,73;11008,482;   63,467;29338,246;37,38718
 698,30;10951,341;   51,867;29223,980;37,36265
 698,88;11030,800;   40,467;29558,613;37,23246
 699,45;11044,259;   35,367;29765,848;37,02897
 700,03;11080,318;   56,067;29750,980;37,12505
 700,60;11179,677;   56,267;29850,613;37,33396
 701,18;11305,836;   61,867;29963,947;37,60263
 701,75;11460,096;   74,367;30094,682;37,92675
 702,32;11484,055;   50,367;29901,914;38,30183
 702,90;11584,613;   52,467;30254,148;38,18379
 703,47;11634,572;   51,367;30428,881;38,13085
 704,05;11737,632;   67,767;30546,715;38,28828
 704,62;11836,990;   39,867;30587,848;38,61834
 705,19;11919,050;   43,667;30586,982;38,88046
 705,77;12005,009;   29,967;30618,314;39,14903
 706,34;12101,567;   61,667;30627,049;39,39064
 706,91;12184,427;   46,367;30673,883;39,63123
 707,49;12222,985;   57,267;30976,316;39,34700
 708,06;12309,444;   66,367;31089,049;39,46492
 708,64;12373,504;   25,767;31093,582;39,74446
 709,21;12412,163;   58,167;31179,316;39,69646
 709,78;12436,122;   41,367;31281,150;39,67619
 710,36;12555,481;   61,667;31419,684;39,84249
 710,93;12585,540;   50,567;31562,416;39,77860
 711,50;12621,499;   44,467;31506,049;39,97584
 712,08;12715,358;   76,567;31925,383;39,68371
 712,65;12642,417;   73,667;31775,916;39,64624
 713,22;12722,376;   69,067;31900,250;39,75130
 713,80;12699,136;   84,167;31966,883;39,56679
 714,37;12670,595;   55,767;31827,018;39,70517
 714,94;12625,854;   53,967;31727,551;39,69202
 715,52;12746,713;   47,867;31732,984;40,07827
 716,09;12778,472;   65,467;31891,918;39,94478
 716,66;12802,830;   73,467;31935,051;39,95207
 717,23;12846,289;   66,867;31908,484;40,13434
 717,81;12858,049;   50,168;31812,018;40,32473
 718,38;12870,208;   47,468;31671,252;40,54777
 718,95;12913,467;   59,068;31618,984;40,73014
 719,53;13090,726;   56,568;31661,418;41,24101
 720,10;13083,785;   59,968;31481,252;41,44903
 720,67;13122,744;   35,768;31355,984;41,78444
 721,24;13100,003;   59,468;31256,020;41,80121
 721,82;13171,362;   49,968;31236,053;42,07452
 722,39;13247,121;   64,068;31235,885;42,29158
 722,96;13360,680;   64,968;31261,420;42,61931
 723,53;13428,739;   88,268;31151,953;42,94555
 724,11;13529,798;   61,568;31207,486;43,24236
 724,68;13586,757;   71,568;31242,020;43,35898
 725,25;13711,416;   72,768;31399,953;43,53614
 725,82;13886,875;   96,068;31564,387;43,82442
 726,40;13901,034;   62,668;31714,820;43,72014
 726,97;13953,493;   62,168;31875,354;43,66531
 727,54;14044,053;   46,968;31801,486;44,07903
 728,11;14133,211;   49,568;32045,820;44,01654
 728,69;14122,971;   39,568;31938,953;44,14945
 729,26;14214,329;   53,568;32105,088;44,18125
 729,83;14272,188;   53,268;32264,621;44,14257
 730,40;14385,647;   66,768;32291,754;44,43409
 730,97;14492,906;   44,268;32590,588;44,39408
 731,55;14560,365;   41,468;32755,820;44,38082
 732,12;14564,324;   86,268;32841,656;44,20053
 732,69;14529,684;   66,968;32889,988;44,06272
 733,26;14486,243;   55,168;32930,520;43,89634
 733,83;14551,502;   41,168;32979,055;44,05363
 734,41;14688,261;   65,468;32991,590;44,41092
 734,98;14686,120;   51,368;33155,621;44,20807
 735,55;14781,479;   43,168;33183,656;44,47222
 736,12;14880,038;   65,968;33377,289;44,47158
 736,69;15022,997;   76,968;33377,922;44,88168
 737,26;15100,056;   57,468;33552,254;44,91024
 737,84;15110,915;   70,768;33487,188;45,00825
 738,41;15139,975;   63,168;33492,422;45,10064
 738,98;15169,434;   63,569;33375,055;45,34732
 739,55;15210,093;   49,669;33377,789;45,48839
 740,12;15469,251;   62,969;33678,023;45,83150
 740,69;15479,710;   70,569;33575,656;45,99045
 741,26;15519,069;   56,269;33557,391;46,15607
 741,83;15631,328;   53,869;33719,523;46,27107
 742,41;15767,888;   56,169;33833,055;46,51619
 742,98;15823,646;   91,469;33874,590;46,56816
 743,55;15877,206;   53,569;33836,824;46,83870
 744,12;15932,064;   50,469;33859,855;46,97392
 744,69;16048,023;   59,569;33848,492;47,31863
 745,26;16048,383;   42,169;33677,723;47,58719
 745,83;16068,941;   58,769;33854,355;47,37356
 746,40;16163,301;   57,969;33844,789;47,66750
 746,97;16096,560;   44,769;33828,125;47,51390
 747,55;16159,519;   62,269;33966,957;47,47795
 748,12;16204,478;   57,869;33910,191;47,69720
 748,69;16137,337;   68,769;33877,625;47,52769
 749,26;16194,496;   65,069;33958,559;47,58857
 749,83;16120,855;   42,569;33911,992;47,47139
 750,40;16176,614;   89,669;34158,824;47,21850
 750,97;16251,373;   96,269;34144,160;47,44818
 751,54;16279,032;   40,569;33980,793;47,84430
 752,11;16165,491;   52,969;33874,727;47,63952
 752,68;16149,851;   87,869;33912,859;47,48555
 753,25;16171,909;   60,269;33774,594;47,78871
 753,82;16191,068;   65,069;33810,527;47,78717
 754,39;16203,428;   75,169;33727,160;47,92661
 754,96;16241,786;   60,069;33616,395;48,22255
 755,53;16305,445;   29,469;33796,527;48,20075
 756,10;16200,805;   64,169;33720,961;47,94466
 756,67;16291,563;   73,369;33813,395;48,06812
 757,24;16308,223;   72,769;33740,426;48,22270
 757,81;16287,082;   16,469;33677,762;48,33627
 758,38;16385,840;   54,569;33822,695;48,36298
 758,95;16425,301;   79,469;33743,426;48,55588
 759,52;16372,059;   57,469;33615,859;48,61553
 760,09;16449,918;   68,570;33306,992;49,28437
 760,66;16359,577;   59,570;33309,727;49,02235
 761,23;16358,436;   91,070;33353,961;48,90545
 761,80;16304,095;   56,270;33295,793;48,88104
 762,37;16423,154;   68,970;33167,727;49,41027
 762,94;16456,313;   70,970;33187,461;49,47790
 763,51;16379,572;   36,070;32949,793;49,65559
 764,08;16406,531;   66,270;32998,527;49,61780
 764,65;16257,090;   69,570;32798,961;49,45867
 765,22;16308,949;   54,670;32804,496;49,63165
 765,79;16238,208;   77,370;32691,928;49,55100
 766,36;16318,167;   73,170;32743,063;49,72467
 766,93;16415,627;   68,970;32551,295;50,32478
 767,50;16379,586;   89,470;32828,328;49,75774
 768,07;16369,744;   63,870;32699,262;49,96378
 768,64;16296,804;   86,470;32572,596;49,89925
 769,21;16146,063;   57,970;32359,729;49,80562
 769,78;16057,321;   78,770;32244,963;49,67498
 770,34;15908,681;   45,570;32031,195;49,59450
 770,91;16000,939;   58,470;31921,430;50,03449
 771,48;16027,599;   62,370;31836,863;50,24542
 772,05;15937,558;   66,470;31610,697;50,31376
 772,62;15778,517;   42,670;31443,029;50,11359
 773,19;15836,576;   59,370;31579,764;50,05396
 773,76;15821,135;   71,070;31506,297;50,10323
 774,33;15762,394;   74,170;31447,330;50,00524
 774,90;15691,653;   52,870;31206,064;50,19961
 775,47;15628,212;   59,970;30957,498;50,38669
 776,03;15576,871;   73,470;30984,330;50,15519
 776,60;15602,230;   55,970;30757,863;50,63616
 777,17;15569,489;   65,470;30698,098;50,61276
 777,74;15561,349;   30,870;30522,031;50,93436
 778,31;15547,107;   68,970;30582,064;50,72621
 778,88;15535,366;   30,470;30366,898;51,10983
 779,45;15546,025;   75,770;30358,131;51,08669
 780,01;15433,385;   58,370;30299,664;50,84113
 780,58;15427,243;   60,570;30177,998;51,02253
 781,15;15334,702;   38,771;29979,432;51,08749
 781,72;15327,062;   66,771;29962,266;51,04545
 782,29;15327,421;   51,771;29667,100;51,58021
 782,86;15299,180;   55,571;29617,732;51,56460
 783,42;15324,438;   56,171;29598,166;51,68327
 783,99;15237,498;   66,671;29482,100;51,57439
 784,56;15160,157;   55,171;29320,232;51,61440
 785,13;15052,716;   40,271;29247,266;51,40017
 785,70;15018,375;   49,071;29060,299;51,59831
 786,26;14913,434;   51,671;28910,732;51,49773
 786,83;14965,593;   84,371;28889,166;51,66231
 787,40;14810,853;   57,171;28783,500;51,35944
 787,97;14714,911;   43,971;28581,133;51,40995
 788,54;14697,170;   70,371;28515,268;51,42152
 789,10;14619,329;   57,971;28344,400;51,47825
 789,67;14599,288;   70,371;28245,334;51,56677
 790,24;14468,147;   51,071;28193,768;51,22848
 790,81;14252,606;   88,271;27914,400;50,90300
 791,37;14296,065;   73,671;27872,135;51,16252
 791,94;14284,725;   70,771;27886,367;51,10066
 792,51;14138,783;   46,271;27539,201;51,25868
 793,08;14056,242;   69,771;27555,234;50,88679
 793,64;14061,302;   71,271;27455,168;51,08853
 794,21;14014,160;   69,671;27250,602;51,30247
 794,78;13988,520;   53,071;27147,035;51,43377
 795,35;13934,278;   73,471;27007,969;51,46117
 795,91;13784,237;   48,071;26789,301;51,36700
 796,48;13713,197;   55,771;26710,734;51,23783
 797,05;13763,556;   57,671;26624,369;51,59047
 797,62;13743,314;   41,971;26600,701;51,58885
 798,18;13574,774;   57,471;26410,736;51,29271
 798,75;13454,033;   56,571;26279,770;51,09011
 799,32;13567,292;   60,771;26209,102;51,65347
 799,88;13492,951;   55,971;26051,535;51,68951
 800,45;13298,210;   33,971;25945,270;51,19095
 801,02;13349,569;   65,271;25880,104;51,45994
 801,58;13315,128;   90,872;25660,436;51,71874
 802,15;13182,087;   72,872;25615,270;51,32335
 802,72;13016,146;   66,172;25404,703;51,10784
 803,28;13117,705;   49,172;25288,938;51,77755
 803,85;13014,265;   41,972;25144,871;51,67647
 804,42;12903,123;   77,772;24948,004;51,56909
 804,98;12899,582;  100,672;24935,537;51,53606
 805,55;12818,642;   56,972;24702,371;51,78114
 806,12;12644,501;   83,572;24611,004;51,21176
 806,68;12594,560;   66,472;24493,738;51,28731
 807,25;12556,318;   74,972;24436,271;51,23432
 807,82;12528,678;   86,872;24407,805;51,15678
 808,38;12512,236;   73,672;24367,037;51,20149
 808,95;12586,096;   62,972;24166,971;51,95455
 809,52;12398,155;   50,272;24162,004;51,21110
 810,08;12348,214;   55,172;23994,938;51,34988
 810,65;12462,173;   77,172;24169,672;51,40604
 811,21;12426,132;   69,972;24123,404;51,36963
 811,78;12440,091;   92,472;24337,539;50,92838
 812,35;12389,550;   64,972;24173,871;51,12045
 812,91;12469,409;   90,072;24239,705;51,26097
 813,48;12367,168;   68,172;24202,738;50,96009
 814,04;12390,927;   64,172;24088,373;51,30974
 814,61;12415,086;   77,572;24176,006;51,19633
 815,18;12305,445;   67,772;23892,539;51,36534
 815,74;12218,704;   69,772;23709,172;51,39273
 816,31;12211,163;   83,372;23614,406;51,53956
 816,87;12053,022;   43,272;23489,641;51,22222
 817,44;12089,382;   76,972;23452,273;51,38933
 818,00;11938,540;   43,272;23159,506;51,45850
 818,57;11924,600;   71,872;23076,340;51,52359
 819,14;11932,658;   82,872;22924,273;51,87854
 819,70;11861,018;   72,672;22792,707;51,88524
 820,27;11791,776;   62,972;22691,941;51,83093
 820,83;11688,136;   70,072;22541,373;51,70178
 821,40;11600,095;   98,072;22431,908;51,50043
 821,96;11578,454;   75,272;22315,541;51,72231
 822,53;11527,013;   70,973;22257,574;51,63495
 823,09;11445,972;   81,073;22073,309;51,67687
 823,66;11366,131;   68,173;21862,541;51,83889
 824,22;11309,490;   77,173;21851,674;51,58473
 824,79;11289,649;   75,473;21561,408;52,19310
 825,35;11268,808;   65,173;21648,041;51,90985
 825,92;11150,467;   75,173;21398,875;51,93889
 826,48;11143,826;   87,673;21501,309;51,63137
 827,05;11014,585;   89,573;21448,242;51,15025
 827,61;11037,044;   75,273;21249,076;51,77044
 828,18;10900,203;   60,873;21191,209;51,29748
 828,74;10811,763;   91,673;21053,543;51,14090
 829,31;10781,521;   83,373;21002,176;51,14130
 829,87;10737,080;   73,073;20733,709;51,61510
 830,44;10649,640;   85,173;20631,443;51,41793
 831,00;10665,498;   91,273;20673,977;51,37433
 831,57;10671,857;  101,573;20631,609;51,48693
 832,13;10507,717;   72,073;20323,344;51,53081
 832,69;10474,876;   58,173;20309,477;51,43720
 833,26;10428,435;   85,473;20322,711;51,10856
 833,82;10362,294;   93,073;20197,744;51,07878
 834,39;10309,753;   78,773;20137,477;51,00519
 834,95;10286,412;   57,173;19959,410;51,39743
 835,52;10278,871;   87,873;19851,744;51,56377
 836,08;10328,729;   95,573;19951,877;51,53606
 836,64;10284,989;   76,273;19800,711;51,75669
 837,21;10162,048;   88,673;19552,443;51,75449
 837,77;10145,307;   91,873;19491,777;51,82208
 838,34;10094,866;   67,473;19470,012;51,68083
 838,90; 9965,325;   64,473;19306,045;51,45553
 839,46;10024,784;   83,873;19312,479;51,69855
 840,03; 9979,043;   76,173;19300,811;51,51135
 840,59; 9932,303;   85,873;19175,645;51,57961
 841,16; 9891,762;  105,173;19156,578;51,36938
 841,72; 9706,521;   59,373;18965,512;51,02653
 842,28; 9740,380;   77,873;18857,246;51,45276
 842,85; 9740,238;   95,573;18812,578;51,52889
 843,41; 9738,197;  105,374;18740,813;51,69089
 843,97; 9636,057;   89,174;18686,846;51,33375
 844,54; 9554,216;  104,774;18624,979;51,02234
 845,10; 9507,774;   89,174;18523,713;51,09214
 845,67; 9527,634;   68,774;18413,445;51,56189
 846,23; 9399,493;   78,674;18361,080;50,98245
 846,79; 9442,651;   90,474;18265,613;51,45588
 847,36; 9323,411;   55,774;18179,047;51,13666
 847,92; 9271,470;   84,874;18034,680;51,17936
 848,48; 9170,929;   41,874;18039,213;50,72447
 849,04; 9208,188;   62,374;17949,447;51,13086
 849,61; 9109,047;   56,274;17918,580;50,68087
 850,17; 9117,106;   68,174;17819,514;50,97605
 850,73; 9124,665;   71,474;17764,848;51,16713
 851,30; 8993,924;   46,074;17669,881;50,77138
 851,86; 8942,983;   75,874;17597,914;50,60546
 852,42; 8867,742;   51,174;17568,348;50,33100
 852,99; 8943,802;   79,274;17583,082;50,64342
 853,55; 8906,460;   83,174;17542,514;50,53620
 854,11; 8793,819;   70,074;17432,049;50,24627
 854,67; 8786,078;   85,474;17420,881;50,18979
 855,24; 8801,138;   51,874;17213,414;50,98181
 855,80; 8756,797;   76,874;17244,848;50,55881
 856,36; 8750,056;   80,574;17175,881;50,71264
 856,92; 8689,215;   54,474;17027,215;50,87417
 857,49; 8644,073;   81,274;17048,248;50,46745
 858,05; 8582,532;   67,274;16968,482;50,38254
 858,61; 8604,092;   65,774;17003,316;50,41061
 859,17; 8599,951;   77,374;16904,250;50,64860
 859,74; 8501,510;   82,074;16836,883;50,25086
 860,30; 8372,369;   93,074;16663,016;49,96575
 860,86; 8379,328;   72,074;16692,350;49,98265
 861,42; 8340,287;   74,674;16545,883;50,18219
 861,99; 8339,546;   54,674;16506,717;50,35771
 862,55; 8268,405;   66,374;16393,051;50,23699
 863,11; 8279,364;   75,174;16437,283;50,14140
 863,67; 8195,823;   61,274;16290,117;50,12402
 864,23; 8112,282;   80,175;16199,351;49,82952
 864,80; 8135,741;   69,175;16081,384;50,37760
 865,36; 8108,800;   71,875;16120,817;50,07760
 865,92; 8005,859;   96,175;16088,751;49,45848
 866,48; 7974,118;   67,375;15987,384;49,66545
 867,04; 7877,978;   60,675;15891,418;49,38052
 867,60; 7914,836;   99,375;15884,451;49,51171
 868,17; 7811,195;   93,675;15884,685;48,87288
 868,73; 7775,455;   82,775;15672,618;49,34418
 869,29; 7733,414;   59,475;15470,151;49,79625
 869,85; 7714,272;  100,475;15369,685;49,86373
 870,41; 7605,132;   80,575;15293,418;49,46187
 870,97; 7601,191;   92,975;15232,252;49,59428
 871,54; 7539,850;   84,175;15178,686;49,39329
 872,10; 7518,409;   84,275;15055,419;49,65642
 872,66; 7362,768;   66,775;14910,652;49,15153
 873,22; 7361,327;   81,975;14890,586;49,15621
 873,78; 7270,986;   65,275;14742,419;49,09478
 874,34; 7220,645;   95,075;14662,652;48,91390
 874,90; 7185,745;  109,775;14536,053;49,04917
 875,46; 7154,945;   96,375;14412,952;49,30347
 876,03; 7080,745;   86,475;14363,353;48,99019
 876,59; 6973,945;   64,475;14153,253;49,04236
 877,15; 7045,645;  101,475;14166,853;49,37066
 877,71; 6959,045;   78,275;14064,652;49,19623
 878,27; 6855,845;   95,675;13910,553;48,93399
 878,83; 6893,845;  114,275;13971,753;48,92355
 879,39; 6759,445;   91,075;14082,753;47,65954
 879,95; 6818,645;   86,275;13964,253;48,51117
 880,51; 6776,545;   75,175;13927,253;48,37808
 881,07; 6816,345;   82,375;13978,753;48,45846
 881,63; 6765,845;   92,575;13971,253;48,08290
 882,19; 6814,145;   82,675;13921,553;48,64173
 882,75; 6775,145;   86,275;14019,553;48,00644
 883,31; 6819,245;   95,575;14187,853;47,71174
 883,88; 6855,045;   96,375;14174,353;48,00881
 884,44; 6847,545;   76,175;14175,753;48,02534
 885,00; 6825,645;  106,075;14266,952;47,45165
 885,56; 6882,345;  101,675;14299,452;47,75867
 886,12; 6941,845;  109,875;14421,152;47,73837
 886,68; 6898,745;   90,775;14436,753;47,45560
 887,24; 6982,945;  102,475;14574,952;47,54176
 887,80; 6931,345;   86,975;14671,753;46,92818
 888,36; 7059,545;  106,275;14715,652;47,59457
 888,92; 7032,845;   98,975;14773,353;47,25155
 889,48; 7110,145;   99,575;14973,853;47,13217
 890,04; 7122,945;   95,275;14803,053;47,78200
 890,60; 7234,545;  117,475;15014,652;47,77462
 891,16; 7235,445;   99,875;15075,853;47,64677
 891,72; 7210,445;  113,275;15058,452;47,48803
 892,28; 7199,245;  112,475;15126,053;47,20241
 892,84; 7220,345;   93,775;15039,853;47,68188
 893,39; 7220,345;  117,575;15112,952;47,36640
 893,95; 7188,045;  112,975;15044,753;47,38264
 894,51; 7002,845;   66,375;14891,253;46,78939
 895,07; 7020,245;  127,375;14906,353;46,63970
 895,63; 6902,245;   74,275;14689,952;46,71676
 896,19; 6878,145;   90,375;14601,952;46,77486
 896,75; 6763,245;  105,175;14460,152;46,38161
 897,31; 6729,845;   82,775;14295,853;46,76728
 897,87; 6661,945;   98,175;14146,853;46,72162
 898,43; 6567,145;   87,775;14075,753;46,32099
 898,99; 6521,145;  109,175;14002,753;46,15060
 899,55; 6458,845;  109,475;13940,652;45,90622
 900,11; 6359,545;  104,975;13747,553;45,84595
 900,67; 6249,845;   91,375;13658,652;45,39209
 901,22; 6236,945;  108,375;13601,952;45,41842
 901,78; 6115,245;   91,275;13560,053;44,72544
 902,34; 6070,445;  103,075;13451,152;44,70584
 902,90; 6024,345;   73,575;13350,652;44,81988
 903,46; 5975,745;   95,775;13236,353;44,74666
 904,02; 5952,345;   88,075;13091,553;45,09771
 904,58; 5795,145;   67,075;12918,152;44,57268
 905,14; 5761,545;   63,975;12874,553;44,47551
 905,70; 5756,945;   66,775;12696,053;45,05539
 906,25; 5728,445;   84,375;12708,452;44,70877
 906,81; 5676,345;   87,675;12732,152;44,19851
 907,37; 5653,745;   79,275;12616,152;44,46458
 907,93; 5580,645;   74,775;12588,152;43,99987
 908,49; 5543,745;  101,875;12497,652;43,90100
 909,05; 5547,645;   89,675;12425,553;44,24468
 909,60; 5483,845;   86,575;12340,452;44,04541
 910,16; 5390,845;   67,675;12291,853;43,54624
 910,72; 5379,345;  100,475;12207,753;43,60080
 911,28; 5312,745;   90,875;12156,053;43,28051
 911,84; 5262,145;   79,575;12106,753;43,09049
 912,39; 5249,645;   73,475;12049,353;43,22163
 912,95; 5214,545;  104,475;12001,452;42,95267
 913,51; 5099,745;   85,375;11945,253;42,28012
 914,07; 5013,745;   83,775;11813,452;42,02989
 914,63; 5022,845;   64,775;11748,053;42,43732
 915,18; 4946,045;   77,475;11617,853;42,18727
 915,74; 4879,545;   63,975;11632,652;41,62593
 916,30; 4891,745;   61,475;11588,553;41,90368
 916,86; 4821,645;   83,575;11514,652;41,44902
 917,42; 4751,445;   82,275;11425,152;41,16389
 917,97; 4621,445;   75,375;11265,452;40,62590
 918,53; 4589,545;   67,775;11196,253;40,63242
 919,09; 4528,045;   88,975;11223,753;39,86671
 919,65; 4416,045;   83,375;11083,452;39,38763
 920,20; 4357,245;   61,875;10983,053;39,33065
 920,76; 4318,445;   65,475;10849,452;39,43786
 921,32; 4286,545;   82,675;10770,952;39,33160
 921,87; 4278,845;   97,475;10670,253;39,54845
 922,43; 4160,545;   64,675;10561,353;39,02063
 922,99; 4142,345;   61,875;10406,753;39,44435
 923,55; 4070,545;   63,775;10357,353;38,92495
 924,10; 3986,745;   73,575;10282,853;38,32955
 924,66; 3961,145;   78,675;10170,152;38,47276
 925,22; 3860,645;   43,275;10093,952;37,98122
 925,77; 3792,045;   66,075; 9927,053;37,78499
 926,33; 3769,745;   90,375; 9903,253;37,49532
 926,89; 3657,745;   71,975; 9692,753;37,27110
 927,44; 3616,545;   52,175; 9580,553;37,40794
 928,00; 3562,645;   66,875; 9533,753;36,92632
 928,56; 3491,945;   80,375; 9372,253;36,71561
 929,12; 3449,845;   72,775; 9275,152;36,69780
 929,67; 3355,745;   67,575; 9091,053;36,44016
 930,23; 3272,145;   50,975; 8915,253;36,33878
 930,78; 3282,345;  100,675; 8842,553;36,39573
 931,34; 3144,045;   61,975; 8632,152;35,96273
 931,90; 3057,645;   61,675; 8494,353;35,52810
 932,45; 2960,545;   78,775; 8290,753;35,09228
 933,01; 2862,645;   52,975; 8024,453;35,24654
 933,57; 2783,145;   72,175; 7753,252;35,29414
 934,12; 2626,845;   70,475; 7399,553;34,87983
 934,68; 2485,145;   59,075; 7020,252;34,85143
 935,24; 2348,445;   67,875; 6614,752;34,83447
 935,79; 2198,945;   72,975; 6254,853;34,39036
 936,35; 2055,045;   91,375; 5812,252;34,32463
 936,90; 1921,045;   80,275; 5348,752;34,93932
 937,46; 1734,945;   72,775; 4956,953;34,03173
 938,02; 1585,545;   63,375; 4549,152;33,93325
 938,57; 1492,045;   73,175; 4265,053;33,84808
 939,13; 1369,345;   70,575; 3986,752;33,16423
 939,68; 1278,745;   57,375; 3713,452;33,40657
 940,24; 1217,545;   68,775; 3504,052;33,44039
 940,79; 1179,645;   91,875; 3391,052;32,97095
 941,35; 1134,745;   79,675; 3217,552;33,62368
 941,91; 1052,545;   71,375; 3122,252;32,16026
 942,46; 1044,245;   75,075; 3063,552;32,43023
 943,02; 1027,545;   65,375; 3050,752;32,22943
 943,57;  996,145;   61,275; 2982,452;32,00319
 944,13; 1017,745;   67,375; 2974,452;32,69160
 944,68;  993,045;   65,975; 3041,752;31,15387
 945,24; 1024,845;   82,275; 3060,052;31,65347
 945,79; 1000,345;   68,775; 3104,052;30,69143
 946,35; 1011,945;   51,775; 3194,752;30,54969
 946,90; 1050,345;   98,575; 3283,552;29,88310
 947,46; 1043,345;   52,175; 3311,052;30,41446
 948,01; 1047,145;   51,575; 3390,052;29,82108
 948,57; 1078,745;   86,775; 3552,952;28,61856
 949,12; 1089,045;   65,875; 3613,353;28,84219
 949,68; 1156,045;   76,275; 3732,653;29,53114
 950,23; 1143,345;   70,075; 3833,252;28,52031
 950,79; 1154,845;   75,775; 3933,452;27,97201
 951,34; 1185,045;   83,275; 4070,952;27,62937
 951,90; 1184,645;   57,475; 4140,853;27,60386
 952,45; 1223,745;   81,075; 4292,152;27,13486
 953,01; 1239,745;   65,975; 4364,252;27,30792
 953,56; 1250,245;   87,975; 4500,853;26,33814
 954,12; 1221,445;   42,075; 4567,553;26,06067
 954,67; 1250,845;   70,875; 4720,453;25,37800
 955,23; 1265,445;   61,975; 4804,553;25,37586
 955,78; 1306,045;   67,175; 4882,953;25,72523
 956,33; 1261,345;   58,575; 4947,252;24,60318
 956,89; 1281,945;   53,475; 5038,553;24,64294
 957,44; 1315,745;   53,675; 5170,752;24,66388
 958,00; 1283,245;   49,475; 5238,353;23,77720
 958,55; 1315,545;   70,475; 5313,953;23,74512
 959,10; 1286,945;   52,375; 5370,252;23,21546
 959,66; 1299,445;   74,275; 5488,752;22,62767
 960,21; 1324,445;   78,475; 5567,453;22,69949
 960,77; 1304,045;   54,275; 5606,152;22,51076
 961,32; 1300,345;   48,375; 5663,453;22,29657
 961,87; 1311,545;   79,775; 5738,752;21,76665
 962,43; 1304,045;   68,975; 5780,652;21,62360
 962,98; 1340,845;   76,175; 5828,652;21,98479
 963,54; 1275,045;   27,075; 5820,652;21,54058
 964,09; 1299,145;   56,275; 5873,953;21,36368
 964,64; 1287,345;   64,975; 5901,053;20,94506
 965,20; 1267,945;   44,375; 5966,652;20,66046
 965,75; 1290,645;   66,575; 5976,353;20,71262
 966,30; 1264,345;   75,275; 6068,553;19,84006
 966,86; 1258,745;   62,975; 6121,953;19,73551
 967,41; 1251,045;   81,075; 6084,453;19,48853
 967,96; 1257,845;   75,175; 6108,953;19,60082
 968,52; 1256,745;   81,775; 6126,353;19,43841
 969,07; 1213,545;   72,975; 6120,152;18,86120
 969,62; 1196,745;   77,175; 6134,953;18,48153
 970,18; 1175,745;   57,575; 6147,652;18,36052
 970,73; 1172,445;   66,475; 6203,553;18,02112
 971,28; 1203,245;   95,775; 6197,053;18,15144
 971,84; 1143,045;   55,075; 6118,752;17,94241
 972,39; 1166,145;   95,875; 6148,652;17,68230
 972,94; 1128,545;   54,975; 6140,652;17,64093
 973,49; 1118,745;   64,575; 6141,252;17,34780
 974,05; 1113,945;   64,375; 6178,053;17,16757
 974,60; 1106,245;   88,575; 6213,252;16,61590
 975,15; 1096,945;   77,675; 6231,553;16,56305
 975,71; 1051,345;   62,375; 6121,453;16,32212
 976,26; 1054,345;   77,575; 6110,252;16,19132
 976,81; 1042,145;   90,675; 6134,152;15,74375
 977,36; 1041,345;   84,775; 6156,953;15,75333
 977,92; 1044,345;   90,175; 6209,353;15,59311
 978,47; 1004,645;   77,175; 6060,252;15,50155
 979,02;  996,445;   95,475; 6085,652;15,04079
 979,57;  974,645;   86,775; 6058,453;14,86802
 980,13;  963,745;   76,175; 6038,752;14,88568
 980,68;  962,245;   77,075; 6010,553;14,91823
 981,23;  940,145;   89,175; 6054,652;14,26491
 981,78;  929,945;   82,075; 5974,152;14,39000
 982,33;  901,845;   79,275; 5893,252;14,14815
 982,89;  919,545;   94,375; 5938,152;14,12049
 983,44;  863,345;   65,675; 5935,853;13,58852
 983,99;  901,745;  104,775; 5949,453;13,63582
 984,54;  882,145;   81,475; 5900,053;13,76058
 985,09;  868,545;   87,275; 5873,752;13,50165
 985,65;  841,945;   69,375; 5811,853;13,45360
 986,20;  853,845;  106,575; 5791,152;13,14557
 986,75;  834,945;   95,875; 5823,953;12,90258
 987,30;  816,045;   97,175; 5726,053;12,77111
 987,85;  800,645;   92,475; 5721,353;12,58102
 988,40;  799,145;   96,675; 5693,953;12,55021
 988,96;  815,445;  114,875; 5666,553;12,61907
 989,51;  790,045;  108,875; 5644,053;12,30620
 990,06;  809,845;  128,275; 5680,853;12,27484
 990,61;  766,745;   93,575; 5569,053;12,29427
 991,16;  762,945;  104,375; 5558,053;12,07570
 991,71;  723,145;   79,875; 5505,853;11,85538
 992,26;  715,345;   93,475; 5457,252;11,59388
 992,81;  707,445;   75,075; 5427,053;11,81563
 993,37;  722,545;  113,475; 5390,553;11,54180
 993,92;  706,245;  108,375; 5368,953;11,36510
 994,47;  723,245;  117,475; 5329,652;11,62221
 995,02;  696,245;  118,475; 5313,252;11,12213
 995,57;  666,045;   90,875; 5274,652;11,09558
 996,12;  698,745;  133,575; 5247,553;11,05148
 996,67;  663,845;  132,375; 5191,652;10,50486
 997,22;  646,845;   99,875; 5128,652;10,87680
 997,77;  633,045;  115,275; 5110,553;10,36519
 998,32;  625,145;  103,775; 5015,652;10,61448
 998,87;  638,245;  114,275; 5018,752;10,68350
 999,42;  621,745;  101,675; 4972,553;10,67713
 999,97;  605,845;  109,975; 4956,353;10,23177
1000,53;  615,245;  123,475; 4993,752;10,09737
1001,08;  583,845;   98,375; 4879,053;10,15484
1001,63;  610,445;  144,475; 4878,053; 9,84393
1002,18;  547,945;   85,075; 4777,453; 9,86430
1002,73;  594,545;  131,375; 4813,853; 9,89156
1003,28;  558,945;  103,575; 4811,953; 9,67148
1003,83;  594,945;  119,075; 4691,752;10,40681
1004,38;  573,245;  137,775; 4703,152; 9,53853
1004,93;  547,345;  114,375; 4680,953; 9,48128
1005,48;  537,045;  104,075; 4573,053; 9,68835
1006,03;  523,945;  112,775; 4525,652; 9,31750
1006,58;  522,445;  111,475; 4486,553; 9,39343
1007,13;  478,345;   94,475; 4466,252; 8,78064
1007,68;  506,445;  104,975; 4462,453; 9,21336
1008,23;  509,545;  114,575; 4425,853; 9,16132
1008,78;  498,045;  107,375; 4384,152; 9,13468
1009,33;  507,645;  121,875; 4307,752; 9,21599
1009,88;  464,745;   84,775; 4329,553; 8,95147
1010,43;  496,745;  118,875; 4320,752; 8,99288
1010,98;  453,445;  100,675; 4310,053; 8,38057
1011,52;  447,545;   97,075; 4264,953; 8,40884
1012,07;  488,345;  144,475; 4319,252; 8,23685
1012,62;  462,445;  103,875; 4259,152; 8,62927
1013,17;  463,145;   97,175; 4172,053; 8,98113
1013,72;  443,045;   94,575; 4143,453; 8,60658
1014,27;  445,145;  100,275; 4105,853; 8,60974
1014,82;  415,745;   86,875; 4042,952; 8,31303
1015,37;  393,345;   84,375; 3964,853; 7,96216
1015,92;  418,445;  109,475; 3894,252; 8,16349
1016,47;  381,745;   90,275; 3819,452; 7,81593
1017,02;  367,445;   81,075; 3732,153; 7,84344
1017,57;  411,945;   96,475; 3718,853; 8,70892
1018,11;  370,745;   77,275; 3656,252; 8,19983
1018,66;  391,545;  120,175; 3636,552; 7,71732
1019,21;  387,545;  109,675; 3579,552; 8,00806
1019,76;  358,545;   77,675; 3497,353; 8,21335
1020,31;  339,545;   71,975; 3446,452; 7,92923
1020,86;  355,145;   96,175; 3448,052; 7,72612
1021,41;  347,045;   80,175; 3387,052; 8,07015
1021,96;  343,245;   83,675; 3385,853; 7,86057
1022,50;  362,545;  105,975; 3332,952; 7,95078
1023,05;  338,445;   94,675; 3288,052; 7,63361
1023,60;  334,845;   97,975; 3251,353; 7,51163
1024,15;  315,445;   81,075; 3184,853; 7,55112
1024,70;  328,845;   95,075; 3176,252; 7,58703
1025,25;  315,445;   81,175; 3127,452; 7,69037
1025,79;  329,545;  101,175; 3110,752; 7,58811
1026,34;  318,745;   83,475; 3044,653; 7,94515
1026,89;  323,645;  102,175; 3039,052; 7,54100
1027,44;  311,345;   95,875; 2952,952; 7,54162
1027,99;  305,145;   93,475; 2944,552; 7,42421
1028,53;  308,245;   89,675; 2900,052; 7,77725
1029,08;  320,345;  114,775; 2876,653; 7,44312
1029,63;  303,545;  114,875; 2854,952; 6,88557
1030,18;  295,445;   92,075; 2788,552; 7,54206
1030,73;  282,345;   91,175; 2739,552; 7,21838
1031,27;  261,645;   85,875; 2715,252; 6,68485
1031,82;  283,445;   81,875; 2686,452; 7,73907
1032,37;  283,245;   98,875; 2688,853; 7,11859
1032,92;  274,245;  100,575; 2675,452; 6,74479
1033,46;  273,745;   99,775; 2599,252; 6,96025
1034,01;  259,945;   78,375; 2582,952; 7,24953
1034,56;  280,845;   98,875; 2559,252; 7,39602
1035,11;  268,645;   92,375; 2523,552; 7,25040
1035,65;  264,445;   87,575; 2478,052; 7,39894
1036,20;  255,345;   99,375; 2454,452; 6,62271
1036,75;  297,845;  118,675; 2446,353; 7,69737
1037,29;  257,645;   90,275; 2398,252; 7,25180
1037,84;  222,945;   78,375; 2347,252; 6,37187
1038,39;  246,745;   91,075; 2329,952; 6,95304
1038,94;  225,445;   73,075; 2277,153; 6,91310
1039,48;  248,045;   83,575; 2278,552; 7,49302
1040,03;  258,045;  102,875; 2245,252; 7,24289
1040,58;  237,645;  101,175; 2194,552; 6,51913
1041,12;  242,845;   91,375; 2191,653; 7,21190
1041,67;  231,245;  101,075; 2166,752; 6,30156
1042,22;  251,645;  118,475; 2145,252; 6,57053
1042,76;  223,645;   99,275; 2118,452; 6,15944
1043,31;  235,745;   90,675; 2060,653; 7,36404
1043,86;  225,045;   98,875; 2044,252; 6,48563
1044,40;  234,945;   92,975; 2018,052; 7,37477
1044,95;  228,045;   94,175; 1988,552; 7,06670
1045,50;  193,345;   75,375; 1934,353; 6,34596
1046,04;  234,545;  114,375; 1930,453; 6,61701
1046,59;  216,845;   96,175; 1878,353; 6,77093
1047,13;  235,545;  121,075; 1879,453; 6,50998
1047,68;  221,545;  115,675; 1860,052; 6,06921
1048,23;  220,745;  118,775; 1866,752; 5,83360
1048,77;  198,245;   90,175; 1784,953; 6,37665
1049,32;  204,045;  104,175; 1785,953; 5,93836
1049,86;  205,845;   92,675; 1760,552; 6,78527
1050,41;  185,145;   82,475; 1735,552; 6,21084
1050,96;  205,445;  100,875; 1698,652; 6,54472
1051,50;  209,945;  101,675; 1663,252; 6,93337
1052,05;  202,945;   94,675; 1664,052; 6,89891
1052,59;  197,445;   82,975; 1624,152; 7,42744
1053,14;  185,445;   84,475; 1582,652; 6,73952
1053,69;  191,245;   98,475; 1571,453; 6,29813
1054,23;  209,845;  104,575; 1569,052; 7,18823
1054,78;  188,845;  100,775; 1550,152; 6,07640
1055,32;  206,945;  123,075; 1550,453; 5,87581
1055,87;  176,045;   68,875; 1491,752; 7,53192
1056,41;  176,145;   78,775; 1469,552; 7,00112
1056,96;  179,345;   96,775; 1451,052; 6,09698
1057,50;  197,945;  113,375; 1470,853; 6,22994
1058,05;  159,045;   82,075; 1401,953; 5,83160
1058,59;  180,645;   95,875; 1396,552; 6,51737
1059,14;  188,245;  103,575; 1370,453; 6,68336
1059,68;  157,445;   75,975; 1329,353; 6,50004
1060,23;  199,145;  126,875; 1383,752; 5,74996
1060,77;  185,145;   97,375; 1317,052; 7,19616
1061,32;  189,345;  108,575; 1320,652; 6,66377
1061,86;  175,545;  111,175; 1289,752; 5,46167
1062,41;  176,945;   93,975; 1242,953; 7,22120
1062,95;  173,245;  109,575; 1230,853; 5,67834
1063,50;  182,545;  111,075; 1230,052; 6,38708
1064,04;  169,845;   90,475; 1197,453; 7,16997
1064,59;  195,845;  114,775; 1210,052; 7,40178
1065,13;  170,145;  103,475; 1170,552; 6,24791
1065,68;  174,945;  107,275; 1161,353; 6,41983
1066,22;  191,845;  115,875; 1166,453; 7,23126
1066,76;  199,245;  130,175; 1145,252; 6,80441
1067,31;  162,545;   99,875; 1110,552; 6,20079
1067,85;  170,045;  100,975; 1090,252; 6,98186
1068,40;  168,345;  110,275; 1095,353; 5,89497
1068,94;  174,245;   99,175; 1079,353; 7,65882
1069,49;  164,345;   98,175; 1041,652; 7,01342
1070,03;  164,345;  111,175; 1034,353; 5,75946
1070,57;  149,145;   88,775; 1012,852; 6,53300
1071,12;  136,345;   75,875;  987,153; 6,63574
1071,66;  193,645;  131,775; 1039,953; 6,81255
1072,21;  170,945;  112,475; 1011,352; 6,50478
1072,75;  153,545;  104,475;  978,552; 5,61392
1073,29;  143,945;   77,075;  942,453; 7,72726
1073,84;  160,445;   95,975;  941,153; 7,62798
1074,38;  159,445;   93,875;  928,253; 7,85855
1074,92;  148,345;  107,275;  940,153; 4,93110
1075,47;  170,445;  112,775;  938,852; 6,98119
1076,01;  184,945;  121,775;  926,253; 7,85230
1076,56;  149,045;   97,275;  891,953; 6,51459
1077,10;  148,245;   86,075;  865,253; 7,97893
1077,64;  152,345;   97,875;  884,453; 6,92494
1078,19;  175,845;  123,175;  887,753; 6,88877
1078,73;  153,345;   98,775;  853,852; 7,22707
1079,27;  179,845;  121,075;  875,552; 7,78950
1079,81;  173,245;  121,375;  860,953; 7,01346
1080,36;  162,345;  105,975;  836,052; 7,72110
1080,90;  149,945;   96,375;  819,753; 7,40554
1081,44;  135,145;   82,475;  789,552; 7,44897
1081,99;  133,045;   70,375;  771,753; 8,93527
1082,53;  160,745;  113,075;  798,653; 6,95326
1083,07;  148,045;  104,175;  791,453; 6,38316
1083,62;  158,745;  101,275;  772,552; 8,56129
1084,16;  145,845;   98,975;  782,453; 6,85758
1084,70;  148,445;  107,475;  767,153; 6,21061
1085,24;  172,145;  108,775;  750,653; 9,87260
1085,79;  148,545;  109,175;  747,552; 6,16720
1086,33;  137,945;   99,075;  711,453; 6,34739
1086,87;  150,445;  102,075;  714,852; 7,89357
1087,41;  125,845;   84,475;  686,852; 6,86779
1087,96;  168,745;  124,575;  732,552; 7,26507
1088,50;  136,345;  112,075;  696,953; 4,14959
1089,04;  162,845;  121,775;  715,153; 6,92139
1089,58;  130,045;   82,375;  655,953; 8,31099
1090,13;  139,645;  102,975;  653,153; 6,66512
1090,67;  143,145;  101,775;  678,753; 7,17012
1091,21;  140,145;   92,075;  651,852; 8,58734
1091,75;  145,245;  106,875;  647,153; 7,10190
1092,29;  157,445;  105,875;  642,552; 9,60912
1092,84;  133,945;  105,975;  628,352; 5,35437
1093,38;  177,345;  128,175;  662,753; 9,19792
1093,92;  162,145;  113,475;  640,052; 9,24271
1094,46;  156,045;  128,175;  638,852; 5,45746
1095,00;  136,945;   93,975;  602,052; 8,45737
1095,54;  131,345;   89,975;  591,352; 8,25127
1096,09;  139,745;  114,975;  597,352; 5,13498
1096,63;  160,245;  117,175;  598,453; 8,94910
1097,17;  132,645;  102,575;  573,052; 6,39138
1097,71;  162,745;  122,875;  582,453; 8,67536
1098,25;  129,545;  103,275;  553,653; 5,83288
1098,79;  152,545;  104,775;  568,753;10,29576
1099,33;  143,945;  111,975;  572,052; 6,94883
1099,88;  142,645;  110,775;  562,253; 7,05905
1100,42;  120,345;   83,275;  521,253; 8,46391

