0136 ELITRO
Integration time [ms]:   8,000
Averaging Nr. [scans]: 10
Smoothing Nr. [pixels]: 0
Data measured with spectrometer [name]: 7314920SP
Wave   ;Sample   ;Dark     ;Reference;Reflectance
[nm]   ;[counts] ;[counts] ;[counts] ;[%]

 199,42;   96,431;   63,873;  150,055;37,77806
 200,02;  102,029;   92,669;  145,732;17,64080
 200,62;   68,251;   67,563;   88,793; 3,24098
 201,22;  104,877;   86,969;  138,011;35,08435
 201,82;  104,772;   66,174;  141,790;51,04499
 202,42;  108,647;  101,668;  154,973;13,09197
 203,03;   72,535;   60,168;   91,775;39,12773
 203,63;   86,905;   69,967;  109,037;43,35352
 204,23;   90,413;   70,671;  129,903;33,32923
 204,83;   90,441;   74,567;  123,718;32,29557
 205,43;   81,331;   56,673;  123,555;36,86774
 206,03;   61,558;   50,167;   90,459;28,27223
 206,63;   84,940;   68,865;  100,007;51,61877
 207,24;  120,832;   74,675;  162,566;52,51546
 207,84;   66,476;   39,967;   83,699;60,61655
 208,44;   62,177;   50,669;   95,011;25,95220
 209,04;   47,222;   47,365;   85,066;-0,37802
 209,64;   97,536;   69,972;  127,998;47,50354
 210,24;   63,741;   45,367;   97,218;35,43536
 210,84;   68,559;   51,469;  101,970;33,84071
 211,44;  101,189;   86,470;  122,908;40,39401
 212,05;   73,522;   60,865;   99,266;32,96085
 212,65;   81,235;   66,368;  112,975;31,89892
 213,25;   99,647;   93,768;  142,073;12,16990
 213,85;   94,652;   84,465;  114,904;33,46542
 214,45;   65,441;   53,367;  100,418;25,66070
 215,05;   48,559;   39,369;  100,070;15,13960
 215,65;   72,741;   55,169;  105,630;34,82368
 216,25;   52,641;   40,267;   82,518;29,28594
 216,85;   55,494;   34,069;   89,651;38,54712
 217,45;   60,735;   49,068;   97,375;24,15211
 218,05;   74,136;   58,270;  112,886;29,04933
 218,66;   38,712;   28,769;   75,692;21,19028
 219,26;   42,505;   26,567;   79,337;30,20317
 219,86;   50,048;   36,771;   81,584;29,62747
 220,46;   81,553;   54,270;  104,127;54,72331
 221,06;   73,913;   51,871;  115,903;34,42274
 221,66;   61,360;   43,471;  103,481;29,80893
 222,26;   66,036;   39,772;  102,398;41,93846
 222,86;   65,582;   67,268;  118,954;-3,26196
 223,46;   69,641;   51,767;   88,918;48,11057
 224,06;   84,530;   64,971;  120,343;35,32305
 224,66;   79,001;   57,570;  105,805;44,42867
 225,26;   62,306;   48,169;  113,748;21,55669
 225,86;   75,684;   42,173;  112,376;47,73398
 226,46;   71,865;   49,968;  102,913;41,35684
 227,06;   45,501;   27,670;   87,705;29,69966
 227,66;   48,069;   37,665;   74,845;27,98379
 228,27;   39,553;   29,270;   96,227;15,35827
 228,87;  104,918;   89,170;  143,046;29,23016
 229,47;   57,419;   29,172;   92,357;44,70444
 230,07;   23,306;   11,169;   59,648;25,03488
 230,67;   54,494;   38,169;   84,651;35,12170
 231,27;   43,853;   27,670;   76,327;33,26021
 231,87;   53,894;   43,169;  100,751;18,62615
 232,47;   92,767;   43,775;  132,047;55,50083
 233,07;   57,457;   42,965;   75,547;44,48034
 233,67;   63,035;   53,768;   94,275;22,87793
 234,27;   19,258;    0,567;   53,259;35,47304
 234,87;   53,448;   34,771;  106,084;26,19013
 235,47;   34,006;   16,169;   74,148;30,76400
 236,07;   35,981;   30,266;   72,042;13,68135
 236,67;   57,111;   49,966;   85,180;20,28928
 237,27;   57,796;   28,873;  109,074;36,06253
 237,87;   50,201;   25,370;   99,805;33,35821
 238,47;   36,929;   14,269;   68,032;42,14908
 239,07;   49,854;   33,272;   95,738;26,54544
 239,67;   80,838;   43,477;  131,421;42,48301
 240,27;   69,884;   46,773;  119,176;31,91964
 240,87;   69,678;   50,773;  119,533;27,49363
 241,47;   49,481;   39,164;   76,131;27,90873
 242,07;   53,400;   39,968;   92,894;25,37836
 242,67;   11,213;  -11,027;   77,914;25,00536
 243,27;   26,441;    7,767;   46,418;48,31326
 243,87;   64,430;   48,671;  108,343;26,40960
 244,47;   60,113;   22,371;   99,703;48,80461
 245,07;   26,159;    2,669;   55,770;44,23626
 245,67;   43,335;   31,068;   85,575;22,50568
 246,27;   43,940;   34,965;   69,007;26,36497
 246,87;   27,982;   26,668;   63,154; 3,60156
 247,46;   12,651;   19,663;   23,793;-169,78490
 248,06;   31,136;   20,470;   69,786;21,62710
 248,66;   59,436;   31,072;  105,898;37,90709
 249,26;   46,881;   32,366;   70,742;37,82424
 249,86;   55,484;   42,873;  102,176;21,26510
 250,46;   49,149;   16,775;   93,507;42,19129
 251,06;   34,235;   22,168;   65,375;27,92868
 251,66;   28,765;   20,771;   64,724;18,18899
 252,26;   45,946;   38,866;   70,261;22,55161
 252,86;   36,359;   35,969;   89,070; 0,73422
 253,46;   -7,559;   -8,033;   22,118; 1,57099
 254,06;   22,699;   31,766;   79,483;-19,00093
 254,66;   48,831;   34,973;  100,155;21,26021
 255,26;   70,866;   39,073;  118,836;39,85965
 255,86;   42,681;   37,464;   55,631;28,71700
 256,46;   33,589;   19,870;   70,208;27,25342
 257,05;   37,483;   23,570;   59,565;38,65173
 257,65;   63,248;   38,071;   97,684;42,23396
 258,25;   60,819;   37,372;  101,457;36,58655
 258,85;   28,359;   15,669;   51,770;35,15109
 259,45;   15,094;    6,869;   42,951;22,79613
 260,05;   59,841;   46,667;   85,818;33,64816
 260,65;   50,746;   45,066;   83,561;14,75539
 261,25;   45,130;   29,371;   85,943;27,85676
 261,85;   13,377;   -0,129;   47,622;28,28459
 262,45;   62,659;   46,169;  109,270;26,13254
 263,04;   77,648;   53,073;  116,295;38,87156
 263,64;   45,788;   33,767;   77,097;27,74211
 264,24;   60,795;   37,671;   89,062;44,99558
 264,84;   85,408;   58,974;  138,671;33,16755
 265,44;   36,253;   26,368;   67,716;23,90680
 266,04;   45,234;   48,865;   71,464;-16,06849
 266,64;   51,211;   39,866;   86,780;24,18185
 267,24;   42,111;   40,166;   68,980; 6,74895
 267,84;   34,747;   24,668;   76,573;19,41764
 268,43;   59,817;   48,368;   95,935;24,07042
 269,03;   55,012;   46,969;   87,892;19,65426
 269,63;   78,364;   58,566;   92,402;58,51159
 270,23;   14,469;   10,765;   39,045;13,09872
 270,83;   53,346;   55,266;   83,161;-6,88255
 271,43;   39,670;   23,967;   58,856;45,00809
 272,03;   65,553;   64,168;   99,116; 3,96299
 272,62;   34,041;   23,269;   68,730;23,69570
 273,22;   30,018;   11,970;   61,046;36,77571
 273,82;   17,003;   17,460;   26,403;-5,11244
 274,42;   25,063;   25,164;   46,890;-0,46314
 275,02;   33,175;   34,864;   60,388;-6,61865
 275,62;   60,119;   31,972;  100,457;41,09877
 276,21;   39,171;   22,770;   69,267;35,27310
 276,81;   48,276;   46,767;   71,099; 6,20220
 277,41;   39,542;   22,971;   96,341;22,58518
 278,01;   23,175;   21,364;   42,788; 8,45190
 278,61;   56,177;   38,869;   83,811;38,51135
 279,20;   88,484;   65,473;  119,076;42,92803
 279,80;    3,445;    6,762;   11,539;-69,43340
 280,40;   51,981;   36,866;   79,742;35,25384
 281,00;   10,577;   -4,331;   33,311;39,60410
 281,60;   42,825;   20,774;   74,812;40,80724
 282,20;   42,789;   36,670;   70,108;18,29912
 282,79;   41,117;   29,568;   70,135;28,47041
 283,39;   27,964;   17,466;   44,702;38,54433
 283,99;   20,657;   23,165;   34,347;-22,41878
 284,59;   17,524;   16,869;   45,289; 2,30266
 285,19;   32,158;   27,067;   57,759;16,58881
 285,78;   34,089;   23,270;   63,808;26,68811
 286,38;   41,540;   39,665;   59,207; 9,59572
 286,98;   39,717;   35,168;   73,535;11,85797
 287,58;   19,113;    4,771;   61,403;25,32414
 288,17;   38,166;    8,973;   80,336;40,90811
 288,77;   59,461;   19,976;   92,504;54,44130
 289,37;   21,359;   11,269;   57,670;21,74498
 289,97;   56,457;   48,965;   66,647;42,37416
 290,57;   56,807;   46,672;   93,260;21,75477
 291,16;   75,953;   63,868;  102,616;31,18866
 291,76;   23,918;    5,570;   47,346;43,92010
 292,36;   39,805;   34,367;   58,137;22,87846
 292,96;   19,701;   -3,127;   60,117;36,09611
 293,55;   41,976;   24,267;   65,399;43,05388
 294,15;   40,371;   26,870;   62,567;37,82086
 294,75;   43,440;   42,065;   66,207; 5,69631
 295,35;   20,153;   21,068;   52,016;-2,95660
 295,94;   45,593;   42,967;   66,740;11,04981
 296,54;   34,265;   30,768;   70,613; 8,77480
 297,14;   40,160;   29,971;   76,881;21,71891
 297,73;   19,787;   12,165;   40,085;27,29918
 298,33;   36,799;   28,066;   57,583;29,58737
 298,93;   46,882;   41,968;   82,554;12,10789
 299,53;   40,672;   24,872;   69,079;35,74033
 300,12;   11,460;  -12,229;   59,481;33,03352
 300,72;   56,288;   41,567;   91,197;29,66083
 301,32;   53,148;   25,771;   99,584;37,08959
 301,92;   10,745;    3,664;   33,050;24,09864
 302,51;   21,323;   11,567;   49,978;25,39908
 303,11;   20,958;   14,667;   48,759;18,45429
 303,71;   41,329;   21,369;   82,132;32,85002
 304,30;   18,717;    5,466;   38,423;40,20627
 304,90;   20,699;   19,666;   44,283; 4,19757
 305,50;   35,769;   18,565;   64,345;37,58063
 306,09;   41,281;   15,466;   49,042;76,88609
 306,69;   47,595;   34,171;   90,262;23,93208
 307,29;   20,521;   18,760;   33,144;12,24015
 307,88;   63,724;   43,269;   72,489;70,00216
 308,48;   12,853;    0,070;   49,727;25,74346
 309,08;   -1,514;   -4,437;   11,774;18,03408
 309,68;   33,887;   22,365;   39,585;66,90960
 310,27;   33,141;   20,169;   49,830;43,73569
 310,87;   42,965;   23,468;   54,813;62,19946
 311,47;   59,541;   54,967;   92,918;12,05145
 312,06;   47,905;   47,865;   68,426; 0,19325
 312,66;   69,853;   51,168;  100,016;38,25127
 313,26;   67,065;   48,571;   96,224;38,81062
 313,85;   53,058;   38,267;   65,959;53,41425
 314,45;   58,177;   42,969;   86,611;34,84660
 315,04;   64,705;   52,165;   81,826;42,27701
 315,64;   26,488;   21,267;   47,897;19,60420
 316,24;   48,053;   40,770;   85,627;16,23701
 316,83;   53,681;   40,366;   76,742;36,60499
 317,43;   39,870;   35,167;   68,156;14,25558
 318,03;   43,416;   39,063;   70,012;14,06391
 318,62;   72,480;   73,061;   94,820;-2,67187
 319,22;   36,747;    7,668;   66,973;49,03292
 319,82;   61,653;   40,768;   93,516;39,59388
 320,41;   67,229;   59,069;   98,732;20,57515
 321,01;   90,869;   80,465;  115,945;29,32463
 321,60;   77,463;   81,164;  102,790;-17,11138
 322,20;   84,231;   67,673;  132,855;25,40248
 322,80;   65,688;   54,567;   91,797;29,87019
 323,39;   57,693;   65,764;   94,828;-27,77162
 323,99;   69,246;   61,766;  102,661;18,29095
 324,59;   74,516;   73,063;   97,512; 5,94137
 325,18;   69,723;   40,967;   92,178;56,15232
 325,78;   80,987;   76,365;  108,885;14,21271
 326,37;   72,435;   74,868;  108,075;-7,32592
 326,97;   78,888;   63,267;  111,497;32,38791
 327,57;   53,551;   42,263;   76,493;32,97719
 328,16;   73,481;   60,864;   93,631;38,50517
 328,76;   77,093;   50,467;  110,140;44,62121
 329,35;   83,448;   56,871;  137,484;32,96856
 329,95;   60,889;   27,470;   91,308;52,34927
 330,54;   60,741;   52,167;   94,018;20,48607
 331,14;   46,876;   26,967;   82,599;35,78689
 331,74;   61,169;   54,165;   96,145;16,68493
 332,33;   61,153;   35,370;  108,127;35,43772
 332,93;   56,145;   43,764;   79,250;34,89157
 333,52;   60,764;   42,466;   93,102;36,13621
 334,12;   98,612;   72,069;  140,392;38,84949
 334,71;   54,981;   50,666;   87,942;11,57723
 335,31;   71,358;   63,267;  119,859;14,29784
 335,90;   31,057;   32,362;   53,836;-6,07958
 336,50;   41,140;   30,665;   77,207;22,50692
 337,10;   74,941;   38,769;  121,530;43,70711
 337,69;   65,940;   51,765;   93,707;33,79703
 338,29;   51,105;   30,467;  101,037;29,24502
 338,88;   51,982;   22,468;   99,854;38,13900
 339,48;   75,874;   57,862;  111,677;33,47101
 340,07;   74,429;   48,566;  107,321;44,01771
 340,67;   52,348;   31,171;  124,784;22,62183
 341,26;   71,381;   48,466;   98,942;45,39859
 341,86;   94,306;   61,469;  138,348;42,71212
 342,45;   78,124;   45,669;  142,689;33,45136
 343,05;   66,024;   27,269;  115,689;43,83007
 343,64;   71,111;   47,366;  122,480;31,61153
 344,24;   47,940;   28,765;   92,107;30,27242
 344,83;   84,357;   71,365;  121,747;25,78845
 345,43;   48,393;   29,667;  114,240;22,14282
 346,02;   57,794;   41,469;  124,351;19,69705
 346,62;   74,165;   40,971;  140,424;33,37704
 347,21;   69,687;   42,165;  131,985;30,64120
 347,81;   56,407;   26,172;  140,560;26,43206
 348,40;   51,881;   29,064;  100,731;31,83754
 349,00;   56,416;   49,163;  137,712; 8,19051
 349,59;   94,118;   65,870;  177,846;25,22686
 350,19;   63,965;   32,571;  139,424;29,38103
 350,78;   66,958;   55,467;  140,759;13,47305
 351,38;   43,794;   15,869;  140,951;22,32559
 351,97;   54,893;   26,767;  136,040;25,73998
 352,57;   58,753;   42,570;  155,827;14,28913
 353,16;   47,693;   30,564;  134,328;16,50708
 353,76;   71,818;   38,770;  169,846;25,21287
 354,35;   60,606;   27,669;  160,148;24,86180
 354,95;   75,271;   43,970;  182,067;22,66597
 355,54;   74,747;   38,368;  163,973;28,96286
 356,14;   59,106;   40,069;  164,749;15,26854
 356,73;   45,974;   29,162;  145,176;14,49150
 357,32;   44,929;   13,769;  164,432;20,68240
 357,92;   62,389;   17,772;  181,419;27,26434
 358,51;   85,172;   43,372;  214,179;24,47189
 359,11;   62,907;   36,772;  212,360;14,88434
 359,70;   70,083;   28,470;  189,965;25,76713
 360,30;   64,745;   54,562;  188,039; 7,62916
 360,89;   37,182;   31,168;  188,054; 3,83340
 361,48;   97,171;   55,570;  216,467;25,85567
 362,08;   64,570;   19,867;  187,156;26,72191
 362,67;   55,351;   39,763;  192,693;10,19294
 363,27;   92,923;   60,767;  247,678;17,20391
 363,86;   72,569;   35,765;  215,745;20,44913
 364,46;   91,281;   44,664;  257,231;21,93051
 365,05;   98,614;   64,659;  254,989;17,84037
 365,64;   97,091;   50,960;  269,706;21,08907
 366,24;  110,020;   38,558;  309,432;26,38201
 366,83;  120,890;   43,255;  335,383;26,57554
 367,43;  152,263;   51,545;  352,843;33,42806
 368,02;  140,152;   34,646;  399,757;28,89682
 368,61;  179,137;   62,239;  475,425;28,29197
 369,21;  148,490;   32,419;  445,299;28,11242
 369,80;  199,962;   43,007;  526,947;32,43280
 370,39;  239,003;   62,006;  604,971;32,59826
 370,99;  228,439;   42,089;  615,416;32,50325
 371,58;  240,510;   22,974;  630,953;35,78026
 372,18;  257,631;   37,166;  701,603;33,18080
 372,77;  257,896;   42,449;  679,385;33,82556
 373,36;  284,166;   42,747;  690,836;37,25097
 373,96;  261,827;   35,135;  639,498;37,50923
 374,55;  244,701;   29,844;  621,406;36,32024
 375,14;  247,414;   42,849;  573,826;38,52615
 375,74;  234,893;   69,157;  543,276;34,95662
 376,33;  177,842;   45,964;  464,589;31,50276
 376,92;  157,965;   33,278;  447,997;30,06532
 377,52;  241,302;   86,103;  548,460;33,56692
 378,11;  172,608;   46,703;  457,203;30,67118
 378,71;  214,264;   73,011;  514,270;32,01124
 379,30;  211,907;   59,517;  553,928;30,82247
 379,89;  204,017;   59,813;  556,103;29,05643
 380,49;  209,401;   31,018;  568,185;33,20815
 381,08;  245,168;   70,306;  570,990;34,92457
 381,67;  233,204;   55,008;  555,483;35,60536
 382,26;  213,468;   41,706;  539,390;34,51221
 382,86;  215,137;   54,003;  516,041;34,87471
 383,45;  208,605;   50,412;  562,105;30,91557
 384,04;  209,040;   38,712;  553,886;33,06226
 384,64;  216,112;   49,014;  566,760;32,27407
 385,23;  232,733;   64,406;  560,509;33,92972
 385,82;  234,800;   59,615;  592,774;32,85795
 386,42;  268,291;   61,024;  659,022;34,66023
 387,01;  246,747;   55,414;  580,541;36,43558
 387,60;  265,298;   69,009;  590,140;37,66605
 388,20;  238,305;   37,712;  590,805;36,26747
 388,79;  284,248;   72,418;  665,563;35,71301
 389,38;  220,968;   32,106;  564,890;35,44809
 389,97;  279,036;   45,415;  640,955;39,22835
 390,57;  292,159;   71,114;  654,038;37,91995
 391,16;  289,859;   62,514;  655,838;38,31709
 391,75;  285,900;   52,713;  638,562;39,80314
 392,34;  296,014;   60,821;  696,694;36,98742
 392,94;  298,313;   44,718;  689,683;39,31918
 393,53;  297,230;   41,016;  666,612;40,95519
 394,12;  334,315;   53,023;  719,105;42,23075
 394,72;  334,082;   54,213;  706,122;42,93066
 395,31;  324,400;   42,115;  694,874;43,24493
 395,90;  357,974;   42,924;  732,881;45,66221
 396,49;  365,498;   58,028;  779,187;42,63560
 397,09;  356,889;   47,417;  749,188;44,09875
 397,68;  403,703;   44,025;  800,719;47,53288
 398,27;  403,157;   54,626;  809,652;46,16141
 398,86;  416,033;   43,125;  807,657;48,77595
 399,45;  446,829;   56,630;  844,037;49,55489
 400,05;  422,755;   23,820;  799,518;51,42914
 400,64;  448,278;   56,419;  831,001;50,58971
 401,23;  476,384;   53,920;  859,956;52,41257
 401,82;  485,584;   67,220;  868,256;52,22789
 402,42;  507,696;   62,921;  873,953;54,84063
 403,01;  540,803;   81,525;  912,919;55,24197
 403,60;  553,388;   68,532;  940,513;55,60401
 404,19;  560,739;   76,024;  931,900;56,63371
 404,78;  572,055;   57,522;  909,929;60,36239
 405,38;  595,800;   68,332;  984,210;57,59149
 405,97;  587,492;   63,226;  953,933;58,85953
 406,56;  627,746;   71,528; 1004,366;59,62640
 407,15;  630,505;   68,829;  989,442;61,01107
 407,74;  670,682;   80,730; 1026,758;62,36088
 408,34;  656,565;   50,933; 1018,629;62,58493
 408,93;  691,041;   59,531; 1016,234;66,00895
 409,52;  682,230;   51,435; 1041,359;63,72156
 410,11;  749,105;   84,931; 1090,453;66,05269
 410,70;  720,404;   54,727; 1027,230;68,44984
 411,29;  723,781;   58,628; 1030,847;68,41596
 411,89;  751,677;   60,535; 1093,938;66,88024
 412,48;  764,363;   48,228; 1051,606;71,37240
 413,07;  786,241;   65,033; 1101,446;69,58699
 413,66;  809,513;   78,135; 1102,119;71,42472
 414,25;  821,849;   63,337; 1142,311;70,29932
 414,84;  825,541;   69,431; 1102,434;73,19529
 415,44;  856,517;   91,530; 1155,939;71,86962
 416,03;  851,719;   76,637; 1161,173;71,46669
 416,62;  883,808;   76,138; 1168,687;73,92525
 417,21;  893,553;   75,334; 1158,843;75,51570
 417,80;  901,131;   65,037; 1162,871;76,15852
 418,39;  900,397;   78,440; 1179,201;74,67166
 418,98;  892,924;   55,634; 1143,405;76,97300
 419,58;  899,294;   64,033; 1142,067;77,48005
 420,17;  898,865;   52,735; 1164,540;76,10419
 420,76;  935,419;   72,537; 1192,873;77,01992
 421,35;  928,860;   60,236; 1155,197;79,32919
 421,94;  946,497;   88,340; 1223,501;75,59778
 422,53;  964,461;   61,540; 1195,320;79,63814
 423,12;  968,455;   64,039; 1190,766;80,26934
 423,71;  953,677;   60,835; 1162,138;81,07146
 424,30;  989,972;   85,236; 1210,695;80,38817
 424,90;  927,261;   39,438; 1163,809;78,96174
 425,49;  993,014;   70,140; 1216,242;80,52289
 426,08; 1001,314;   80,240; 1209,641;81,55418
 426,67;  968,442;   57,436; 1168,257;82,01199
 427,26; 1002,244;   60,343; 1230,391;80,50111
 427,85;  998,543;   63,238; 1209,968;81,56278
 428,44; 1036,732;   68,442; 1218,093;84,22470
 429,03; 1043,103;   85,341; 1233,155;83,44222
 429,62; 1026,320;   78,941; 1240,296;81,57536
 430,21; 1048,021;   81,443; 1277,807;80,79296
 430,80; 1052,492;   70,445; 1235,381;84,30056
 431,39; 1036,186;   53,344; 1246,926;82,34389
 431,99; 1063,177;   78,535; 1206,838;87,26756
 432,58; 1062,055;   82,639; 1251,166;83,81632
 433,17; 1069,913;   69,735; 1238,319;85,58886
 433,76; 1092,646;   71,347; 1288,314;83,92168
 434,35; 1117,728;   88,245; 1292,462;85,48981
 434,94; 1127,417;   70,849; 1318,887;84,65833
 435,53; 1128,592;   78,643; 1278,669;87,49379
 436,12; 1099,804;   70,044; 1294,267;84,11538
 436,71; 1123,826;   87,740; 1303,239;85,23956
 437,30; 1137,956;   76,941; 1299,177;86,80931
 437,89; 1175,145;   76,245; 1320,802;88,29648
 438,48; 1173,662;   65,942; 1305,731;89,34743
 439,07; 1172,290;   95,238; 1347,147;86,03281
 439,66; 1180,958;   83,648; 1375,711;84,92697
 440,25; 1190,204;   85,844; 1390,567;84,64324
 440,84; 1222,629;   79,850; 1387,984;87,35946
 441,43; 1211,278;   78,054; 1440,985;83,14605
 442,02; 1201,459;   79,650; 1411,022;84,25957
 442,61; 1229,986;   93,344; 1397,226;87,17366
 443,20; 1239,747;   94,249; 1446,625;84,70261
 443,79; 1212,552;   74,546; 1412,957;85,02664
 444,38; 1277,205;   84,248; 1461,789;86,60045
 444,97; 1273,240;   84,146; 1466,359;86,02823
 445,56; 1298,187;  101,846; 1477,038;86,99448
 446,15; 1296,035;   81,651; 1522,539;84,28029
 446,74; 1275,568;   58,644; 1462,286;86,69765
 447,33; 1314,952;   82,646; 1538,357;84,65319
 447,92; 1326,171;   78,151; 1570,720;83,61556
 448,51; 1358,722;   89,746; 1586,019;84,80914
 449,10; 1362,875;   92,045; 1608,840;83,78387
 449,69; 1369,823;   73,950; 1627,741;83,40074
 450,28; 1382,576;   66,948; 1608,251;85,35812
 450,87; 1410,211;   78,647; 1656,333;84,39981
 451,46; 1449,870;   96,048; 1702,208;84,28932
 452,05; 1480,629;   70,950; 1715,384;85,72425
 452,64; 1478,141;   70,850; 1725,182;85,06703
 453,23; 1554,247;  113,752; 1794,936;85,68338
 453,82; 1540,088;   83,451; 1800,660;84,82585
 454,40; 1554,741;   65,450; 1786,682;86,52472
 454,99; 1611,654;  101,253; 1871,891;85,30265
 455,58; 1612,781;   69,747; 1832,095;87,55561
 456,17; 1663,059;   63,852; 1873,634;88,36465
 456,76; 1670,471;   67,751; 1918,820;86,58347
 457,35; 1730,805;   78,348; 1930,490;89,21873
 457,94; 1752,883;   66,954; 1978,929;88,17739
 458,53; 1794,706;   67,350; 2010,101;88,91288
 459,12; 1884,043;   82,657; 2111,116;88,80565
 459,71; 1848,740;   58,148; 2060,071;89,44364
 460,30; 1922,658;   84,448; 2087,511;91,76995
 460,89; 1948,371;   57,551; 2129,920;91,23954
 461,48; 1980,283;   75,954; 2173,829;90,77422
 462,06; 2004,194;   68,050; 2187,303;91,35971
 462,65; 2000,535;   48,249; 2176,527;91,73075
 463,24; 2118,902;   87,456; 2288,680;92,28707
 463,83; 2133,394;   54,450; 2229,803;95,56809
 464,42; 2184,517;   88,349; 2333,687;93,35646
 465,01; 2207,041;   73,050; 2336,482;94,28121
 465,60; 2245,659;   64,050; 2384,322;94,02382
 466,19; 2312,883;   73,354; 2462,829;93,72476
 466,77; 2330,635;   81,551; 2462,939;94,44428
 467,36; 2364,861;   69,457; 2459,256;96,05007
 467,95; 2395,818;   79,551; 2466,098;97,05514
 468,54; 2435,013;   71,954; 2513,866;96,77083
 469,13; 2463,365;   69,452; 2535,977;97,05611
 469,72; 2470,007;   67,555; 2582,723;95,51855
 470,31; 2506,872;   87,855; 2629,242;95,18490
 470,90; 2530,411;   76,750; 2652,044;95,27694
 471,48; 2527,426;   32,057; 2671,875;94,52804
 472,07; 2603,763;  125,747; 2686,454;96,77079
 472,66; 2631,307;   67,853; 2748,412;95,63130
 473,25; 2636,235;   68,351; 2723,339;96,71925
 473,84; 2665,660;   55,955; 2766,545;96,27813
 474,43; 2664,697;   55,459; 2843,049;93,60193
 475,01; 2697,395;   69,254; 2885,926;93,30661
 475,60; 2701,625;   49,755; 2882,364;93,61935
 476,19; 2715,420;   74,158; 2956,932;91,62222
 476,78; 2741,661;   71,057; 2964,456;92,29987
 477,37; 2698,325;   59,355; 2945,364;91,44012
 477,95; 2735,037;   75,656; 3018,661;90,36276
 478,54; 2724,454;   63,253; 3023,691;89,89214
 479,13; 2726,354;   56,253; 3070,291;88,58884
 479,72; 2728,548;   81,154; 3090,147;87,98271
 480,31; 2739,862;   63,459; 3167,468;86,22407
 480,89; 2671,595;   60,254; 3171,026;83,94511
 481,48; 2700,638;   46,260; 3214,084;83,79185
 482,07; 2680,013;   61,654; 3233,866;82,54046
 482,66; 2639,436;   52,853; 3253,650;80,81060
 483,25; 2691,638;   78,960; 3319,884;80,61523
 483,83; 2670,578;   59,954; 3325,385;79,94728
 484,42; 2673,183;   54,354; 3355,129;79,33984
 485,01; 2652,955;   65,958; 3400,413;77,58381
 485,60; 2679,863;   73,764; 3490,590;76,27251
 486,18; 2663,637;   66,956; 3490,761;75,84196
 486,77; 2673,847;   67,252; 3519,736;75,49913
 487,36; 2695,146;   58,464; 3561,750;75,26310
 487,95; 2707,950;   59,161; 3640,781;73,95506
 488,53; 2717,368;   54,461; 3642,522;74,21576
 489,12; 2732,634;   50,563; 3722,252;73,04731
 489,71; 2696,010;   38,062; 3680,357;72,97452
 490,30; 2756,703;   61,460; 3742,503;73,21954
 490,88; 2800,033;   87,561; 3859,141;71,91871
 491,47; 2820,316;   60,663; 3867,512;72,49179
 492,06; 2850,104;   62,563; 3920,615;72,25256
 492,65; 2857,397;   59,161; 3947,060;71,97297
 493,23; 2888,656;   54,860; 3982,825;72,14413
 493,82; 2916,971;   65,853; 4018,031;72,14044
 494,41; 2939,962;   51,361; 4066,179;71,94850
 494,99; 2972,660;   73,655; 4126,945;71,52228
 495,58; 3007,503;   86,060; 4224,403;70,59451
 496,17; 2976,002;   56,356; 4198,681;70,48327
 496,76; 3036,637;   65,356; 4276,761;70,55320
 497,34; 3026,808;   54,557; 4305,235;69,92417
 497,93; 3038,226;   66,057; 4350,675;69,36834
 498,52; 3077,626;   60,059; 4454,387;68,66960
 499,10; 3071,092;   75,862; 4533,217;67,19748
 499,69; 3078,391;   55,360; 4537,006;67,45359
 500,28; 3063,862;   37,959; 4592,068;66,44335
 500,86; 3098,645;   62,862; 4698,539;65,48738
 501,45; 3074,345;   53,462; 4730,438;64,59051
 502,04; 3119,610;   53,362; 4813,958;64,40891
 502,62; 3120,202;   70,956; 4856,181;63,72210
 503,21; 3086,667;   57,856; 4939,699;62,04235
 503,80; 3091,274;   69,662; 5015,577;61,09310
 504,38; 3094,956;   58,460; 5081,425;60,45227
 504,97; 3086,474;   49,962; 5122,776;59,85853
 505,56; 3106,014;   70,859; 5194,989;59,23260
 506,14; 3058,428;   64,064; 5263,709;57,58785
 506,73; 3010,040;   23,565; 5292,507;56,68073
 507,32; 3024,770;   62,865; 5376,045;55,74636
 507,90; 3007,738;   70,860; 5443,284;54,66579
 508,49; 2970,522;   58,865; 5500,366;53,50835
 509,08; 3000,681;   67,264; 5571,931;53,28963
 509,66; 2973,321;   69,960; 5677,644;51,77469
 510,25; 2949,415;   63,561; 5737,400;50,86246
 510,83; 2901,640;   45,165; 5855,607;49,16106
 511,42; 2938,665;   61,968; 5895,913;49,30962
 512,01; 2886,993;   59,164; 5980,328;47,75798
 512,59; 2869,674;   46,562; 6041,676;47,09022
 513,18; 2899,262;   59,961; 6114,379;46,89635
 513,77; 2857,979;   42,257; 6171,797;45,93692
 514,35; 2849,521;   37,763; 6190,255;45,70114
 514,94; 2845,492;   58,662; 6323,517;44,48355
 515,52; 2812,481;   48,166; 6358,342;43,80726
 516,11; 2860,857;   80,665; 6474,047;43,48548
 516,69; 2835,444;   41,959; 6446,727;43,61571
 517,28; 2842,838;   83,358; 6541,973;42,72557
 517,87; 2854,773;   45,558; 6604,054;42,83322
 518,45; 2868,402;   74,858; 6626,192;42,64085
 519,04; 2846,450;   54,258; 6707,970;41,96442
 519,62; 2857,004;   55,863; 6774,114;41,69450
 520,21; 2850,264;   24,466; 6828,002;41,53425
 520,79; 2920,235;   52,068; 7000,875;41,27568
 521,38; 2909,086;   52,960; 6995,363;41,14030
 521,97; 2922,882;   43,068; 7141,554;40,56941
 522,55; 2934,632;   67,759; 7195,230;40,22287
 523,14; 2958,814;   26,759; 7180,289;40,98753
 523,72; 3013,268;   77,561; 7383,422;40,18291
 524,31; 3072,040;   71,665; 7406,107;40,90802
 524,89; 3067,052;   48,468; 7526,815;40,36433
 525,48; 3114,311;   21,666; 7603,580;40,78976
 526,06; 3189,393;   56,264; 7633,128;41,35125
 526,65; 3279,700;   72,370; 7803,105;41,48804
 527,23; 3318,639;   46,262; 7840,596;41,98405
 527,82; 3450,623;   37,967; 7905,978;43,37381
 528,41; 3565,329;   67,366; 8041,021;43,86900
 528,99; 3660,822;   66,365; 8108,167;44,69717
 529,58; 3762,157;   42,562; 8168,736;45,77301
 530,16; 3884,962;   49,461; 8315,379;46,40139
 530,75; 4083,910;   73,964; 8417,069;48,06300
 531,33; 4146,011;   45,566; 8440,980;48,84148
 531,92; 4285,721;   48,560; 8567,344;49,73903
 532,50; 4437,671;   87,770; 8706,468;50,47051
 533,09; 4549,452;   65,665; 8807,204;51,29287
 533,67; 4638,267;   63,458; 8952,011;51,46855
 534,26; 4709,074;   65,760; 9007,665;51,92757
 534,84; 4860,598;   68,461; 9127,061;52,90152
 535,42; 4901,910;   61,564; 9205,969;52,93233
 536,01; 4995,604;   79,263; 9330,215;53,14417
 536,59; 5071,864;   43,366; 9482,202;53,27455
 537,18; 5177,291;   77,360; 9568,605;53,73300
 537,76; 5240,924;   56,972; 9764,700;53,40026
 538,35; 5273,400;   59,368; 9892,694;53,02409
 538,93; 5345,593;   72,664; 9941,828;53,42832
 539,52; 5424,101;   57,370;10111,405;53,37887
 540,10; 5475,841;   63,269;10309,029;52,82743
 540,69; 5552,398;   68,763;10444,071;52,85274
 541,27; 5572,292;   58,262;10514,917;52,73226
 541,85; 5682,199;   47,366;10658,783;53,10161
 542,44; 5729,338;   56,460;10765,484;52,97288
 543,02; 5859,042;   80,369;10952,729;53,15012
 543,61; 5854,940;   77,067;11102,218;52,40630
 544,19; 5901,717;   55,066;11264,023;52,16052
 544,78; 6010,446;   62,766;11296,562;52,94453
 545,36; 6052,376;   77,469;11521,011;52,21205
 545,94; 6098,810;   54,564;11563,069;52,51982
 546,53; 6148,060;   52,771;11724,882;52,22096
 547,11; 6263,247;   90,668;11879,873;52,35789
 547,70; 6283,491;   75,860;11954,706;52,25787
 548,28; 6342,622;   47,965;12093,066;52,25906
 548,86; 6408,522;   81,365;12327,767;51,66544
 549,45; 6431,082;   33,768;12364,953;51,87915
 550,03; 6501,105;   76,467;12507,537;51,68210
 550,62; 6640,582;   63,566;12662,842;52,20154
 551,20; 6693,940;   61,467;12808,418;52,03184
 551,78; 6745,646;   61,164;12952,850;51,85111
 552,37; 6815,910;   55,864;13112,469;51,77492
 552,95; 6862,657;   56,765;13214,547;51,72523
 553,54; 6962,740;   49,965;13393,207;51,80731
 554,12; 7009,988;   67,167;13498,797;51,69008
 554,70; 7096,247;   67,568;13736,973;51,41906
 555,29; 7189,887;   61,965;13856,285;51,67288
 555,87; 7203,036;   60,170;13987,786;51,28563
 556,45; 7181,709;   57,162;14154,058;50,53983
 557,04; 7347,676;   43,667;14376,600;50,95963
 557,62; 7425,776;   68,867;14525,499;50,88951
 558,20; 7542,642;   42,671;14799,940;50,82221
 558,79; 7638,135;  100,368;14905,875;50,91191
 559,37; 7622,841;   49,867;15000,418;50,65348
 559,95; 7698,312;   46,669;15169,691;50,59599
 560,54; 7745,665;   71,768;15324,613;50,31125
 561,12; 7843,146;   50,866;15485,562;50,48548
 561,70; 7945,294;   50,369;15679,551;50,51400
 562,29; 7998,100;   61,768;15810,994;50,39188
 562,87; 8028,982;   73,168;16023,953;49,87726
 563,45; 8129,982;   71,068;16194,754;49,98184
 564,04; 8153,439;   54,362;16227,195;50,07828
 564,62; 8203,229;   37,769;16438,332;49,78769
 565,20; 8282,545;   59,962;16715,838;49,36746
 565,78; 8398,604;   70,765;16797,326;49,78812
 566,37; 8438,699;   71,066;17011,283;49,39508
 566,95; 8529,142;   52,969;17124,330;49,65142
 567,53; 8560,909;   67,262;17308,857;49,26254
 568,12; 8561,022;   62,265;17367,766;49,11015
 568,70; 8712,475;   85,264;17565,889;49,35299
 569,28; 8779,694;   61,069;17745,252;49,30183
 569,86; 8816,559;   67,767;17910,758;49,03209
 570,45; 8987,124;   78,569;18124,689;49,36548
 571,03; 8969,627;   53,962;18259,898;48,97120
 571,61; 9095,465;   46,571;18424,824;49,23696
 572,19; 9109,586;   54,263;18395,773;49,37065
 572,78; 9130,935;   70,668;18668,975;48,71555
 573,36; 9287,910;   84,264;18797,668;49,18211
 573,94; 9286,546;   44,064;18892,750;49,03515
 574,52; 9279,562;   54,559;19030,768;48,61352
 575,11; 9377,181;   37,264;19159,830;48,84238
 575,69; 9486,911;   53,566;19268,680;49,09336
 576,27; 9534,551;   47,161;19391,381;49,04509
 576,85; 9608,511;   43,264;19549,668;49,03644
 577,44; 9686,510;   30,262;19814,158;48,80863
 578,02; 9666,826;   32,159;19753,887;48,85306
 578,60; 9802,463;   50,464;20073,791;48,70319
 579,18; 9849,533;   51,963;20160,752;48,72283
 579,76; 9881,093;   40,264;20300,129;48,57302
 580,35; 9961,488;   60,170;20436,707;48,59176
 580,93;10029,870;   59,667;20641,557;48,44163
 581,51;10057,871;   24,770;20697,168;48,53380
 582,09;10165,222;   58,663;20755,756;48,83081
 582,67;10316,341;   49,567;20971,318;49,07225
 583,26;10335,265;   28,568;21227,014;48,62006
 583,84;10353,528;   14,164;21413,709;48,31581
 584,42;10422,075;   48,064;21513,287;48,32939
 585,00;10523,411;   81,366;21772,180;48,14040
 585,58;10626,076;   25,167;21912,299;48,43444
 586,17;10656,768;   46,761;21948,521;48,44363
 586,75;10614,164;    6,666;22026,902;48,17159
 587,33;10785,023;   47,767;22191,678;48,48853
 587,91;10805,063;   74,866;22390,201;48,08441
 588,49;10862,909;   63,962;22349,758;48,45664
 589,07;10791,853;   45,468;22403,215;48,06560
 589,65;10763,193;   28,267;22444,439;47,88920
 590,24;10808,027;   42,562;22447,799;48,04888
 590,82;10791,798;   28,261;22484,160;47,93189
 591,40;10805,428;   41,464;22520,209;47,88507
 591,98;10765,144;   45,759;22558,227;47,61532
 592,56;10775,397;   61,161;22699,961;47,32687
 593,14;10768,744;   43,359;22728,928;47,27845
 593,72;10817,140;   29,765;22889,107;47,19022
 594,30;10858,026;   36,759;22797,486;47,54359
 594,89;10858,893;   41,364;22862,428;47,40151
 595,47;10873,168;   38,961;22922,623;47,34473
 596,05;10777,376;   30,267;23003,799;46,78040
 596,63;10824,676;   31,167;23056,199;46,87728
 597,21;10832,682;   36,766;23145,441;46,71802
 597,79;10790,693;   35,467;23166,039;46,49788
 598,37;10796,706;   36,669;23222,748;46,40732
 598,95;10784,264;   50,766;23305,301;46,15658
 599,53;10675,578;   46,757;23207,996;45,89056
 600,11;10681,258;   48,665;23341,947;45,64661
 600,70;10592,815;   57,363;23315,111;45,29868
 601,28;10552,128;   38,564;23424,809;44,95619
 601,86;10434,364;   61,766;23355,102;44,53033
 602,44;10340,497;   23,661;23449,660;44,04011
 603,02;10349,319;   38,656;23576,521;43,80458
 603,60;10285,021;   54,858;23663,232;43,33277
 604,18;10133,568;   69,263;23594,734;42,78046
 604,76; 9918,922;   59,263;23642,154;41,80853
 605,34; 9706,935;   27,565;23530,764;41,18320
 605,92; 9533,580;   59,561;23453,719;40,49737
 606,50; 9279,127;   17,662;23498,998;39,44182
 607,08; 9073,611;   31,666;23394,881;38,70163
 607,66; 9016,481;   39,266;23561,643;38,16458
 608,24; 8782,059;   46,067;23522,059;37,21245
 608,82; 8753,881;   26,164;23532,031;37,12995
 609,40; 8684,129;   46,466;23471,021;36,87439
 609,98; 8668,893;   18,864;23505,928;36,82891
 610,56; 8842,686;   43,861;23497,662;37,51556
 611,14; 8934,188;   30,765;23481,086;37,96717
 611,72; 9072,622;   42,665;23572,467;38,37668
 612,30; 9217,739;   24,962;23468,496;39,21242
 612,88; 9506,732;   60,659;23517,730;40,26962
 613,46; 9503,627;   21,862;23505,697;40,37571
 614,04; 9658,247;   30,068;23461,873;41,09021
 614,62; 9745,051;   41,561;23489,982;41,38227
 615,20; 9918,853;   52,768;23402,416;42,25368
 615,78; 9871,941;   25,569;23463,430;42,01054
 616,36; 9904,346;   41,364;23400,150;42,22386
 616,94; 9897,382;    7,666;23272,242;42,50976
 617,52; 9944,170;   24,067;23373,656;42,48513
 618,10; 9949,879;   63,559;23336,107;42,48061
 618,68; 9920,499;   17,966;23253,184;42,61864
 619,26; 9882,117;   39,268;23398,834;42,13627
 619,84; 9697,669;   18,963;23277,133;41,61422
 620,42; 9713,540;   31,165;23313,506;41,58678
 621,00; 9578,439;   28,865;23209,607;41,19616
 621,58; 9521,191;   38,760;23216,406;40,91197
 622,16; 9428,983;   49,270;23335,164;40,28067
 622,74; 9422,581;   47,066;23327,742;40,27166
 623,32; 9253,717;   42,166;23291,223;39,62118
 623,90; 9108,348;   66,971;23311,484;38,89682
 624,48; 8996,228;   32,662;23196,598;38,69621
 625,05; 8903,327;   34,562;23105,098;38,44196
 625,63; 8878,527;   52,962;23188,799;38,14673
 626,21; 8745,939;   38,262;23117,596;37,72933
 626,79; 8760,041;   53,967;23219,719;37,58166
 627,37; 8607,792;   28,162;23090,717;37,20156
 627,95; 8641,652;   72,768;23200,215;37,05072
 628,53; 8556,840;   49,365;23176,607;36,78551
 629,11; 8472,297;   48,259;23043,449;36,63391
 629,69; 8488,430;   53,369;23256,932;36,35244
 630,27; 8457,269;   80,763;23105,434;36,38057
 630,84; 8357,327;   43,862;23021,197;36,18116
 631,42; 8332,170;   54,367;23319,656;35,58005
 632,00; 8346,762;   45,459;23125,768;35,96703
 632,58; 8236,498;   50,263;23105,172;35,50756
 633,16; 8235,200;   49,870;23096,906;35,51576
 633,74; 8114,375;   56,264;23018,488;35,09290
 634,32; 7997,033;   45,661;23007,842;34,62812
 634,90; 8047,718;   51,970;23195,746;34,54816
 635,47; 7978,521;   38,860;23035,645;34,52509
 636,05; 7911,633;   37,461;22989,342;34,30731
 636,63; 7906,840;   45,965;23104,807;34,09050
 637,21; 7980,792;   67,464;23150,529;34,28196
 637,79; 8007,252;   71,465;23192,904;34,32220
 638,37; 7932,090;   54,055;23070,883;34,22728
 638,94; 8012,787;   33,265;23100,686;34,59217
 639,52; 8017,187;   41,665;23195,285;34,44611
 640,10; 8108,467;   64,264;23215,900;34,74572
 640,68; 8199,725;   54,164;23175,334;35,22988
 641,26; 8141,282;   35,864;23250,268;34,91547
 641,84; 8251,539;   39,164;23235,002;35,40452
 642,41; 8242,796;   28,264;23192,936;35,46147
 642,99; 8265,354;   48,464;23145,568;35,57541
 643,57; 8291,410;   22,064;23158,402;35,74181
 644,15; 8275,167;   27,064;23178,035;35,62746
 644,73; 8319,625;   37,564;23277,568;35,63709
 645,30; 8278,981;   55,264;23230,303;35,48524
 645,88; 8225,639;   44,964;23362,635;35,08358
 646,46; 8146,796;   59,264;23447,568;34,57938
 647,04; 8088,953;   51,864;23367,902;34,47022
 647,61; 7983,510;   46,564;23396,336;33,99154
 648,19; 7985,467;   61,664;23433,369;33,90340
 648,77; 7868,225;   26,264;23442,002;33,49013
 649,35; 7819,182;   51,064;23590,137;33,00095
 649,92; 7700,139;   42,464;23596,070;32,51169
 650,50; 7620,296;   30,064;23551,104;32,26997
 651,08; 7544,353;   39,964;23450,537;32,05555
 651,66; 7519,210;   21,864;23534,770;31,88609
 652,23; 7479,467;   39,064;23561,004;31,63176
 652,81; 7479,024;   36,464;23644,137;31,52602
 653,39; 7490,882;   56,164;23647,170;31,51505
 653,97; 7518,039;   37,065;23882,504;31,37277
 654,54; 7499,096;   23,565;23823,137;31,41036
 655,12; 7592,953;   30,965;23831,971;31,77172
 655,70; 7689,811;   42,065;23962,805;31,97119
 656,28; 7758,868;   32,765;23947,037;32,30750
 656,85; 7765,225;   44,065;24051,070;32,16211
 657,43; 7816,582;   -1,035;23831,305;32,80256
 658,01; 7951,139;   21,465;24078,539;32,96192
 658,58; 8030,496;   55,165;24234,371;32,98426
 659,16; 7983,853;   51,965;24154,105;32,90948
 659,74; 8091,311;   59,465;24338,039;33,08203
 660,32; 8113,067;   71,665;24327,672;33,15221
 660,89; 8029,524;   34,265;24347,305;32,88466
 661,47; 8141,582;   51,665;24464,939;33,13737
 662,05; 8105,239;   25,365;24587,373;32,89582
 662,62; 8112,496;   59,665;24584,006;32,83608
 663,20; 8105,953;   80,665;24740,139;32,54444
 663,78; 8148,910;   47,965;24902,773;32,59307
 664,35; 8119,067;   52,465;24921,006;32,43698
 664,93; 8090,025;   64,465;25123,539;32,02656
 665,51; 8130,582;   49,565;25170,973;32,16785
 666,08; 8138,639;   30,165;25185,707;32,23335
 666,66; 8261,996;   47,465;25667,539;32,06287
 667,23; 8285,354;   51,765;25732,773;32,06100
 667,81; 8421,811;   65,865;25889,307;32,35799
 668,39; 8404,968;   43,265;26047,141;32,15560
 668,96; 8590,825;   54,665;26309,074;32,51324
 669,54; 8631,182;   38,765;26408,408;32,58450
 670,12; 8763,539;   51,165;26808,740;32,56040
 670,69; 8958,696;   64,165;26950,674;33,08176
 671,27; 9087,753;   25,565;27096,008;33,47632
 671,84; 9103,211;   40,665;27105,240;33,48490
 672,42; 9307,567;   66,265;27253,875;33,99086
 673,00; 9388,425;   57,165;27531,408;33,96366
 673,57; 9360,582;   59,965;27276,441;34,17274
 674,15; 9495,039;   64,065;27613,475;34,23294
 674,72; 9456,196;   58,565;27536,209;34,20101
 675,30; 9591,253;   69,466;27513,541;34,69524
 675,88; 9563,311;   36,266;27573,176;34,59736
 676,45; 9504,067;   59,466;27677,309;34,19746
 677,03; 9525,225;   67,866;27525,043;34,44403
 677,60; 9508,182;   41,466;27770,576;34,13999
 678,18; 9543,839;   59,466;27877,510;34,09432
 678,76; 9499,396;   40,766;27809,143;34,06260
 679,33; 9512,453;   57,666;27813,176;34,06454
 679,91; 9471,311;   44,266;27813,311;33,94803
 680,48; 9386,168;   28,766;27740,242;33,76725
 681,06; 9500,825;   50,866;27735,176;34,13471
 681,63; 9406,382;   37,566;27736,209;33,82410
 682,21; 9411,939;   67,966;27797,543;33,69678
 682,78; 9356,996;   20,566;27459,576;34,02612
 683,36; 9475,953;   46,966;27565,510;34,26412
 683,93; 9417,511;   30,466;27450,645;34,23408
 684,51; 9473,468;   26,166;27477,277;34,41501
 685,08; 9660,125;   38,966;27733,711;34,74002
 685,66; 9700,982;   53,066;27694,045;34,90439
 686,24; 9733,939;   33,766;27796,578;34,93945
 686,81; 9833,097;   57,666;27899,910;35,11007
 687,39; 9939,854;   38,866;27807,844;35,65485
 687,96;10035,011;   54,166;27850,479;35,90708
 688,54;10169,868;   30,866;27984,811;36,27038
 689,11;10269,925;   26,966;28043,545;36,56035
 689,69;10262,282;   29,666;28019,279;36,55862
 690,26;10378,439;   59,466;28289,313;36,55342
 690,84;10398,796;   50,066;28239,846;36,71093
 691,41;10501,453;   35,966;28403,879;36,89199
 691,98;10567,410;   31,466;28427,912;37,10304
 692,56;10649,268;   32,866;28437,445;37,37567
 693,13;10725,025;   64,866;28655,080;37,28604
 693,71;10732,682;   24,466;28657,912;37,39758
 694,28;10785,239;   41,966;28715,945;37,46698
 694,86;10848,796;   47,266;28928,879;37,39933
 695,43;10819,054;   61,366;29100,912;37,04496
 696,01;10880,110;   36,266;29145,547;37,25219
 696,58;10841,768;   42,167;29083,879;37,18652
 697,16;10871,725;   38,067;29126,414;37,24398
 697,73;10995,282;   63,467;29338,246;37,34209
 698,30;11072,640;   51,867;29223,980;37,77845
 698,88;11127,896;   40,467;29558,613;37,56140
 699,45;11213,254;   35,367;29765,848;37,59740
 700,03;11285,411;   56,067;29750,980;37,81572
 700,60;11317,668;   56,267;29850,613;37,79711
 701,18;11395,825;   61,867;29963,947;37,90358
 701,75;11656,582;   74,367;30094,682;38,58126
 702,32;11603,239;   50,367;29901,914;38,70108
 702,90;11745,196;   52,467;30254,148;38,71549
 703,47;11827,153;   51,367;30428,881;38,76481
 704,05;11862,911;   67,767;30546,715;38,69932
 704,62;11970,368;   39,867;30587,848;39,05496
 705,19;12130,525;   43,667;30586,982;39,57284
 705,77;12225,282;   29,967;30618,314;39,86915
 706,34;12334,039;   61,667;30627,049;40,15121
 706,91;12428,196;   46,367;30673,883;40,42714
 707,49;12463,453;   57,267;30976,316;40,12473
 708,06;12575,911;   66,367;31089,049;40,32386
 708,64;12595,468;   25,767;31093,582;40,45891
 709,21;12725,825;   58,167;31179,316;40,70434
 709,78;12708,982;   41,367;31281,150;40,54963
 710,36;12738,739;   61,667;31419,684;40,42689
 710,93;12794,496;   50,567;31562,416;40,44170
 711,50;12877,653;   44,467;31506,049;40,79002
 712,08;12986,110;   76,567;31925,383;40,53382
 712,65;13006,368;   73,667;31775,916;40,79427
 713,22;13020,825;   69,067;31900,250;40,68890
 713,80;13079,082;   84,167;31966,883;40,75849
 714,37;12972,340;   55,767;31827,018;40,65491
 714,94;13094,196;   53,967;31727,551;41,17068
 715,52;13036,254;   47,867;31732,984;40,99207
 716,09;13192,311;   65,467;31891,918;41,24507
 716,66;13240,668;   73,467;31935,051;41,32626
 717,23;13219,226;   66,867;31908,484;41,30556
 717,81;13242,683;   50,168;31812,018;41,53573
 718,38;13203,539;   47,468;31671,252;41,60183
 718,95;13174,496;   59,068;31618,984;41,55723
 719,53;13265,153;   56,568;31661,418;41,79291
 720,10;13279,111;   59,968;31481,252;42,07067
 720,67;13223,668;   35,768;31355,984;42,10667
 721,24;13162,125;   59,468;31256,020;42,00034
 721,82;13227,482;   49,968;31236,053;42,25447
 722,39;13385,840;   64,068;31235,885;42,73659
 722,96;13424,297;   64,968;31261,420;42,82323
 723,53;13467,354;   88,268;31151,953;43,06986
 724,11;13492,611;   61,568;31207,486;43,12296
 724,68;13573,968;   71,568;31242,020;43,31795
 725,25;13568,125;   72,768;31399,953;43,07874
 725,82;13742,482;   96,068;31564,387;43,36557
 726,40;13723,140;   62,668;31714,820;43,15811
 726,97;13817,797;   62,168;31875,354;43,23877
 727,54;13867,653;   46,968;31801,486;43,52352
 728,11;14017,711;   49,568;32045,820;43,65556
 728,69;13879,368;   39,568;31938,953;43,38579
 729,26;14006,525;   53,568;32105,088;43,53290
 729,83;14108,282;   53,268;32264,621;43,63373
 730,40;14226,140;   66,768;32291,754;43,93911
 730,97;14340,097;   44,268;32590,588;43,92456
 731,55;14387,554;   41,468;32755,820;43,85257
 732,12;14395,411;   86,268;32841,656;43,68485
 732,69;14400,368;   66,968;32889,988;43,66874
 733,26;14401,825;   55,168;32930,520;43,63955
 733,83;14548,282;   41,168;32979,055;44,04385
 734,41;14647,539;   65,468;32991,590;44,28724
 734,98;14692,196;   51,368;33155,621;44,22643
 735,55;14815,054;   43,168;33183,656;44,57353
 736,12;14856,011;   65,968;33377,289;44,39945
 736,69;14984,769;   76,968;33377,922;44,76689
 737,26;14967,125;   57,468;33552,254;44,51337
 737,84;15011,482;   70,768;33487,188;44,71070
 738,41;15072,840;   63,168;33492,422;44,89981
 738,98;15045,396;   63,569;33375,055;44,97496
 739,55;15079,554;   49,669;33377,789;45,09671
 740,12;15173,511;   62,969;33678,023;44,95171
 740,69;15234,968;   70,569;33575,656;45,25999
 741,26;15341,426;   56,269;33557,391;45,62581
 741,83;15307,383;   53,869;33719,523;45,30883
 742,41;15421,140;   56,169;33833,055;45,48960
 742,98;15468,196;   91,469;33874,590;45,51601
 743,55;15411,854;   53,569;33836,824;45,46123
 744,12;15404,812;   50,469;33859,855;45,41444
 744,69;15514,269;   59,569;33848,492;45,73895
 745,26;15496,926;   42,169;33677,723;45,94768
 745,83;15504,982;   58,769;33854,355;45,70482
 746,40;15675,439;   57,969;33844,789;46,22356
 746,97;15597,396;   44,769;33828,125;46,03636
 747,55;15606,654;   62,269;33966,957;45,84730
 748,12;15675,711;   57,869;33910,191;46,13522
 748,69;15635,068;   68,769;33877,625;46,04208
 749,26;15630,025;   65,069;33958,559;45,92315
 749,83;15612,583;   42,569;33911,992;45,97071
 750,40;15691,640;   89,669;34158,824;45,79500
 750,97;15744,497;   96,269;34144,160;45,95946
 751,54;15641,154;   40,569;33980,793;45,96489
 752,11;15631,812;   52,969;33874,727;46,06160
 752,68;15666,269;   87,869;33912,859;46,05589
 753,25;15611,825;   60,269;33774,594;46,12744
 753,82;15606,583;   65,069;33810,527;46,05513
 754,39;15740,840;   75,169;33727,160;46,55199
 754,96;15693,597;   60,069;33616,395;46,58891
 755,53;15721,854;   29,469;33796,527;46,47246
 756,10;15669,411;   64,169;33720,961;46,36580
 756,67;15721,269;   73,369;33813,395;46,37785
 757,24;15746,525;   72,769;33740,426;46,55434
 757,81;15632,583;   16,469;33677,762;46,39190
 758,38;15755,939;   54,569;33822,695;46,49761
 758,95;15775,597;   79,469;33743,426;46,62591
 759,52;15681,754;   57,469;33615,859;46,55850
 760,09;15569,011;   68,570;33306,992;46,63411
 760,66;15587,068;   59,570;33309,727;46,69902
 761,23;15509,525;   91,070;33353,961;46,35332
 761,80;15483,683;   56,270;33295,793;46,41286
 762,37;15514,640;   68,970;33167,727;46,66541
 762,94;15618,396;   70,970;33187,461;46,94769
 763,51;15472,754;   36,070;32949,793;46,90045
 764,08;15461,911;   66,270;32998,527;46,74943
 764,65;15506,969;   69,570;32798,961;47,16678
 765,22;15474,426;   54,670;32804,496;47,08347
 765,79;15413,583;   77,370;32691,928;47,02260
 766,36;15454,540;   73,170;32743,063;47,08118
 766,93;15374,197;   68,970;32551,295;47,11863
 767,50;15428,454;   89,470;32828,328;46,85253
 768,07;15422,812;   63,870;32699,262;47,06223
 768,64;15307,168;   86,470;32572,596;46,85292
 769,21;15159,726;   57,970;32359,729;46,75212
 769,78;15190,782;   78,770;32244,963;46,98104
 770,34;14980,540;   45,570;32031,195;46,69276
 770,91;15108,897;   58,470;31921,430;47,23487
 771,48;15083,554;   62,370;31836,863;47,27435
 772,05;14986,512;   66,470;31610,697;47,29880
 772,62;14858,068;   42,670;31443,029;47,18226
 773,19;14864,726;   59,370;31579,764;46,97072
 773,76;14744,083;   71,070;31506,297;46,67697
 774,33;14753,640;   74,170;31447,330;46,78990
 774,90;14624,597;   52,870;31206,064;46,77442
 775,47;14623,754;   59,970;30957,498;47,13576
 776,03;14620,211;   73,470;30984,330;47,06029
 776,60;14516,868;   55,970;30757,863;47,10100
 777,17;14503,226;   65,470;30698,098;47,13195
 777,74;14424,783;   30,870;30522,031;47,20684
 778,31;14409,240;   68,970;30582,064;46,99710
 778,88;14336,597;   30,470;30366,898;47,15824
 779,45;14323,654;   75,770;30358,131;47,05011
 780,01;14228,211;   58,370;30299,664;46,85593
 780,58;14190,669;   60,570;30177,998;46,91668
 781,15;14043,825;   38,771;29979,432;46,77604
 781,72;14009,982;   66,771;29962,266;46,63984
 782,29;13935,540;   51,771;29667,100;46,88035
 782,86;13966,997;   55,571;29617,732;47,05822
 783,42;13989,254;   56,171;29598,166;47,16365
 783,99;14009,111;   66,671;29482,100;47,39839
 784,56;13831,368;   55,171;29320,232;47,07387
 785,13;13787,025;   40,271;29247,266;47,06665
 785,70;13677,683;   49,071;29060,299;46,97703
 786,26;13637,340;   51,671;28910,732;47,07592
 786,83;13647,597;   84,371;28889,166;47,08669
 787,40;13543,555;   57,171;28783,500;46,94781
 787,97;13435,012;   43,971;28581,133;46,92492
 788,54;13454,368;   70,371;28515,268;47,05237
 789,10;13396,726;   57,971;28344,400;47,15602
 789,67;13233,783;   70,371;28245,334;46,72025
 790,24;13134,340;   51,071;28193,768;46,48904
 790,81;13083,997;   88,271;27914,400;46,70332
 791,37;13054,854;   73,671;27872,135;46,69749
 791,94;12972,411;   70,771;27886,367;46,38276
 792,51;12951,368;   46,271;27539,201;46,93969
 793,08;12889,525;   69,771;27555,234;46,64194
 793,64;12823,083;   71,271;27455,168;46,56683
 794,21;12826,940;   69,671;27250,602;46,93463
 794,78;12765,497;   53,071;27147,035;46,91977
 795,35;12546,454;   73,471;27007,969;46,30858
 795,91;12452,212;   48,071;26789,301;46,38583
 796,48;12505,169;   55,771;26710,734;46,70574
 797,05;12385,826;   57,671;26624,369;46,40454
 797,62;12324,683;   41,971;26600,701;46,24736
 798,18;12208,540;   57,471;26410,736;46,10840
 798,75;12217,397;   56,571;26279,770;46,37431
 799,32;12205,654;   60,771;26209,102;46,44611
 799,88;12165,411;   55,971;26051,535;46,58272
 800,45;12063,869;   33,971;25945,270;46,42723
 801,02;12011,025;   65,271;25880,104;46,27477
 801,58;11947,683;   90,872;25660,436;46,37080
 802,15;11828,340;   72,872;25615,270;46,02335
 802,72;11839,598;   66,172;25404,703;46,46452
 803,28;11713,555;   49,172;25288,938;46,21431
 803,85;11629,012;   41,972;25144,871;46,15817
 804,42;11609,469;   77,772;24948,004;46,36747
 804,98;11610,426;  100,672;24935,537;46,34514
 805,55;11426,183;   56,972;24702,371;46,13117
 806,12;11323,440;   83,572;24611,004;45,82570
 806,68;11289,397;   66,472;24493,738;45,94426
 807,25;11243,255;   74,972;24436,271;45,84436
 807,82;11207,911;   86,872;24407,805;45,72620
 808,38;11156,269;   73,672;24367,037;45,61985
 808,95;11176,126;   62,972;24166,971;46,10502
 809,52;11054,483;   50,272;24162,004;45,63841
 810,08;10991,440;   55,172;23994,938;45,68244
 810,65;11008,598;   77,172;24169,672;45,37273
 811,21;11059,854;   69,972;24123,404;45,68946
 811,78;11049,512;   92,472;24337,539;45,19286
 812,35;11019,669;   64,972;24173,871;45,43840
 812,91;11087,526;   90,072;24239,705;45,53881
 813,48;11113,883;   68,172;24202,738;45,76718
 814,04;10985,641;   64,172;24088,373;45,46028
 814,61;10945,297;   77,572;24176,006;45,09722
 815,18;10856,654;   67,772;23892,539;45,28431
 815,74;10920,412;   69,772;23709,172;45,90066
 816,31;10803,469;   83,372;23614,406;45,55727
 816,87;10649,726;   43,272;23489,641;45,23708
 817,44;10724,983;   76,972;23452,273;45,55240
 818,00;10545,940;   43,272;23159,506;45,43417
 818,57;10512,598;   71,872;23076,340;45,38564
 819,14;10434,055;   82,872;22924,273;45,31763
 819,70;10403,412;   72,672;22792,707;45,46974
 820,27;10339,869;   62,972;22691,941;45,41478
 820,83;10306,926;   70,072;22541,373;45,55523
 821,40;10256,983;   98,072;22431,908;45,48664
 821,96;10156,940;   75,272;22315,541;45,33069
 822,53;10054,598;   70,973;22257,574;44,99844
 823,09;10009,555;   81,073;22073,309;45,14540
 823,66; 9964,712;   68,173;21862,541;45,40870
 824,22; 9932,469;   77,173;21851,674;45,26072
 824,79; 9757,726;   75,473;21561,408;45,06321
 825,35; 9761,184;   65,173;21648,041;44,92457
 825,92; 9664,740;   75,173;21398,875;44,97140
 826,48; 9567,197;   87,673;21501,309;44,26864
 827,05; 9453,854;   89,573;21448,242;43,84300
 827,61; 9440,712;   75,273;21249,076;44,23126
 828,18; 9404,969;   60,873;21191,209;44,22124
 828,74; 9382,226;   91,673;21053,543;44,32120
 829,31; 9327,983;   83,373;21002,176;44,19283
 829,87; 9239,141;   73,073;20733,709;44,36489
 830,44; 9239,897;   85,173;20631,443;44,55662
 831,00; 9208,755;   91,273;20673,977;44,29681
 831,57; 9303,611;  101,573;20631,609;44,82232
 832,13; 9144,069;   72,073;20323,344;44,79717
 832,69; 9126,126;   58,173;20309,477;44,77713
 833,26; 9088,383;   85,473;20322,711;44,48685
 833,82; 9058,740;   93,073;20197,744;44,59495
 834,39; 8935,497;   78,773;20137,477;44,15402
 834,95; 8857,354;   57,173;19959,410;44,21705
 835,52; 8886,111;   87,873;19851,744;44,51678
 836,08; 8885,569;   95,573;19951,877;44,26804
 836,64; 8844,526;   76,273;19800,711;44,45375
 837,21; 8783,283;   88,673;19552,443;44,67074
 837,77; 8724,440;   91,873;19491,777;44,49799
 838,34; 8690,098;   67,473;19470,012;44,44070
 838,90; 8601,555;   64,473;19306,045;44,36790
 839,46; 8609,012;   83,873;19312,479;44,33571
 840,03; 8555,169;   76,173;19300,811;44,10484
 840,59; 8484,227;   85,873;19175,645;43,99400
 841,16; 8443,883;  105,173;19156,578;43,76953
 841,72; 8298,040;   59,373;18965,512;43,57668
 842,28; 8319,798;   77,873;18857,246;43,88818
 842,85; 8240,955;   95,573;18812,578;43,51862
 843,41; 8168,712;  105,374;18740,813;43,26884
 843,97; 8186,269;   89,174;18686,846;43,53822
 844,54; 8157,826;  104,774;18624,979;43,48252
 845,10; 7994,683;   89,174;18523,713;42,88423
 845,67; 7968,141;   68,774;18413,445;43,06083
 846,23; 7973,897;   78,674;18361,080;43,18482
 846,79; 7948,455;   90,474;18265,613;43,23478
 847,36; 7893,712;   55,774;18179,047;43,24792
 847,92; 7858,969;   84,874;18034,680;43,31019
 848,48; 7773,926;   41,874;18039,213;42,96220
 849,04; 7718,083;   62,374;17949,447;42,80024
 849,61; 7739,141;   56,274;17918,580;43,01162
 850,17; 7731,698;   68,174;17819,514;43,17152
 850,73; 7663,855;   71,474;17764,848;42,91087
 851,30; 7646,612;   46,074;17669,881;43,12654
 851,86; 7572,769;   75,874;17597,914;42,78552
 852,42; 7532,326;   51,174;17568,348;42,70753
 852,99; 7584,783;   79,274;17583,082;42,87929
 853,55; 7562,840;   83,174;17542,514;42,84049
 854,11; 7498,698;   70,074;17432,049;42,78674
 854,67; 7433,255;   85,474;17420,881;42,38597
 855,24; 7328,612;   51,874;17213,414;42,40143
 855,80; 7365,869;   76,874;17244,848;42,45693
 856,36; 7345,926;   80,574;17175,881;42,49910
 856,92; 7277,184;   54,474;17027,215;42,55476
 857,49; 7300,141;   81,274;17048,248;42,54658
 858,05; 7209,498;   67,274;16968,482;42,25866
 858,61; 7153,355;   65,774;17003,316;41,84539
 859,17; 7127,912;   77,374;16904,250;41,90046
 859,74; 6993,569;   82,074;16836,883;41,25081
 860,30; 6954,526;   93,074;16663,016;41,40903
 860,86; 6948,583;   72,074;16692,350;41,37422
 861,42; 6888,141;   74,674;16545,883;41,36592
 861,99; 6871,398;   54,674;16506,717;41,43390
 862,55; 6862,855;   66,374;16393,051;41,62807
 863,11; 6823,712;   75,174;16437,283;41,24491
 863,67; 6810,869;   61,274;16290,117;41,59012
 864,23; 6794,526;   80,175;16199,351;41,65444
 864,80; 6755,983;   69,175;16081,384;41,76069
 865,36; 6662,341;   71,875;16120,817;41,06480
 865,92; 6747,898;   96,175;16088,751;41,59257
 866,48; 6688,255;   67,375;15987,384;41,58842
 867,04; 6630,612;   60,675;15891,418;41,50113
 867,60; 6628,569;   99,375;15884,451;41,36309
 868,17; 6587,227;   93,675;15884,685;41,12183
 868,73; 6575,784;   82,775;15672,618;41,64897
 869,29; 6559,141;   59,475;15470,151;42,17638
 869,85; 6568,498;  100,475;15369,685;42,35991
 870,41; 6512,255;   80,575;15293,418;42,27796
 870,97; 6472,112;   92,975;15232,252;42,13634
 871,54; 6420,369;   84,175;15178,686;41,97681
 872,10; 6396,326;   84,275;15055,419;42,16145
 872,66; 6310,884;   66,775;14910,652;42,06521
 873,22; 6269,441;   81,975;14890,586;41,78289
 873,78; 6165,598;   65,275;14742,419;41,56342
 874,34; 6163,155;   95,075;14662,652;41,65469
 874,90; 6173,555;  109,775;14536,053;42,03288
 875,46; 6072,255;   96,375;14412,952;41,74098
 876,03; 6064,355;   86,475;14363,353;41,87106
 876,59; 5988,555;   64,475;14153,253;42,04822
 877,15; 5955,355;  101,475;14166,853;41,61907
 877,71; 5888,555;   78,275;14064,652;41,54242
 878,27; 5849,055;   95,675;13910,553;41,64626
 878,83; 5879,555;  114,275;13971,753;41,60411
 879,39; 5837,355;   91,075;14082,753;41,06927
 879,95; 5848,755;   86,275;13964,253;41,52247
 880,51; 5870,855;   75,175;13927,253;41,83979
 881,07; 5840,255;   82,375;13978,753;41,43439
 881,63; 5889,055;   92,575;13971,253;41,76536
 882,19; 5876,955;   82,675;13921,553;41,86958
 882,75; 5916,755;   86,275;14019,553;41,84572
 883,31; 6006,055;   95,575;14187,853;41,94127
 883,88; 5964,755;   96,375;14174,353;41,68482
 884,44; 5950,955;   76,175;14175,753;41,66635
 885,00; 6082,855;  106,075;14266,952;42,20628
 885,56; 6064,755;  101,675;14299,452;42,00009
 886,12; 6120,155;  109,875;14421,152;41,99681
 886,68; 6147,555;   90,775;14436,753;42,21936
 887,24; 6249,055;  102,475;14574,952;42,47082
 887,80; 6238,255;   86,975;14671,753;42,17603
 888,36; 6282,455;  106,275;14715,652;42,27545
 888,92; 6239,655;   98,975;14773,353;41,84627
 889,48; 6395,355;   99,575;14973,853;42,32663
 890,04; 6410,255;   95,275;14803,053;42,93633
 890,60; 6503,555;  117,475;15014,652;42,86772
 891,16; 6534,055;   99,875;15075,853;42,96334
 891,72; 6512,455;  113,275;15058,452;42,81769
 892,28; 6468,355;  112,475;15126,053;42,33421
 892,84; 6467,555;   93,775;15039,853;42,64517
 893,39; 6460,955;  117,575;15112,952;42,30224
 893,95; 6372,555;  112,975;15044,753;41,92120
 894,51; 6297,755;   66,375;14891,253;42,03326
 895,07; 6361,355;  127,375;14906,353;42,18140
 895,63; 6240,255;   74,275;14689,952;42,18744
 896,19; 6147,255;   90,375;14601,952;41,73826
 896,75; 6199,855;  105,175;14460,152;42,45691
 897,31; 6158,455;   82,775;14295,853;42,74711
 897,87; 6070,455;   98,175;14146,853;42,51133
 898,43; 6021,455;   87,775;14075,753;42,41986
 898,99; 5982,355;  109,175;14002,753;42,27262
 899,55; 5964,155;  109,475;13940,652;42,32958
 900,11; 5853,155;  104,975;13747,553;42,13412
 900,67; 5793,955;   91,375;13658,652;42,03187
 901,22; 5805,855;  108,375;13601,952;42,22364
 901,78; 5754,155;   91,275;13560,053;42,04450
 902,34; 5721,655;  103,075;13451,152;42,09280
 902,90; 5747,555;   73,575;13350,652;42,73516
 903,46; 5708,555;   95,775;13236,353;42,71334
 904,02; 5649,455;   88,075;13091,553;42,76841
 904,58; 5556,855;   67,075;12918,152;42,71844
 905,14; 5581,155;   63,975;12874,553;43,06738
 905,70; 5551,955;   66,775;12696,053;43,43225
 906,25; 5527,255;   84,375;12708,452;43,11507
 906,81; 5500,655;   87,675;12732,152;42,80904
 907,37; 5469,855;   79,275;12616,152;42,99779
 907,93; 5418,355;   74,775;12588,152;42,70294
 908,49; 5413,155;  101,875;12497,652;42,84749
 909,05; 5310,555;   89,675;12425,553;42,32273
 909,60; 5359,055;   86,575;12340,452;43,02704
 910,16; 5266,055;   67,675;12291,853;42,52540
 910,72; 5280,655;  100,475;12207,753;42,78567
 911,28; 5190,155;   90,875;12156,053;42,26444
 911,84; 5188,155;   79,575;12106,753;42,47530
 912,39; 5139,155;   73,475;12049,353;42,29903
 912,95; 5123,655;  104,475;12001,452;42,18870
 913,51; 5058,555;   85,375;11945,253;41,93281
 914,07; 5018,855;   83,775;11813,452;42,07345
 914,63; 5015,355;   64,775;11748,053;42,37321
 915,18; 4994,755;   77,475;11617,853;42,60935
 915,74; 4938,255;   63,975;11632,652;42,13342
 916,30; 4852,055;   61,475;11588,553;41,55936
 916,86; 4846,155;   83,575;11514,652;41,66344
 917,42; 4887,455;   82,275;11425,152;42,36297
 917,97; 4813,755;   75,375;11265,452;42,34448
 918,53; 4770,255;   67,775;11196,253;42,25627
 919,09; 4844,355;   88,975;11223,753;42,70745
 919,65; 4770,955;   83,375;11083,452;42,61407
 920,20; 4709,755;   61,875;10983,053;42,55841
 920,76; 4665,955;   65,475;10849,452;42,66033
 921,32; 4632,755;   82,675;10770,952;42,57075
 921,87; 4595,755;   97,475;10670,253;42,54587
 922,43; 4522,155;   64,675;10561,353;42,46563
 922,99; 4460,155;   61,875;10406,753;42,51650
 923,55; 4457,755;   63,775;10357,353;42,68662
 924,10; 4405,555;   73,575;10282,853;42,43180
 924,66; 4395,755;   78,675;10170,152;42,77946
 925,22; 4296,555;   43,275;10093,952;42,31834
 925,77; 4269,855;   66,075; 9927,053;42,63046
 926,33; 4240,955;   90,375; 9903,253;42,29728
 926,89; 4192,155;   71,975; 9692,753;42,82585
 927,44; 4103,055;   52,175; 9580,553;42,51385
 928,00; 4079,855;   66,875; 9533,753;42,38969
 928,56; 4022,755;   80,375; 9372,253;42,42824
 929,12; 3973,455;   72,775; 9275,152;42,38774
 929,67; 3889,255;   67,575; 9091,053;42,35263
 930,23; 3818,555;   50,975; 8915,253;42,50295
 930,78; 3826,355;  100,675; 8842,553;42,61876
 931,34; 3711,155;   61,975; 8632,152;42,57998
 931,90; 3612,855;   61,675; 8494,353;42,11213
 932,45; 3519,955;   78,775; 8290,753;41,90440
 933,01; 3398,455;   52,975; 8024,453;41,96813
 933,57; 3331,855;   72,175; 7753,252;42,43780
 934,12; 3180,655;   70,475; 7399,553;42,43617
 934,68; 2994,855;   59,075; 7020,252;42,17361
 935,24; 2882,455;   67,875; 6614,752;42,99118
 935,79; 2721,255;   72,975; 6254,853;42,83941
 936,35; 2549,855;   91,375; 5812,252;42,97383
 936,90; 2368,255;   80,275; 5348,752;43,42772
 937,46; 2182,655;   72,775; 4956,953;43,19827
 938,02; 2013,955;   63,375; 4549,152;43,48366
 938,57; 1879,055;   73,175; 4265,053;43,08046
 939,13; 1762,455;   70,575; 3986,752;43,20233
 939,68; 1629,455;   57,375; 3713,452;42,99909
 940,24; 1570,755;   68,775; 3504,052;43,72223
 940,79; 1538,855;   91,875; 3391,052;43,85881
 941,35; 1461,455;   79,675; 3217,552;44,03550
 941,91; 1406,255;   71,375; 3122,252;43,75397
 942,46; 1353,455;   75,075; 3063,552;42,77696
 943,02; 1367,355;   65,375; 3050,752;43,61191
 943,57; 1317,355;   61,275; 2982,452;42,99910
 944,13; 1337,355;   67,375; 2974,452;43,68580
 944,68; 1326,655;   65,975; 3041,752;42,36473
 945,24; 1379,555;   82,275; 3060,052;43,56538
 945,79; 1364,855;   68,775; 3104,052;42,70054
 946,35; 1405,155;   51,775; 3194,752;43,06044
 946,90; 1459,655;   98,575; 3283,552;42,73437
 947,46; 1454,255;   52,175; 3311,052;43,02340
 948,01; 1475,055;   51,575; 3390,052;42,63860
 948,57; 1543,455;   86,775; 3552,952;42,02555
 949,12; 1553,855;   65,875; 3613,353;41,94473
 949,68; 1628,455;   76,275; 3732,653;42,45130
 950,23; 1661,355;   70,075; 3833,252;42,28554
 950,79; 1672,255;   75,775; 3933,452;41,38449
 951,34; 1721,255;   83,275; 4070,952;41,07604
 951,90; 1776,355;   57,475; 4140,853;42,09456
 952,45; 1827,955;   81,075; 4292,152;41,48297
 953,01; 1837,455;   65,975; 4364,252;41,21372
 953,56; 1893,855;   87,975; 4500,853;40,92296
 954,12; 1912,355;   42,075; 4567,553;41,32779
 954,67; 1959,455;   70,875; 4720,453;40,61831
 955,23; 1998,555;   61,975; 4804,553;40,83391
 955,78; 2046,955;   67,175; 4882,953;41,11029
 956,33; 2037,155;   58,575; 4947,252;40,47271
 956,89; 2100,955;   53,475; 5038,553;41,07218
 957,44; 2102,855;   53,675; 5170,752;40,04591
 958,00; 2133,955;   49,475; 5238,353;40,17208
 958,55; 2193,355;   70,475; 5313,953;40,48611
 959,10; 2219,955;   52,375; 5370,252;40,76025
 959,66; 2225,255;   74,275; 5488,752;39,72645
 960,21; 2269,755;   78,475; 5567,453;39,92146
 960,77; 2260,855;   54,275; 5606,152;39,74475
 961,32; 2271,855;   48,375; 5663,453;39,59838
 961,87; 2328,255;   79,775; 5738,752;39,73297
 962,43; 2326,755;   68,975; 5780,652;39,52919
 962,98; 2358,655;   76,175; 5828,652;39,67821
 963,54; 2307,455;   27,075; 5820,652;39,36048
 964,09; 2338,055;   56,275; 5873,953;39,22149
 964,64; 2366,955;   64,975; 5901,053;39,44396
 965,20; 2325,655;   44,375; 5966,652;38,52032
 965,75; 2376,155;   66,575; 5976,353;39,08066
 966,30; 2353,055;   75,275; 6068,553;38,00558
 966,86; 2357,255;   62,975; 6121,953;37,86579
 967,41; 2355,955;   81,075; 6084,453;37,89334
 967,96; 2351,655;   75,175; 6108,953;37,72893
 968,52; 2364,555;   81,775; 6126,353;37,76575
 969,07; 2348,855;   72,975; 6120,152;37,63541
 969,62; 2322,355;   77,175; 6134,953;37,06277
 970,18; 2329,255;   57,575; 6147,652;37,30133
 970,73; 2323,655;   66,475; 6203,553;36,77939
 971,28; 2319,955;   95,775; 6197,053;36,45433
 971,84; 2324,355;   55,075; 6118,752;37,42415
 972,39; 2316,455;   95,875; 6148,652;36,68696
 972,94; 2300,555;   54,975; 6140,652;36,89942
 973,49; 2282,655;   64,575; 6141,252;36,50153
 974,05; 2274,355;   64,375; 6178,053;36,14813
 974,60; 2304,355;   88,575; 6213,252;36,17790
 975,15; 2283,855;   77,675; 6231,553;35,85024
 975,71; 2238,455;   62,375; 6121,453;35,91438
 976,26; 2239,155;   77,575; 6110,252;35,83119
 976,81; 2259,155;   90,675; 6134,152;35,88133
 977,36; 2270,255;   84,775; 6156,953;35,99170
 977,92; 2244,755;   90,175; 6209,353;35,21029
 978,47; 2243,755;   77,175; 6060,252;36,21180
 979,02; 2241,855;   95,475; 6085,652;35,83166
 979,57; 2195,055;   86,775; 6058,453;35,30465
 980,13; 2196,655;   76,175; 6038,752;35,56314
 980,68; 2151,755;   77,075; 6010,553;34,96566
 981,23; 2138,155;   89,175; 6054,652;34,34729
 981,78; 2118,155;   82,075; 5974,152;34,55623
 982,33; 2110,755;   79,275; 5893,252;34,94131
 982,89; 2089,855;   94,375; 5938,152;34,14709
 983,44; 2062,855;   65,675; 5935,853;34,02248
 983,99; 2099,555;  104,775; 5949,453;34,12985
 984,54; 2024,655;   81,475; 5900,053;33,39613
 985,09; 2030,855;   87,275; 5873,752;33,58831
 985,65; 1974,555;   69,375; 5811,853;33,17697
 986,20; 2010,355;  106,575; 5791,152;33,49026
 986,75; 1976,455;   95,875; 5823,953;32,83091
 987,30; 1936,055;   97,175; 5726,053;32,66868
 987,85; 1920,755;   92,475; 5721,353;32,48037
 988,40; 1894,855;   96,675; 5693,953;32,12597
 988,96; 1884,155;  114,875; 5666,553;31,86929
 989,51; 1879,255;  108,875; 5644,053;31,98416
 990,06; 1882,855;  128,275; 5680,853;31,59938
 990,61; 1806,455;   93,575; 5569,053;31,28275
 991,16; 1836,655;  104,375; 5558,053;31,76352
 991,71; 1775,355;   79,875; 5505,853;31,24746
 992,26; 1767,755;   93,475; 5457,252;31,21457
 992,81; 1727,355;   75,075; 5427,053;30,87233
 993,37; 1750,955;  113,475; 5390,553;31,03005
 993,92; 1720,755;  108,375; 5368,953;30,65025
 994,47; 1704,655;  117,475; 5329,652;30,45138
 995,02; 1717,355;  118,475; 5313,252;30,77860
 995,57; 1652,755;   90,875; 5274,652;30,13015
 996,12; 1683,255;  133,575; 5247,553;30,30283
 996,67; 1637,455;  132,375; 5191,652;29,74891
 997,22; 1609,655;   99,875; 5128,652;30,02281
 997,77; 1634,255;  115,275; 5110,553;30,40832
 998,32; 1609,155;  103,775; 5015,652;30,64775
 998,87; 1587,255;  114,275; 5018,752;30,03337
 999,42; 1567,155;  101,675; 4972,553;30,08657
 999,97; 1538,455;  109,975; 4956,353;29,47521
1000,53; 1555,055;  123,475; 4993,752;29,39422
1001,08; 1475,355;   98,375; 4879,053;28,80303
1001,63; 1488,755;  144,475; 4878,053;28,39882
1002,18; 1424,055;   85,075; 4777,453;28,53522
1002,73; 1467,755;  131,375; 4813,853;28,54002
1003,28; 1418,455;  103,575; 4811,953;27,92639
1003,83; 1410,755;  119,075; 4691,752;28,24778
1004,38; 1409,355;  137,775; 4703,152;27,85268
1004,93; 1360,755;  114,375; 4680,953;27,29352
1005,48; 1337,655;  104,075; 4573,053;27,60318
1006,03; 1327,655;  112,775; 4525,652;27,53034
1006,58; 1308,955;  111,475; 4486,553;27,37048
1007,13; 1247,455;   94,475; 4466,252;26,37325
1007,68; 1251,855;  104,975; 4462,453;26,31981
1008,23; 1248,055;  114,575; 4425,853;26,29105
1008,78; 1219,355;  107,375; 4384,152;26,00042
1009,33; 1216,555;  121,875; 4307,752;26,15175
1009,88; 1165,455;   84,775; 4329,553;25,45905
1010,43; 1181,555;  118,875; 4320,752;25,29060
1010,98; 1174,055;  100,675; 4310,053;25,49973
1011,52; 1145,555;   97,075; 4264,953;25,15621
1012,07; 1174,955;  144,475; 4319,252;24,68347
1012,62; 1115,655;  103,875; 4259,152;24,34928
1013,17; 1092,455;   97,175; 4172,053;24,42478
1013,72; 1069,955;   94,575; 4143,453;24,09013
1014,27; 1068,055;  100,275; 4105,853;24,16081
1014,82; 1037,655;   86,875; 4042,952;24,03340
1015,37; 1030,955;   84,375; 3964,853;24,39339
1015,92; 1022,955;  109,475; 3894,252;24,13563
1016,47;  987,255;   90,275; 3819,452;24,05303
1017,02;  952,755;   81,075; 3732,153;23,87460
1017,57;  954,355;   96,475; 3718,853;23,68279
1018,11;  911,555;   77,275; 3656,252;23,31057
1018,66;  944,255;  120,175; 3636,552;23,43548
1019,21;  920,255;  109,675; 3579,552;23,36048
1019,76;  856,055;   77,675; 3497,353;22,76179
1020,31;  843,155;   71,975; 3446,452;22,85332
1020,86;  847,155;   96,175; 3448,052;22,40476
1021,41;  825,355;   80,175; 3387,052;22,53425
1021,96;  817,255;   83,675; 3385,853;22,21504
1022,50;  818,855;  105,975; 3332,952;22,09126
1023,05;  779,355;   94,675; 3288,052;21,44062
1023,60;  765,555;   97,975; 3251,353;21,17032
1024,15;  743,455;   81,075; 3184,853;21,34109
1024,70;  749,055;   95,075; 3176,252;21,22500
1025,25;  713,355;   81,175; 3127,452;20,75254
1025,79;  725,455;  101,175; 3110,752;20,74311
1026,34;  693,455;   83,475; 3044,653;20,59924
1026,89;  698,055;  102,175; 3039,052;20,28958
1027,44;  673,255;   95,875; 2952,952;20,20876
1027,99;  655,355;   93,475; 2944,552;19,70764
1028,53;  625,455;   89,675; 2900,052;19,06434
1029,08;  646,055;  114,775; 2876,653;19,23619
1029,63;  626,255;  114,875; 2854,952;18,66298
1030,18;  611,755;   92,075; 2788,552;19,27255
1030,73;  592,355;   91,175; 2739,552;18,92404
1031,27;  574,355;   85,875; 2715,252;18,57778
1031,82;  564,555;   81,875; 2686,452;18,53199
1032,37;  570,355;   98,875; 2688,853;18,20402
1032,92;  564,155;  100,575; 2675,452;18,00397
1033,46;  547,355;   99,775; 2599,252;17,90694
1034,01;  526,755;   78,375; 2582,952;17,90242
1034,56;  544,155;   98,875; 2559,252;18,09804
1035,11;  539,055;   92,375; 2523,552;18,37299
1035,65;  509,555;   87,575; 2478,052;17,65254
1036,20;  512,455;   99,375; 2454,452;17,53998
1036,75;  529,555;  118,675; 2446,353;17,65193
1037,29;  487,455;   90,275; 2398,252;17,20901
1037,84;  460,455;   78,375; 2347,252;16,84005
1038,39;  474,255;   91,075; 2329,952;17,11483
1038,94;  427,355;   73,075; 2277,153;16,07384
1039,48;  454,855;   83,575; 2278,552;16,91498
1040,03;  458,755;  102,875; 2245,252;16,61145
1040,58;  445,255;  101,175; 2194,552;16,43660
1041,12;  433,655;   91,375; 2191,653;16,29689
1041,67;  422,355;  101,075; 2166,752;15,55325
1042,22;  429,955;  118,475; 2145,252;15,36824
1042,76;  408,555;   99,275; 2118,452;15,31713
1043,31;  405,755;   90,675; 2060,653;15,99409
1043,86;  398,055;   98,875; 2044,252;15,37902
1044,40;  392,855;   92,975; 2018,052;15,57756
1044,95;  380,055;   94,175; 1988,552;15,09097
1045,50;  341,255;   75,375; 1934,353;14,30249
1046,04;  373,655;  114,375; 1930,453;14,27692
1046,59;  348,255;   96,175; 1878,353;14,14449
1047,13;  361,955;  121,075; 1879,453;13,69899
1047,68;  353,855;  115,675; 1860,052;13,65416
1048,23;  347,355;  118,775; 1866,752;13,07683
1048,77;  337,355;   90,175; 1784,953;14,58481
1049,32;  321,955;  104,175; 1785,953;12,94939
1049,86;  311,655;   92,675; 1760,552;13,12926
1050,41;  300,155;   82,475; 1735,552;13,16817
1050,96;  322,555;  100,875; 1698,652;13,87427
1051,50;  312,055;  101,675; 1663,252;13,47227
1052,05;  306,555;   94,675; 1664,052;13,50089
1052,59;  289,555;   82,975; 1624,152;13,40404
1053,14;  267,255;   84,475; 1582,652;12,20016
1053,69;  288,655;   98,475; 1571,453;12,91126
1054,23;  291,955;  104,575; 1569,052;12,79501
1054,78;  274,755;  100,775; 1550,152;12,00377
1055,32;  299,055;  123,075; 1550,453;12,32890
1055,87;  254,955;   68,875; 1491,752;13,07773
1056,41;  252,555;   78,775; 1469,552;12,49517
1056,96;  256,955;   96,775; 1451,052;11,82771
1057,50;  289,255;  113,375; 1470,853;12,95638
1058,05;  235,055;   82,075; 1401,953;11,59047
1058,59;  261,655;   95,875; 1396,552;12,74567
1059,14;  267,555;  103,575; 1370,453;12,94363
1059,68;  230,055;   75,975; 1329,353;12,29318
1060,23;  270,755;  126,875; 1383,752;11,44742
1060,77;  254,055;   97,375; 1317,052;12,84602
1061,32;  250,355;  108,575; 1320,652;11,69727
1061,86;  236,755;  111,175; 1289,752;10,65522
1062,41;  238,055;   93,975; 1242,953;12,53984
1062,95;  229,055;  109,575; 1230,853;10,65570
1063,50;  240,055;  111,075; 1230,052;11,52659
1064,04;  213,655;   90,475; 1197,453;11,12760
1064,59;  236,655;  114,775; 1210,052;11,12777
1065,13;  226,255;  103,475; 1170,552;11,50619
1065,68;  207,355;  107,275; 1161,353; 9,49456
1066,22;  222,655;  115,875; 1166,453;10,16393
1066,76;  235,155;  130,175; 1145,252;10,34207
1067,31;  203,855;   99,875; 1110,552;10,28815
1067,85;  206,855;  100,975; 1090,252;10,70276
1068,40;  208,655;  110,275; 1095,353; 9,98703
1068,94;  202,555;   99,175; 1079,353;10,54707
1069,49;  193,755;   98,175; 1041,652;10,13061
1070,03;  190,555;  111,175; 1034,353; 8,59856
1070,57;  176,955;   88,775; 1012,852; 9,54249
1071,12;  167,955;   75,875;  987,153;10,10450
1071,66;  229,655;  131,775; 1039,953;10,77763
1072,21;  200,955;  112,475; 1011,352; 9,84339
1072,75;  190,955;  104,475;  978,552; 9,89386
1073,29;  177,155;   77,075;  942,453;11,56490
1073,84;  188,055;   95,975;  941,153;10,89475
1074,38;  175,455;   93,875;  928,253; 9,77735
1074,92;  185,355;  107,275;  940,153; 9,37473
1075,47;  193,155;  112,775;  938,852; 9,73032
1076,01;  203,055;  121,775;  926,253;10,10345
1076,56;  169,255;   97,275;  891,953; 9,05776
1077,10;  154,455;   86,075;  865,253; 8,77592
1077,64;  177,355;   97,875;  884,453;10,10453
1078,19;  200,655;  123,175;  887,753;10,13370
1078,73;  178,355;   98,775;  853,852;10,53932
1079,27;  189,155;  121,075;  875,552; 9,02346
1079,81;  197,055;  121,375;  860,953;10,23287
1080,36;  183,955;  105,975;  836,052;10,68106
1080,90;  169,155;   96,375;  819,753;10,06114
1081,44;  158,755;   82,475;  789,552;10,78807
1081,99;  134,955;   70,375;  771,753; 9,20760
1082,53;  178,255;  113,075;  798,653; 9,50731
1083,07;  175,855;  104,175;  791,453;10,42956
1083,62;  176,555;  101,275;  772,552;11,21444
1084,16;  163,055;   98,975;  782,453; 9,37558
1084,70;  173,255;  107,475;  767,153; 9,97154
1085,24;  177,755;  108,775;  750,653;10,74660
1085,79;  155,955;  109,175;  747,552; 7,32795
1086,33;  158,355;   99,075;  711,453; 9,68030
1086,87;  158,855;  102,075;  714,852; 9,26601
1087,41;  139,355;   84,475;  686,852; 9,11057
1087,96;  176,855;  124,575;  732,552; 8,59900
1088,50;  143,555;  112,075;  696,953; 5,38232
1089,04;  178,955;  121,775;  715,153; 9,63636
1089,58;  135,555;   82,375;  655,953; 9,27163
1090,13;  148,855;  102,975;  653,153; 8,33913
1090,67;  154,555;  101,775;  678,753; 9,14767
1091,21;  136,255;   92,075;  651,852; 7,89242
1091,75;  152,455;  106,875;  647,153; 8,43641
1092,29;  150,655;  105,875;  642,552; 8,34393
1092,84;  157,655;  105,975;  628,352; 9,89323
1093,38;  165,555;  128,175;  662,753; 6,99244
1093,92;  163,255;  113,475;  640,052; 9,45350
1094,46;  165,355;  128,175;  638,852; 7,28052
1095,00;  140,155;   93,975;  602,052; 9,08916
1095,54;  128,855;   89,975;  591,352; 7,75464
1096,09;  147,655;  114,975;  597,352; 6,77478
1096,63;  164,455;  117,175;  598,453; 9,82385
1097,17;  154,655;  102,575;  573,052;11,06961
1097,71;  177,955;  122,875;  582,453;11,98492
1098,25;  143,755;  103,275;  553,653; 8,98802
1098,79;  152,755;  104,775;  568,753;10,34102
1099,33;  152,855;  111,975;  572,052; 8,88546
1099,88;  144,555;  110,775;  562,253; 7,48210
1100,42;  124,155;   83,275;  521,253; 9,33381

