0137 elitro
Integration time [ms]:   8,000
Averaging Nr. [scans]: 10
Smoothing Nr. [pixels]: 0
Data measured with spectrometer [name]: 7314920SP
Wave   ;Sample   ;Dark     ;Reference;Reflectance
[nm]   ;[counts] ;[counts] ;[counts] ;[%]

 199,42;   99,439;   63,873;  150,055;41,26838
 200,02;  110,361;   92,669;  145,732;33,34151
 200,62;   74,172;   67,563;   88,793;31,13215
 201,22;  114,879;   86,969;  138,011;54,68176
 201,82;   91,295;   66,174;  141,790;33,22126
 202,42;  120,988;  101,668;  154,973;36,24376
 203,03;   62,723;   60,168;   91,775; 8,08568
 203,63;   87,532;   69,967;  109,037;44,95694
 204,23;   90,973;   70,671;  129,903;34,27496
 204,83;   92,786;   74,567;  123,718;37,06752
 205,43;   78,439;   56,673;  123,555;32,54371
 206,03;   70,313;   50,167;   90,459;50,00112
 206,63;   76,847;   68,865;  100,007;25,63197
 207,24;  108,978;   74,675;  162,566;39,02865
 207,84;   53,340;   39,967;   83,699;30,58054
 208,44;   61,779;   50,669;   95,011;25,05648
 209,04;   48,820;   47,365;   85,066; 3,85956
 209,64;  102,602;   69,972;  127,998;56,23260
 210,24;   64,486;   45,367;   97,218;36,87308
 210,84;   61,752;   51,469;  101,970;20,36237
 211,44;  102,944;   86,470;  122,908;45,21113
 212,05;   70,820;   60,865;   99,266;25,92373
 212,65;   87,723;   66,368;  112,975;45,82034
 213,25;  106,188;   93,768;  142,073;25,71089
 213,85;   94,711;   84,465;  114,904;33,66119
 214,45;   57,886;   53,367;  100,418; 9,60474
 215,05;   64,152;   39,369;  100,070;40,82835
 215,65;   64,925;   55,169;  105,630;19,33390
 216,25;   51,086;   40,267;   82,518;25,60670
 216,85;   40,706;   34,069;   89,651;11,94210
 217,45;   60,223;   49,068;   97,375;23,09309
 218,05;   81,362;   58,270;  112,886;42,28114
 218,66;   36,634;   28,769;   75,692;16,76141
 219,26;   36,132;   26,567;   79,337;18,12519
 219,86;   47,727;   36,771;   81,584;24,44864
 220,46;   79,890;   54,270;  104,127;51,38629
 221,06;   79,273;   51,871;  115,903;42,79384
 221,66;   66,391;   43,471;  103,481;38,19360
 222,26;   70,102;   39,772;  102,398;48,42955
 222,86;   78,242;   67,268;  118,954;21,23214
 223,46;   61,786;   51,767;   88,918;26,96855
 224,06;   76,100;   64,971;  120,343;20,09834
 224,66;   84,208;   57,570;  105,805;55,22520
 225,26;   78,671;   48,169;  113,748;46,51099
 225,86;   79,420;   42,173;  112,376;53,05642
 226,46;   61,415;   49,968;  102,913;21,62002
 227,06;   46,608;   27,670;   87,705;31,54479
 227,66;   60,639;   37,665;   74,845;61,79023
 228,27;   57,190;   29,270;   96,227;41,69791
 228,87;   99,435;   89,170;  143,046;19,05349
 229,47;   59,774;   29,172;   92,357;48,43249
 230,07;   26,071;   11,169;   59,648;30,73793
 230,67;   55,506;   38,169;   84,651;37,29960
 231,27;   49,990;   27,670;   76,327;45,87144
 231,87;   64,406;   43,169;  100,751;36,88236
 232,47;   83,832;   43,775;  132,047;45,37912
 233,07;   56,674;   42,965;   75,547;42,07618
 233,67;   71,623;   53,768;   94,275;44,08003
 234,27;   30,613;    0,567;   53,259;57,02282
 234,87;   54,527;   34,771;  106,084;27,70345
 235,47;   41,271;   16,169;   74,148;43,29402
 236,07;   49,703;   30,266;   72,042;46,52659
 236,67;   58,295;   49,966;   85,180;23,65021
 237,27;   66,685;   28,873;  109,074;47,14601
 237,87;   56,408;   25,370;   99,805;41,69799
 238,47;   41,361;   14,269;   68,032;50,39138
 239,07;   54,929;   33,272;   95,738;34,66918
 239,67;   72,880;   43,477;  131,421;33,43374
 240,27;   68,220;   46,773;  119,176;29,62217
 240,87;   69,058;   50,773;  119,533;26,59119
 241,47;   52,464;   39,164;   76,131;35,97863
 242,07;   51,669;   39,968;   92,894;22,10851
 242,67;   19,412;  -11,027;   77,914;34,22327
 243,27;   27,086;    7,767;   46,418;49,98326
 243,87;   68,700;   48,671;  108,343;33,56478
 244,47;   57,773;   22,371;   99,703;45,77892
 245,07;   26,852;    2,669;   55,770;45,54192
 245,67;   49,523;   31,068;   85,575;33,85902
 246,27;   45,347;   34,965;   69,007;30,49851
 246,87;   35,842;   26,668;   63,154;25,14406
 247,46;   15,572;   19,663;   23,793;-99,05032
 248,06;   39,162;   20,470;   69,786;37,90309
 248,66;   57,402;   31,072;  105,898;35,18754
 249,26;   42,003;   32,366;   70,742;25,11213
 249,86;   63,020;   42,873;  102,176;33,97352
 250,46;   43,005;   16,775;   93,507;34,18395
 251,06;   30,523;   22,168;   65,375;19,33852
 251,66;   32,854;   20,771;   64,724;27,49126
 252,26;   32,249;   38,866;   70,261;-21,07767
 252,86;   37,452;   35,969;   89,070; 2,79316
 253,46;    0,986;   -8,033;   22,118;29,91302
 254,06;   41,130;   31,766;   79,483;19,62481
 254,66;   43,939;   34,973;  100,155;13,75506
 255,26;   68,793;   39,073;  118,836;37,26074
 255,86;   38,264;   37,464;   55,631; 4,40537
 256,46;   28,244;   19,870;   70,208;16,63583
 257,05;   34,181;   23,570;   59,565;29,47871
 257,65;   65,827;   38,071;   97,684;46,56051
 258,25;   58,774;   37,372;  101,457;33,39635
 258,85;   23,452;   15,669;   51,770;21,55952
 259,45;   20,806;    6,869;   42,951;38,62756
 260,05;   37,886;   46,667;   85,818;-22,42804
 260,65;   45,749;   45,066;   83,561; 1,77332
 261,25;   41,400;   29,371;   85,943;21,26291
 261,85;   21,218;   -0,129;   47,622;44,70563
 262,45;   61,652;   46,169;  109,270;24,53718
 263,04;   72,266;   53,073;  116,295;30,35799
 263,64;   48,405;   33,767;   77,097;33,78177
 264,24;   44,746;   37,671;   89,062;13,76591
 264,84;   86,049;   58,974;  138,671;33,97241
 265,44;   27,151;   26,368;   67,716; 1,89348
 266,04;   50,384;   48,865;   71,464; 6,72118
 266,64;   51,195;   39,866;   86,780;24,14671
 267,24;   42,995;   40,166;   68,980; 9,81523
 267,84;   35,888;   24,668;   76,573;21,61567
 268,43;   62,696;   48,368;   95,935;30,12277
 269,03;   57,434;   46,969;   87,892;25,57233
 269,63;   66,876;   58,566;   92,402;24,55948
 270,23;   11,139;   10,765;   39,045; 1,32028
 270,83;   60,449;   55,266;   83,161;18,57902
 271,43;   31,878;   23,967;   58,856;22,67258
 272,03;   61,551;   64,168;   99,116;-7,48851
 272,62;   44,825;   23,269;   68,730;47,41706
 273,22;   28,635;   11,970;   61,046;33,95811
 273,82;   14,115;   17,460;   26,403;-37,41276
 274,42;   33,337;   25,164;   46,890;37,61775
 275,02;   37,801;   34,864;   60,388;11,50649
 275,62;   63,874;   31,972;  100,457;46,58256
 276,21;   37,017;   22,770;   69,267;30,64011
 276,81;   46,140;   46,767;   71,099;-2,57414
 277,41;   42,664;   22,971;   96,341;26,84055
 278,01;   28,801;   21,364;   42,788;34,71358
 278,61;   56,679;   38,869;   83,811;39,63019
 279,20;   76,020;   65,473;  119,076;19,67689
 279,80;    5,571;    6,762;   11,539;-24,93099
 280,40;   43,103;   36,866;   79,742;14,54677
 281,00;   17,979;   -4,331;   33,311;59,27070
 281,60;   46,876;   20,774;   74,812;48,30376
 282,20;   51,244;   36,670;   70,108;43,58526
 282,79;   38,396;   29,568;   70,135;21,76270
 283,39;   24,976;   17,466;   44,702;27,57363
 283,99;    6,074;   23,165;   34,347;-152,82729
 284,59;   21,098;   16,869;   45,289;14,87949
 285,19;   35,013;   27,067;   57,759;25,89089
 285,78;   26,544;   23,270;   63,808; 8,07680
 286,38;   48,047;   39,665;   59,207;42,89365
 286,98;   50,396;   35,168;   73,535;39,69172
 287,58;   17,473;    4,771;   61,403;22,42856
 288,17;   38,693;    8,973;   80,336;41,64664
 288,77;   52,269;   19,976;   92,504;44,52557
 289,37;   21,552;   11,269;   57,670;22,16160
 289,97;   45,974;   48,965;   66,647;-16,91132
 290,57;   50,910;   46,672;   93,260; 9,09727
 291,16;   72,251;   63,868;  102,616;21,63444
 291,76;   21,635;    5,570;   47,346;38,45578
 292,36;   36,032;   34,367;   58,137; 7,00320
 292,96;   18,747;   -3,127;   60,117;34,58776
 293,55;   40,940;   24,267;   65,399;40,53640
 294,15;   34,117;   26,870;   62,567;20,30089
 294,75;   38,947;   42,065;   66,207;-12,91367
 295,35;   20,851;   21,068;   52,016;-0,70145
 295,94;   43,367;   42,967;   66,740; 1,68635
 296,54;   37,115;   30,768;   70,613;15,92849
 297,14;   32,991;   29,971;   76,881; 6,43784
 297,73;   18,466;   12,165;   40,085;22,56648
 298,33;   42,530;   28,066;   57,583;49,00349
 298,93;   52,742;   41,968;   82,554;26,54627
 299,53;   38,056;   24,872;   69,079;29,82291
 300,12;   19,591;  -12,229;   59,481;44,37314
 300,72;   54,605;   41,567;   91,197;26,26957
 301,32;   61,227;   25,771;   99,584;48,03505
 301,92;   21,410;    3,664;   33,050;60,38868
 302,51;   24,559;   11,567;   49,978;33,82375
 303,11;   30,313;   14,667;   48,759;45,89479
 303,71;   41,761;   21,369;   82,132;33,55991
 304,30;   21,557;    5,466;   38,423;48,82512
 304,90;   22,930;   19,666;   44,283;13,26066
 305,50;   37,239;   18,565;   64,345;40,78971
 306,09;   36,403;   15,466;   49,042;62,35670
 306,69;   53,846;   34,171;   90,262;35,07582
 307,29;   23,242;   18,760;   33,144;31,15757
 307,88;   53,198;   43,269;   72,489;33,97951
 308,48;   19,590;    0,070;   49,727;39,30900
 309,08;   14,927;   -4,437;   11,774;119,44727
 309,68;   38,166;   22,365;   39,585;91,75601
 310,27;   22,125;   20,169;   49,830; 6,59449
 310,87;   32,615;   23,468;   54,813;29,18083
 311,47;   61,786;   54,967;   92,918;17,96819
 312,06;   58,993;   47,865;   68,426;54,12148
 312,66;   69,551;   51,168;  100,016;37,63287
 313,26;   67,954;   48,571;   96,224;40,67553
 313,85;   48,813;   38,267;   65,959;38,08480
 314,45;   56,579;   42,969;   86,611;31,18685
 315,04;   60,993;   52,165;   81,826;29,76262
 315,64;   33,105;   21,267;   47,897;44,45255
 316,24;   54,390;   40,770;   85,627;30,36244
 316,83;   50,803;   40,366;   76,742;28,69205
 317,43;   28,878;   35,167;   68,156;-19,06665
 318,03;   48,618;   39,063;   70,012;30,87322
 318,62;   68,825;   73,061;   94,820;-19,47057
 319,22;   38,488;    7,668;   66,973;51,96840
 319,82;   60,351;   40,768;   93,516;37,12540
 320,41;   72,361;   59,069;   98,732;33,51236
 321,01;   93,739;   80,465;  115,945;37,41125
 321,60;   86,037;   81,164;  102,790;22,53278
 322,20;   94,439;   67,673;  132,855;41,06335
 322,80;   65,905;   54,567;   91,797;30,45291
 323,39;   62,428;   65,764;   94,828;-11,47773
 323,99;   76,849;   61,766;  102,661;36,88129
 324,59;   72,018;   73,063;   97,512;-4,27498
 325,18;   52,459;   40,967;   92,178;22,44048
 325,78;   86,266;   76,365;  108,885;30,44447
 326,37;   75,423;   74,868;  108,075; 1,67334
 326,97;   85,005;   63,267;  111,497;45,07095
 327,57;   48,772;   42,263;   76,493;19,01648
 328,16;   69,264;   60,864;   93,631;25,63631
 328,76;   72,167;   50,467;  110,140;36,36625
 329,35;   79,127;   56,871;  137,484;27,60865
 329,95;   60,744;   27,470;   91,308;52,12257
 330,54;   68,686;   52,167;   94,018;39,47111
 331,14;   43,040;   26,967;   82,599;28,89253
 331,74;   70,939;   54,165;   96,145;39,95599
 332,33;   59,090;   35,370;  108,127;32,60123
 332,93;   56,110;   43,764;   79,250;34,79071
 333,52;   66,876;   42,466;   93,102;48,20682
 334,12;   94,934;   72,069;  140,392;33,46600
 334,71;   60,003;   50,666;   87,942;25,04837
 335,31;   78,913;   63,267;  119,859;27,64778
 335,90;   41,635;   32,362;   53,836;43,18204
 336,50;   45,247;   30,665;   77,207;31,33148
 337,10;   64,825;   38,769;  121,530;31,48363
 337,69;   59,647;   51,765;   93,707;18,79339
 338,29;   49,032;   30,467;  101,037;26,30674
 338,88;   49,642;   22,468;   99,854;35,11503
 339,48;   75,962;   57,862;  111,677;33,63423
 340,07;   60,622;   48,566;  107,321;20,51826
 340,67;   63,427;   31,171;  124,784;34,45691
 341,26;   71,703;   48,466;   98,942;46,03564
 341,86;   83,371;   61,469;  138,348;28,48820
 342,45;   71,898;   45,669;  142,689;27,03441
 343,05;   64,498;   27,269;  115,689;42,10455
 343,64;   71,195;   47,366;  122,480;31,72271
 344,24;   47,847;   28,765;   92,107;30,12583
 344,83;   71,274;   71,365;  121,747;-0,17941
 345,43;   50,967;   29,667;  114,240;25,18635
 346,02;   61,606;   41,469;  124,351;24,29675
 346,62;   74,054;   40,971;  140,424;33,26514
 347,21;   71,266;   42,165;  131,985;32,39873
 347,81;   70,810;   26,172;  140,560;39,02351
 348,40;   46,564;   29,064;  100,731;24,41885
 349,00;   64,218;   49,163;  137,712;17,00176
 349,59;  100,235;   65,870;  177,846;30,68985
 350,19;   69,154;   32,571;  139,424;34,23692
 350,78;   57,213;   55,467;  140,759; 2,04756
 351,38;   50,606;   15,869;  140,951;27,77188
 351,97;   58,167;   26,767;  136,040;28,73614
 352,57;   58,090;   42,570;  155,827;13,70308
 353,16;   44,628;   30,564;  134,328;13,55392
 353,76;   69,735;   38,770;  169,846;23,62390
 354,35;   43,471;   27,669;  160,148;11,92751
 354,95;   70,717;   43,970;  182,067;19,36814
 355,54;   65,788;   38,368;  163,973;21,83003
 356,14;   60,871;   40,069;  164,749;16,68400
 356,73;   56,462;   29,162;  145,176;23,53161
 357,32;   41,161;   13,769;  164,432;18,18103
 357,92;   58,083;   17,772;  181,419;24,63283
 358,51;   83,056;   43,372;  214,179;23,23312
 359,11;   72,910;   36,772;  212,360;20,58127
 359,70;   54,781;   28,470;  189,965;16,29202
 360,30;   73,771;   54,562;  188,039;14,39128
 360,89;   46,242;   31,168;  188,054; 9,60824
 361,48;   77,217;   55,570;  216,467;13,45386
 362,08;   60,778;   19,867;  187,156;24,45483
 362,67;   59,572;   39,763;  192,693;12,95321
 363,27;   84,459;   60,767;  247,678;12,67553
 363,86;   64,339;   35,765;  215,745;15,87589
 364,46;   89,464;   44,664;  257,231;21,07583
 365,05;  102,740;   64,659;  254,989;20,00796
 365,64;   86,450;   50,960;  269,706;16,22453
 366,24;   96,603;   38,558;  309,432;21,42866
 366,83;  126,172;   43,255;  335,383;28,38378
 367,43;  142,887;   51,545;  352,843;30,31623
 368,02;  154,062;   34,646;  399,757;32,70662
 368,61;  178,480;   62,239;  475,425;28,13285
 369,21;  152,911;   32,419;  445,299;29,18332
 369,80;  202,887;   43,007;  526,947;33,03720
 370,39;  254,904;   62,006;  604,971;35,52681
 370,99;  240,447;   42,089;  615,416;34,59783
 371,58;  238,784;   22,974;  630,953;35,49635
 372,18;  279,757;   37,166;  701,603;36,51076
 372,77;  279,492;   42,449;  679,385;37,21604
 373,36;  306,261;   42,747;  690,836;40,66021
 373,96;  270,511;   35,135;  639,498;38,94615
 374,55;  254,676;   29,844;  621,406;38,00656
 375,14;  236,319;   42,849;  573,826;36,43656
 375,74;  225,646;   69,157;  543,276;33,00630
 376,33;  166,382;   45,964;  464,589;28,76513
 376,92;  168,644;   33,278;  447,997;32,64034
 377,52;  237,765;   86,103;  548,460;32,80187
 378,11;  179,528;   46,703;  457,203;32,35687
 378,71;  198,165;   73,011;  514,270;28,36296
 379,30;  212,199;   59,517;  553,928;30,88167
 379,89;  206,286;   59,813;  556,103;29,51352
 380,49;  213,837;   31,018;  568,185;34,03389
 381,08;  251,350;   70,306;  570,990;36,15928
 381,67;  235,043;   55,008;  555,483;35,97288
 382,26;  197,350;   41,706;  539,390;31,27362
 382,86;  203,419;   54,003;  516,041;32,33849
 383,45;  217,421;   50,412;  562,105;32,63848
 384,04;  206,875;   38,712;  553,886;32,64203
 384,64;  206,223;   49,014;  566,760;30,36414
 385,23;  224,196;   64,406;  560,509;32,20891
 385,82;  230,798;   59,615;  592,774;32,10719
 386,42;  260,789;   61,024;  659,022;33,40574
 387,01;  237,077;   55,414;  580,541;34,59421
 387,60;  245,980;   69,009;  590,140;33,95917
 388,20;  225,721;   37,712;  590,805;33,99226
 388,79;  280,055;   72,418;  665,563;35,00612
 389,38;  226,650;   32,106;  564,890;36,51457
 389,97;  260,252;   45,415;  640,955;36,07429
 390,57;  263,442;   71,114;  654,038;32,99356
 391,16;  265,042;   62,514;  655,838;34,13436
 391,75;  273,859;   52,713;  638,562;37,74783
 392,34;  305,040;   60,821;  696,694;38,40695
 392,94;  285,801;   44,718;  689,683;37,37924
 393,53;  282,989;   41,016;  666,612;38,67884
 394,12;  325,679;   53,023;  719,105;40,93433
 394,72;  337,231;   54,213;  706,122;43,41378
 395,31;  323,198;   42,115;  694,874;43,06068
 395,90;  349,062;   42,924;  732,881;44,37063
 396,49;  385,330;   58,028;  779,187;45,38560
 397,09;  354,772;   47,417;  749,188;43,79711
 397,68;  414,054;   44,025;  800,719;48,90075
 398,27;  437,174;   54,626;  809,652;50,66688
 398,86;  414,545;   43,125;  807,657;48,58140
 399,45;  458,861;   56,630;  844,037;51,08297
 400,05;  439,257;   23,820;  799,518;53,55658
 400,64;  455,247;   56,419;  831,001;51,48943
 401,23;  483,349;   53,920;  859,956;53,27661
 401,82;  516,849;   67,220;  868,256;56,13089
 402,42;  530,113;   62,921;  873,953;57,60463
 403,01;  556,954;   81,525;  912,919;57,18457
 403,60;  575,844;   68,532;  940,513;58,17930
 404,19;  603,808;   76,024;  931,900;61,66594
 404,78;  599,596;   57,522;  909,929;63,59334
 405,38;  646,808;   68,332;  984,210;63,16085
 405,97;  633,529;   63,226;  953,933;64,02807
 406,56;  683,249;   71,528; 1004,366;65,57635
 407,15;  680,632;   68,829;  989,442;66,45606
 407,74;  720,342;   80,730; 1026,758;67,61027
 408,34;  704,154;   50,933; 1018,629;67,50274
 408,93;  742,725;   59,531; 1016,234;71,41132
 409,52;  733,339;   51,435; 1041,359;68,88446
 410,11;  770,771;   84,931; 1090,453;68,20736
 410,70;  772,693;   54,727; 1027,230;73,82659
 411,29;  788,403;   58,628; 1030,847;75,06285
 411,89;  824,458;   60,535; 1093,938;73,92303
 412,48;  812,576;   48,228; 1051,606;76,17745
 413,07;  857,764;   65,033; 1101,446;76,48801
 413,66;  880,512;   78,135; 1102,119;78,35835
 414,25;  884,305;   63,337; 1142,311;76,08785
 414,84;  892,825;   69,431; 1102,434;79,70879
 415,44;  926,297;   91,530; 1155,939;78,42534
 416,03;  918,114;   76,637; 1161,173;77,58863
 416,62;  959,988;   76,138; 1168,687;80,89799
 417,21;  955,329;   75,334; 1158,843;81,21712
 417,80;  965,778;   65,037; 1162,871;82,04713
 418,39;  992,463;   78,440; 1179,201;83,03555
 418,98;  952,737;   55,634; 1143,405;82,47172
 419,58;  978,846;   64,033; 1142,067;84,85936
 420,17;  976,193;   52,735; 1164,540;83,05935
 420,76; 1002,614;   72,537; 1192,873;83,01765
 421,35; 1005,031;   60,236; 1155,197;86,28567
 421,94; 1030,663;   88,340; 1223,501;83,01227
 422,53; 1024,709;   61,540; 1195,320;84,95200
 423,12; 1018,607;   64,039; 1190,766;84,72047
 423,71; 1033,558;   60,835; 1162,138;88,32473
 424,30; 1050,295;   85,236; 1210,695;85,74805
 424,90; 1012,270;   39,438; 1163,809;86,52233
 425,49; 1047,490;   70,140; 1216,242;85,27605
 426,08; 1090,690;   80,240; 1209,641;89,46775
 426,67; 1036,604;   57,436; 1168,257;88,14811
 427,26; 1078,221;   60,343; 1230,391;86,99454
 427,85; 1069,343;   63,238; 1209,968;87,73682
 428,44; 1077,856;   68,442; 1218,093;87,80178
 429,03; 1107,565;   85,341; 1233,155;89,05827
 429,62; 1132,892;   78,941; 1240,296;90,75183
 430,21; 1127,931;   81,443; 1277,807;87,47234
 430,80; 1114,278;   70,445; 1235,381;89,60439
 431,39; 1114,577;   53,344; 1246,926;88,91157
 431,99; 1118,358;   78,535; 1206,838;92,15812
 432,58; 1153,207;   82,639; 1251,166;91,61691
 433,17; 1116,812;   69,735; 1238,319;89,60221
 433,76; 1166,399;   71,347; 1288,314;89,98208
 434,35; 1191,433;   88,245; 1292,462;91,61040
 434,94; 1177,246;   70,849; 1318,887;88,65094
 435,53; 1168,139;   78,643; 1278,669;90,78938
 436,12; 1182,804;   70,044; 1294,267;90,89521
 436,71; 1211,655;   87,740; 1303,239;92,46528
 437,30; 1198,946;   76,941; 1299,177;91,79938
 437,89; 1243,460;   76,245; 1320,802;93,78556
 438,48; 1230,648;   65,942; 1305,731;93,94385
 439,07; 1236,161;   95,238; 1347,147;91,13471
 439,66; 1254,863;   83,648; 1375,711;90,64692
 440,25; 1260,704;   85,844; 1390,567;90,04671
 440,84; 1261,711;   79,850; 1387,984;90,34705
 441,43; 1287,908;   78,054; 1440,985;88,76848
 442,02; 1268,202;   79,650; 1411,022;89,27273
 442,61; 1313,177;   93,344; 1397,226;93,55390
 443,20; 1311,238;   94,249; 1446,625;89,98895
 443,79; 1301,362;   74,546; 1412,957;91,66213
 444,38; 1339,082;   84,248; 1461,789;91,09228
 444,97; 1328,997;   84,146; 1466,359;90,06217
 445,56; 1368,116;  101,846; 1477,038;92,07951
 446,15; 1373,413;   81,651; 1522,539;89,65039
 446,74; 1356,750;   58,644; 1462,286;92,48126
 447,33; 1389,962;   82,646; 1538,357;89,80601
 447,92; 1385,567;   78,151; 1570,720;87,59502
 448,51; 1423,070;   89,746; 1586,019;89,10969
 449,10; 1458,751;   92,045; 1608,840;90,10487
 449,69; 1453,948;   73,950; 1627,741;88,81489
 450,28; 1452,190;   66,948; 1608,251;89,87474
 450,87; 1483,945;   78,647; 1656,333;89,07336
 451,46; 1530,828;   96,048; 1702,208;89,32978
 452,05; 1525,111;   70,950; 1715,384;88,42924
 452,64; 1575,675;   70,850; 1725,182;90,96272
 453,23; 1634,277;  113,752; 1794,936;90,44369
 453,82; 1638,394;   83,451; 1800,660;90,55058
 454,40; 1642,675;   65,450; 1786,682;91,63351
 454,99; 1725,679;  101,253; 1871,891;91,74241
 455,58; 1710,653;   69,747; 1832,095;93,10911
 456,17; 1770,542;   63,852; 1873,634;94,30361
 456,76; 1788,967;   67,751; 1918,820;92,98497
 457,35; 1842,882;   78,348; 1930,490;95,26993
 457,94; 1887,570;   66,954; 1978,929;95,22178
 458,53; 1897,721;   67,350; 2010,101;94,21543
 459,12; 1974,193;   82,657; 2111,116;93,24988
 459,71; 1967,336;   58,148; 2060,071;95,36773
 460,30; 2033,463;   84,448; 2087,511;97,30175
 460,89; 2095,267;   57,551; 2129,920;98,32786
 461,48; 2112,470;   75,954; 2173,829;97,07521
 462,06; 2152,357;   68,050; 2187,303;98,35099
 462,65; 2147,273;   48,249; 2176,527;98,62547
 463,24; 2266,237;   87,456; 2288,680;98,98039
 463,83; 2226,957;   54,450; 2229,803;99,86913
 464,42; 2298,646;   88,349; 2333,687;98,43941
 465,01; 2319,375;   73,050; 2336,482;99,24421
 465,60; 2335,002;   64,050; 2384,322;97,87439
 466,19; 2385,870;   73,354; 2462,829;96,77928
 466,77; 2404,013;   81,551; 2462,939;97,52556
 467,36; 2401,719;   69,457; 2459,256;97,59240
 467,95; 2440,985;   79,551; 2466,098;98,94773
 468,54; 2455,962;   71,954; 2513,866;97,62872
 469,13; 2474,104;   69,452; 2535,977;97,49151
 469,72; 2492,499;   67,555; 2582,723;96,41280
 470,31; 2504,345;   87,855; 2629,242;95,08546
 470,90; 2498,284;   76,750; 2652,044;94,02941
 471,48; 2476,565;   32,057; 2671,875;92,60139
 472,07; 2547,626;  125,747; 2686,454;94,57852
 472,66; 2505,560;   67,853; 2748,412;90,94025
 473,25; 2497,713;   68,351; 2723,339;91,50180
 473,84; 2506,980;   55,955; 2766,545;90,42406
 474,43; 2499,013;   55,459; 2843,049;87,65830
 475,01; 2528,735;   69,254; 2885,926;87,31868
 475,60; 2488,926;   49,755; 2882,364;86,11041
 476,19; 2529,903;   74,158; 2956,932;85,18685
 476,78; 2505,320;   71,057; 2964,456;84,13158
 477,37; 2488,926;   59,355; 2945,364;84,18447
 477,95; 2510,991;   75,656; 3018,661;82,74993
 478,54; 2529,779;   63,253; 3023,691;83,31625
 479,13; 2533,279;   56,253; 3070,291;82,18298
 479,72; 2579,716;   81,154; 3090,147;83,03647
 480,31; 2583,159;   63,459; 3167,468;81,17566
 480,89; 2566,435;   60,254; 3171,026;80,56459
 481,48; 2602,269;   46,260; 3214,084;80,68657
 482,07; 2629,962;   61,654; 3233,866;80,96267
 482,66; 2642,152;   52,853; 3253,650;80,89543
 483,25; 2720,869;   78,960; 3319,884;81,51715
 483,83; 2734,408;   59,954; 3325,385;81,90200
 484,42; 2795,670;   54,354; 3355,129;83,05070
 485,01; 2833,357;   65,958; 3400,413;82,99403
 485,60; 2857,437;   73,764; 3490,590;81,46954
 486,18; 2863,891;   66,956; 3490,761;81,69082
 486,77; 2881,277;   67,252; 3519,736;81,50725
 487,36; 2940,810;   58,464; 3561,750;82,27549
 487,95; 2986,833;   59,161; 3640,781;81,74156
 488,53; 2997,360;   54,461; 3642,522;82,01921
 489,12; 3014,745;   50,563; 3722,252;80,73075
 489,71; 3023,016;   38,062; 3680,357;81,95256
 490,30; 3080,015;   61,460; 3742,503;82,00269
 490,88; 3136,706;   87,561; 3859,141;80,84530
 491,47; 3142,518;   60,663; 3867,512;80,95554
 492,06; 3159,154;   62,563; 3920,615;80,26308
 492,65; 3231,852;   59,161; 3947,060;81,60425
 493,23; 3223,896;   54,860; 3982,825;80,67883
 493,82; 3249,506;   65,853; 4018,031;80,55439
 494,41; 3248,798;   51,361; 4066,179;79,64089
 494,99; 3279,781;   73,655; 4126,945;79,09934
 495,58; 3272,315;   86,060; 4224,403;76,99348
 496,17; 3240,737;   56,356; 4198,681;76,87424
 496,76; 3274,891;   65,356; 4276,761;76,21054
 497,34; 3220,838;   54,557; 4305,235;74,48885
 497,93; 3228,665;   66,057; 4350,675;73,81307
 498,52; 3199,304;   60,059; 4454,387;71,43858
 499,10; 3176,489;   75,862; 4533,217;69,56205
 499,69; 3133,850;   55,360; 4537,006;68,69106
 500,28; 3066,459;   37,959; 4592,068;66,50038
 500,86; 3059,971;   62,862; 4698,539;64,65311
 501,45; 2995,671;   53,462; 4730,438;62,90835
 502,04; 2931,316;   53,362; 4813,958;60,45367
 502,62; 2918,136;   70,956; 4856,181;59,49941
 503,21; 2845,282;   57,856; 4939,699;57,09782
 503,80; 2817,562;   69,662; 5015,577;55,55899
 504,38; 2780,096;   58,460; 5081,425;54,18385
 504,97; 2754,262;   49,962; 5122,776;53,30966
 505,56; 2732,340;   70,859; 5194,989;51,94016
 506,14; 2740,782;   64,064; 5263,709;51,47887
 506,73; 2708,747;   23,565; 5292,507;50,96246
 507,32; 2776,039;   62,865; 5376,045;51,06497
 507,90; 2837,269;   70,860; 5443,284;51,49275
 508,49; 2887,020;   58,865; 5500,366;51,97380
 509,08; 2979,564;   67,264; 5571,931;52,90602
 509,66; 3055,542;   69,960; 5677,644;53,24091
 510,25; 3101,179;   63,561; 5737,400;53,53726
 510,83; 3184,747;   45,165; 5855,607;54,03345
 511,42; 3286,215;   61,968; 5895,913;55,26701
 512,01; 3309,228;   59,164; 5980,328;54,88894
 512,59; 3372,962;   46,562; 6041,676;55,48518
 513,18; 3415,498;   59,961; 6114,379;55,42294
 513,77; 3445,947;   42,257; 6171,797;55,52929
 514,35; 3447,581;   37,763; 6190,255;55,42174
 514,94; 3465,489;   58,662; 6323,517;54,37999
 515,52; 3474,703;   48,166; 6358,342;54,30176
 516,11; 3522,674;   80,665; 6474,047;53,83706
 516,69; 3422,531;   41,959; 6446,727;52,78212
 517,28; 3435,730;   83,358; 6541,973;51,90543
 517,87; 3351,784;   45,558; 6604,054;50,41135
 518,45; 3309,976;   74,858; 6626,192;49,38105
 519,04; 3219,694;   54,258; 6707,970;47,57399
 519,62; 3218,754;   55,863; 6774,114;47,07908
 520,21; 3147,876;   24,466; 6828,002;45,90863
 520,79; 3128,023;   52,068; 7000,875;44,26595
 521,38; 3119,288;   52,960; 6995,363;44,16810
 521,97; 3084,842;   43,068; 7141,554;42,85103
 522,55; 3084,867;   67,759; 7195,230;42,33070
 523,14; 3037,740;   26,759; 7180,289;42,09084
 523,72; 3112,960;   77,561; 7383,422;41,54746
 524,31; 3101,247;   71,665; 7406,107;41,30624
 524,89; 3114,450;   48,468; 7526,815;40,99813
 525,48; 3102,294;   21,666; 7603,580;40,63127
 526,06; 3171,728;   56,264; 7633,128;41,11812
 526,65; 3281,008;   72,370; 7803,105;41,50495
 527,23; 3289,508;   46,262; 7840,596;41,61030
 527,82; 3412,359;   37,967; 7905,978;42,88749
 528,41; 3519,022;   67,366; 8041,021;43,28825
 528,99; 3649,420;   66,365; 8108,167;44,55538
 529,58; 3775,135;   42,562; 8168,736;45,93272
 530,16; 3925,798;   49,461; 8315,379;46,89542
 530,75; 4150,956;   73,964; 8417,069;48,86660
 531,33; 4262,595;   45,566; 8440,980;50,23014
 531,92; 4396,942;   48,560; 8567,344;51,04463
 532,50; 4573,317;   87,770; 8706,468;52,04437
 533,09; 4659,511;   65,665; 8807,204;52,55191
 533,67; 4776,421;   63,458; 8952,011;53,02284
 534,26; 4868,223;   65,760; 9007,665;53,70738
 534,84; 4986,052;   68,461; 9127,061;54,28643
 535,42; 5073,456;   61,564; 9205,969;54,80829
 536,01; 5128,854;   79,263; 9330,215;54,58455
 536,59; 5206,876;   43,366; 9482,202;54,70494
 537,18; 5308,150;   77,360; 9568,605;55,11174
 537,76; 5340,037;   56,972; 9764,700;54,42123
 538,35; 5448,169;   59,368; 9892,694;54,80140
 538,93; 5513,628;   72,664; 9941,828;55,13095
 539,52; 5564,308;   57,370;10111,405;54,77341
 540,10; 5658,425;   63,269;10309,029;54,60948
 540,69; 5708,591;   68,763;10444,071;54,35817
 541,27; 5744,889;   58,262;10514,917;54,38285
 541,85; 5809,930;   47,366;10658,783;54,30532
 542,44; 5862,469;   56,460;10765,484;54,21604
 543,02; 6004,825;   80,369;10952,729;54,49098
 543,61; 6030,486;   77,067;11102,218;53,99853
 544,19; 6069,057;   55,066;11264,023;53,65344
 544,78; 6081,749;   62,766;11296,562;53,57924
 545,36; 6212,179;   77,469;11521,011;53,60849
 545,94; 6201,556;   54,564;11563,069;53,41260
 546,53; 6258,891;   52,771;11724,882;53,17050
 547,11; 6360,488;   90,668;11879,873;53,18272
 547,70; 6347,050;   75,860;11954,706;52,79293
 548,28; 6427,120;   47,965;12093,066;52,96058
 548,86; 6503,520;   81,365;12327,767;52,44116
 549,45; 6490,642;   33,768;12364,953;52,36215
 550,03; 6550,432;   76,467;12507,537;52,07890
 550,62; 6658,103;   63,566;12662,842;52,34060
 551,20; 6682,186;   61,467;12808,418;51,93963
 551,78; 6731,110;   61,164;12952,850;51,73835
 552,37; 6789,456;   55,864;13112,469;51,57230
 552,95; 6842,074;   56,765;13214,547;51,56879
 553,54; 6901,147;   49,965;13393,207;51,34571
 554,12; 6960,305;   67,167;13498,797;51,32019
 554,70; 7086,788;   67,568;13736,973;51,34985
 555,29; 7157,666;   61,965;13856,285;51,43929
 555,87; 7191,663;   60,170;13987,786;51,20397
 556,45; 7243,917;   57,162;14154,058;50,98112
 557,04; 7300,640;   43,667;14376,600;50,63146
 557,62; 7389,840;   68,867;14525,499;50,64093
 558,20; 7507,264;   42,671;14799,940;50,58248
 558,79; 7615,923;  100,368;14905,875;50,76189
 559,37; 7637,686;   49,867;15000,418;50,75277
 559,95; 7700,333;   46,669;15169,691;50,60936
 560,54; 7794,415;   71,768;15324,613;50,63086
 561,12; 7849,549;   50,866;15485,562;50,52696
 561,70; 7992,807;   50,369;15679,551;50,81800
 562,29; 8079,169;   61,768;15810,994;50,90663
 562,87; 8148,442;   73,168;16023,953;50,62618
 563,45; 8202,642;   71,068;16194,754;50,43247
 564,04; 8232,108;   54,362;16227,195;50,56471
 564,62; 8321,360;   37,769;16438,332;50,50797
 565,20; 8424,171;   59,962;16715,838;50,21777
 565,78; 8563,692;   70,765;16797,326;50,77510
 566,37; 8641,130;   71,066;17011,283;50,59005
 566,95; 8710,525;   52,969;17124,330;50,71392
 567,53; 8774,816;   67,262;17308,857;50,50318
 568,12; 8760,320;   62,265;17367,766;50,26180
 568,70; 8892,301;   85,264;17565,889;50,38170
 569,28; 8967,507;   61,069;17745,252;50,36386
 569,86; 9007,213;   67,767;17910,758;50,10060
 570,45; 9169,898;   78,569;18124,689;50,37830
 571,03; 9141,443;   53,962;18259,898;49,91494
 571,61; 9186,454;   46,571;18424,824;49,73206
 572,19; 9232,627;   54,263;18395,773;50,04148
 572,78; 9249,023;   70,668;18668,975;49,35049
 573,36; 9333,455;   84,264;18797,668;49,42549
 573,94; 9331,010;   44,064;18892,750;49,27105
 574,52; 9350,158;   54,559;19030,768;48,98554
 575,11; 9430,464;   37,264;19159,830;49,12102
 575,69; 9470,494;   53,566;19268,680;49,00792
 576,27; 9478,233;   47,161;19391,381;48,75396
 576,85; 9545,256;   43,264;19549,668;48,71217
 577,44; 9587,916;   30,262;19814,158;48,31027
 578,02; 9677,005;   32,159;19753,887;48,90467
 578,60; 9759,437;   50,464;20073,791;48,48831
 579,18; 9813,445;   51,963;20160,752;48,54336
 579,76; 9873,128;   40,264;20300,129;48,53371
 580,35; 9924,443;   60,170;20436,707;48,40996
 580,93;10054,978;   59,667;20641,557;48,56362
 581,51;10017,717;   24,770;20697,168;48,33956
 582,09;10156,480;   58,663;20755,756;48,78858
 582,67;10200,187;   49,567;20971,318;48,51706
 583,26;10315,015;   28,568;21227,014;48,52453
 583,84;10412,782;   14,164;21413,709;48,59271
 584,42;10509,602;   48,064;21513,287;48,73715
 585,00;10595,595;   81,366;21772,180;48,47319
 585,58;10710,740;   25,167;21912,299;48,82126
 586,17;10692,061;   46,761;21948,521;48,60477
 586,75;10721,076;    6,666;22026,902;48,65711
 587,33;10872,259;   47,767;22191,678;48,88248
 587,91;10876,775;   74,866;22390,201;48,40577
 588,49;10915,916;   63,962;22349,758;48,69449
 589,07;10922,150;   45,468;22403,215;48,64838
 589,65;10929,067;   28,267;22444,439;48,62918
 590,24;10909,243;   42,562;22447,799;48,50063
 590,82;10879,352;   28,261;22484,160;48,32178
 591,40;10907,583;   41,464;22520,209;48,33953
 591,98;10834,632;   45,759;22558,227;47,92399
 592,56;10772,352;   61,161;22699,961;47,31342
 593,14;10757,632;   43,359;22728,928;47,22946
 593,72;10738,547;   29,765;22889,107;46,84641
 594,30;10638,505;   36,759;22797,486;46,57912
 594,89;10560,429;   41,364;22862,428;46,09366
 595,47;10547,460;   38,961;22922,623;45,92141
 596,05;10365,940;   30,267;23003,799;44,98948
 596,63;10359,940;   31,167;23056,199;44,85889
 597,21;10176,203;   36,766;23145,441;43,87719
 597,79;10027,167;   35,467;23166,039;43,19694
 598,37; 9912,671;   36,669;23222,748;42,59453
 598,95; 9707,976;   50,766;23305,301;41,52829
 599,53; 9494,347;   46,757;23207,996;40,79052
 600,11; 9393,774;   48,665;23341,947;40,11933
 600,70; 9118,618;   57,363;23315,111;38,96016
 601,28; 8986,883;   38,564;23424,809;38,26317
 601,86; 8735,076;   61,766;23355,102;37,23516
 602,44; 8535,252;   23,661;23449,660;36,33395
 603,02; 8328,863;   38,656;23576,521;35,22073
 603,60; 8219,603;   54,858;23663,232;34,58410
 604,18; 7989,500;   69,263;23594,734;33,66664
 604,76; 7873,081;   59,263;23642,154;33,13342
 605,34; 7756,384;   27,565;23530,764;32,88412
 605,92; 7728,725;   59,561;23453,719;32,78239
 606,50; 7763,543;   17,662;23498,998;32,98740
 607,08; 7861,595;   31,666;23394,881;33,51392
 607,66; 8172,303;   39,266;23561,643;34,57575
 608,24; 8367,813;   46,067;23522,059;35,44790
 608,82; 8554,063;   26,164;23532,031;36,27988
 609,40; 8798,821;   46,466;23471,021;37,36402
 609,98; 9008,628;   18,864;23505,928;38,27538
 610,56; 9187,188;   43,861;23497,662;38,98441
 611,14; 9406,365;   30,765;23481,086;39,98069
 611,72; 9511,520;   42,665;23572,467;40,24197
 612,30; 9602,608;   24,962;23468,496;40,85411
 612,88; 9691,667;   60,659;23517,730;41,05802
 613,46; 9661,644;   21,862;23505,697;41,04858
 614,04; 9665,988;   30,068;23461,873;41,12325
 614,62; 9643,134;   41,561;23489,982;40,94763
 615,20; 9612,950;   52,768;23402,416;40,94358
 615,78; 9507,925;   25,569;23463,430;40,45743
 616,36; 9438,609;   41,364;23400,150;40,23002
 616,94; 9276,103;    7,666;23272,242;39,83927
 617,52; 9194,378;   24,067;23373,656;39,27397
 618,10; 9152,786;   63,559;23336,107;39,05557
 618,68; 9021,230;   17,966;23253,184;38,74836
 619,26; 8923,597;   39,268;23398,834;38,03294
 619,84; 8766,300;   18,963;23277,133;37,60974
 620,42; 8703,247;   31,165;23313,506;37,24747
 621,00; 8618,647;   28,865;23209,607;37,05568
 621,58; 8536,851;   38,760;23216,406;36,66503
 622,16; 8580,781;   49,270;23335,164;36,63811
 622,74; 8541,003;   47,066;23327,742;36,48492
 623,32; 8507,857;   42,166;23291,223;36,41305
 623,90; 8458,427;   66,971;23311,484;36,10080
 624,48; 8435,344;   32,662;23196,598;36,27485
 625,05; 8365,943;   34,562;23105,098;36,11265
 625,63; 8370,743;   52,962;23188,799;35,95194
 626,21; 8249,308;   38,262;23117,596;35,57748
 626,79; 8263,086;   53,967;23219,719;35,43645
 627,37; 8151,389;   28,162;23090,717;35,22258
 627,95; 8119,451;   72,768;23200,215;34,79279
 628,53; 7952,647;   49,365;23176,607;34,17304
 629,11; 7937,413;   48,259;23043,449;34,30784
 629,69; 7941,161;   53,369;23256,932;33,99388
 630,27; 7852,799;   80,763;23105,434;33,75526
 630,84; 7746,744;   43,862;23021,197;33,52383
 631,42; 7772,278;   54,367;23319,656;33,17350
 632,00; 7723,759;   45,459;23125,768;33,26775
 632,58; 7728,691;   50,263;23105,172;33,30496
 633,16; 7839,208;   49,870;23096,906;33,79757
 633,74; 7851,601;   56,264;23018,488;33,94853
 634,32; 7922,006;   45,661;23007,842;34,30138
 634,90; 7982,335;   51,970;23195,746;34,26565
 635,47; 7963,442;   38,860;23035,645;34,45952
 636,05; 8038,306;   37,461;22989,342;34,85921
 636,63; 8195,447;   45,965;23104,807;35,34212
 637,21; 8248,528;   67,464;23150,529;35,44184
 637,79; 8346,512;   71,465;23192,904;35,78950
 638,37; 8337,972;   54,055;23070,883;35,99070
 638,94; 8332,166;   33,265;23100,686;35,97672
 639,52; 8424,065;   41,665;23195,285;36,20341
 640,10; 8418,831;   64,264;23215,900;36,08629
 640,68; 8439,686;   54,164;23175,334;36,26772
 641,26; 8425,441;   35,864;23250,268;36,13953
 641,84; 8432,396;   39,164;23235,002;36,18422
 642,41; 8375,151;   28,264;23192,936;36,03283
 642,99; 8309,106;   48,464;23145,568;35,76484
 643,57; 8310,862;   22,064;23158,402;35,82589
 644,15; 8246,817;   27,064;23178,035;35,50500
 644,73; 8259,173;   37,564;23277,568;35,37697
 645,30; 8221,027;   55,264;23230,303;35,23517
 645,88; 8205,483;   44,964;23362,635;34,99715
 646,46; 8171,538;   59,264;23447,568;34,68517
 647,04; 8158,494;   51,864;23367,902;34,76847
 647,61; 8174,449;   46,564;23396,336;34,80927
 648,19; 8175,204;   61,664;23433,369;34,71522
 648,77; 8182,059;   26,264;23442,002;34,83040
 649,35; 8169,114;   51,064;23590,137;34,48755
 649,92; 8185,770;   42,464;23596,070;34,57350
 650,50; 8161,725;   30,064;23551,104;34,57186
 651,08; 8197,880;   39,964;23450,537;34,84714
 651,66; 8184,835;   21,864;23534,770;34,71698
 652,23; 8225,790;   39,064;23561,004;34,80464
 652,81; 8257,445;   36,464;23644,137;34,82334
 653,39; 8249,101;   56,164;23647,170;34,72907
 653,97; 8238,956;   37,065;23882,504;34,39606
 654,54; 8167,111;   23,565;23823,137;34,21720
 655,12; 8147,467;   30,965;23831,971;34,10151
 655,70; 8157,322;   42,065;23962,805;33,92561
 656,28; 8110,577;   32,765;23947,037;33,77821
 656,85; 8124,632;   44,065;24051,070;33,65921
 657,43; 8035,487;   -1,035;23831,305;33,72108
 658,01; 8104,443;   21,465;24078,539;33,59917
 658,58; 8134,198;   55,165;24234,371;33,41314
 659,16; 8137,353;   51,965;24154,105;33,54635
 659,74; 8195,509;   59,465;24338,039;33,51121
 660,32; 8272,063;   71,665;24327,672;33,80770
 660,89; 8228,619;   34,265;24347,305;33,70354
 661,47; 8352,374;   51,665;24464,939;34,00080
 662,05; 8459,129;   25,365;24587,373;34,33662
 662,62; 8558,484;   59,665;24584,006;34,65463
 663,20; 8742,439;   80,665;24740,139;35,12554
 663,78; 8828,395;   47,965;24902,773;35,32688
 664,35; 8929,150;   52,465;24921,006;35,69444
 664,93; 9009,806;   64,465;25123,539;35,69701
 665,51; 9144,761;   49,565;25170,973;36,20496
 666,08; 9182,716;   30,165;25185,707;36,38383
 666,66; 9377,671;   47,465;25667,539;36,41756
 667,23; 9491,026;   51,765;25732,773;36,75580
 667,81; 9700,981;   65,865;25889,307;37,31151
 668,39; 9695,437;   43,265;26047,141;37,11820
 668,96; 9865,992;   54,665;26309,074;37,37021
 669,54; 9893,747;   38,765;26408,408;37,37245
 670,12;10026,603;   51,165;26808,740;37,28080
 670,69;10121,758;   64,165;26950,674;37,40758
 671,27;10248,313;   25,565;27096,008;37,76350
 671,84;10266,868;   40,665;27105,240;37,78446
 672,42;10408,724;   66,265;27253,875;38,04107
 673,00;10491,578;   57,165;27531,408;37,97889
 673,57;10412,034;   59,965;27276,441;38,03604
 674,15;10582,489;   64,065;27613,475;38,18022
 674,72;10577,744;   58,565;27536,209;38,28268
 675,30;10595,199;   69,466;27513,541;38,35339
 675,88;10704,255;   36,266;27573,176;38,74069
 676,45;10781,710;   59,466;27677,309;38,82361
 677,03;10738,365;   67,866;27525,043;38,86233
 677,60;10779,120;   41,466;27770,576;38,72340
 678,18;10929,775;   59,466;27877,510;39,07647
 678,76;10897,631;   40,766;27809,143;39,09795
 679,33;11025,386;   57,666;27813,176;39,51547
 679,91;11029,441;   44,266;27813,311;39,55907
 680,48;11121,496;   28,766;27740,242;40,02937
 681,06;11109,252;   50,866;27735,176;39,94460
 681,63;11110,507;   37,566;27736,209;39,97647
 682,21;11255,162;   67,966;27797,543;40,34391
 682,78;11140,417;   20,566;27459,576;40,52570
 683,36;11223,072;   46,966;27565,510;40,61300
 683,93;11155,527;   30,466;27450,645;40,57253
 684,51;11131,483;   26,166;27477,277;40,45489
 685,08;11282,639;   38,966;27733,711;40,59858
 685,66;11269,394;   53,066;27694,045;40,57862
 686,24;11253,349;   33,766;27796,578;40,41227
 686,81;11345,004;   57,666;27899,910;40,54033
 687,39;11294,259;   38,866;27807,844;40,53225
 687,96;11368,714;   54,166;27850,479;40,70521
 688,54;11394,970;   30,866;27984,811;40,65295
 689,11;11466,425;   26,966;28043,545;40,83103
 689,69;11436,480;   29,666;28019,279;40,75374
 690,26;11608,235;   59,466;28289,313;40,90978
 690,84;11581,891;   50,066;28239,846;40,90782
 691,41;11687,146;   35,966;28403,879;41,07168
 691,98;11627,401;   31,466;28427,912;40,83587
 692,56;11688,056;   32,866;28437,445;41,03278
 693,13;11831,111;   64,866;28655,080;41,15480
 693,71;11907,967;   24,466;28657,912;41,50217
 694,28;11919,622;   41,966;28715,945;41,42312
 694,86;11965,477;   47,266;28928,879;41,26574
 695,43;12091,032;   61,366;29100,912;41,42512
 696,01;12098,088;   36,266;29145,547;41,43634
 696,58;12165,143;   42,167;29083,879;41,74332
 697,16;12211,498;   38,067;29126,414;41,84986
 697,73;12339,253;   63,467;29338,246;41,93298
 698,30;12410,009;   51,867;29223,980;42,36286
 698,88;12495,663;   40,467;29558,613;42,19505
 699,45;12458,619;   35,367;29765,848;41,78625
 700,03;12601,974;   56,067;29750,980;42,24935
 700,60;12619,729;   56,267;29850,613;42,16727
 701,18;12676,584;   61,867;29963,947;42,18675
 701,75;12800,640;   74,367;30094,682;42,39220
 702,32;12789,295;   50,367;29901,914;42,67426
 702,90;13007,851;   52,467;30254,148;42,89623
 703,47;13020,905;   51,367;30428,881;42,69454
 704,05;13019,360;   67,767;30546,715;42,49357
 704,62;13151,916;   39,867;30587,848;42,92280
 705,19;13174,971;   43,667;30586,982;42,99240
 705,77;13283,626;   29,967;30618,314;43,32911
 706,34;13372,882;   61,667;30627,049;43,54997
 706,91;13412,736;   46,367;30673,883;43,64170
 707,49;13521,792;   57,267;30976,316;43,54767
 708,06;13579,147;   66,367;31089,049;43,55774
 708,64;13595,202;   25,767;31093,582;43,67682
 709,21;13583,657;   58,167;31179,316;43,46077
 709,78;13733,913;   41,367;31281,150;43,83048
 710,36;13900,268;   61,667;31419,684;44,13098
 710,93;13924,423;   50,567;31562,416;44,02743
 711,50;14028,979;   44,467;31506,049;44,44949
 712,08;14104,033;   76,567;31925,383;44,04392
 712,65;14079,889;   73,667;31775,916;44,18053
 713,22;14211,844;   69,067;31900,250;44,43057
 713,80;14296,199;   84,167;31966,883;44,57598
 714,37;14209,354;   55,767;31827,018;44,54841
 714,94;14171,109;   53,967;31727,551;44,57071
 715,52;14262,465;   47,867;31732,984;44,86206
 716,09;14254,521;   65,467;31891,918;44,58258
 716,66;14389,575;   73,467;31935,051;44,93219
 717,23;14427,030;   66,867;31908,484;45,09872
 717,81;14407,486;   50,168;31812,018;45,20303
 718,38;14366,741;   47,468;31671,252;45,28008
 718,95;14388,696;   59,068;31618,984;45,40452
 719,53;14509,752;   56,568;31661,418;45,73091
 720,10;14429,007;   59,968;31481,252;45,73027
 720,67;14445,563;   35,768;31355,984;46,00797
 721,24;14427,217;   59,468;31256,020;46,05557
 721,82;14302,272;   49,968;31236,053;45,70085
 722,39;14388,828;   64,068;31235,885;45,95420
 722,96;14443,183;   64,968;31261,420;46,08926
 723,53;14381,338;   88,268;31151,953;46,01215
 724,11;14474,693;   61,568;31207,486;46,27613
 724,68;14439,448;   71,568;31242,020;46,09455
 725,25;14542,004;   72,768;31399,953;46,18748
 725,82;14706,059;   96,068;31564,387;46,42762
 726,40;14574,214;   62,668;31714,820;45,84695
 726,97;14700,170;   62,168;31875,354;46,01237
 727,54;14650,825;   46,968;31801,486;45,98986
 728,11;14738,880;   49,568;32045,820;45,90948
 728,69;14819,235;   39,568;31938,953;46,33214
 729,26;14888,790;   53,568;32105,088;46,28555
 729,83;14979,346;   53,268;32264,621;46,33794
 730,40;15130,201;   66,768;32291,754;46,74458
 730,97;15130,656;   44,268;32590,588;46,35359
 731,55;15136,812;   41,468;32755,820;46,14288
 732,12;15191,267;   86,268;32841,656;46,11455
 732,69;15248,321;   66,968;32889,988;46,25215
 733,26;15268,977;   55,168;32930,520;46,27725
 733,83;15365,632;   41,168;32979,055;46,52534
 734,41;15384,487;   65,468;32991,590;46,52543
 734,98;15381,742;   51,368;33155,621;46,30938
 735,55;15484,498;   43,168;33183,656;46,59355
 736,12;15555,854;   65,968;33377,289;46,50036
 736,69;15648,908;   76,968;33377,922;46,76124
 737,26;15661,964;   57,468;33552,254;46,58784
 737,84;15736,219;   70,768;33487,188;46,87950
 738,41;15777,574;   63,168;33492,422;47,00795
 738,98;15728,829;   63,569;33375,055;47,02660
 739,55;15717,284;   49,669;33377,789;47,01020
 740,12;15807,540;   62,969;33678,023;46,83786
 740,69;15781,895;   70,569;33575,656;46,89236
 741,26;15791,750;   56,269;33557,391;46,97001
 741,83;15780,306;   53,869;33719,523;46,71359
 742,41;15790,261;   56,169;33833,055;46,58242
 742,98;15947,016;   91,469;33874,590;46,93334
 743,55;15849,171;   53,569;33836,824;46,75571
 744,12;15961,626;   50,469;33859,855;47,06136
 744,69;15840,682;   59,569;33848,492;46,70499
 745,26;15860,537;   42,169;33677,723;47,02871
 745,83;15883,691;   58,769;33854,355;46,82541
 746,40;15880,947;   57,969;33844,789;46,83181
 746,97;15893,603;   44,769;33828,125;46,91314
 747,55;15887,657;   62,269;33966,957;46,67611
 748,12;15917,213;   57,869;33910,191;46,84861
 748,69;15922,168;   68,769;33877,625;46,89126
 749,26;15910,623;   65,069;33958,559;46,75103
 749,83;15884,378;   42,569;33911,992;46,77319
 750,40;16003,733;   89,669;34158,824;46,71106
 750,97;16041,688;   96,269;34144,160;46,83233
 751,54;16028,544;   40,569;33980,793;47,10627
 752,11;16098,600;   52,969;33874,727;47,44174
 752,68;16057,954;   87,869;33912,859;47,21386
 753,25;16089,910;   60,269;33774,594;47,54549
 753,82;16036,965;   65,069;33810,527;47,33050
 754,39;16060,320;   75,169;33727,160;47,50135
 754,96;16050,976;   60,069;33616,395;47,65393
 755,53;16083,931;   29,469;33796,527;47,54474
 756,10;16025,786;   64,169;33720,961;47,42465
 756,67;15963,541;   73,369;33813,395;47,09591
 757,24;15901,896;   72,769;33740,426;47,01583
 757,81;15923,451;   16,469;33677,762;47,25600
 758,38;15995,807;   54,569;33822,695;47,20794
 758,95;15919,462;   79,469;33743,426;47,05327
 759,52;15884,717;   57,469;33615,859;47,16331
 760,09;15836,473;   68,570;33306,992;47,43878
 760,66;15658,228;   59,570;33309,727;46,91304
 761,23;15744,383;   91,070;33353,961;47,05939
 761,80;15565,838;   56,270;33295,793;46,66002
 762,37;15716,493;   68,970;33167,727;47,27526
 762,94;15762,148;   70,970;33187,461;47,38177
 763,51;15650,304;   36,070;32949,793;47,43989
 764,08;15669,659;   66,270;32998,527;47,38026
 764,65;15752,214;   69,570;32798,961;47,91609
 765,22;15576,470;   54,670;32804,496;47,39506
 765,79;15588,225;   77,370;32691,928;47,55807
 766,36;15584,479;   73,170;32743,063;47,47891
 766,93;15665,735;   68,970;32551,295;48,01616
 767,50;15747,290;   89,470;32828,328;47,82641
 768,07;15624,046;   63,870;32699,262;47,67884
 768,64;15636,801;   86,470;32572,596;47,86761
 769,21;15450,556;   57,970;32359,729;47,65247
 769,78;15458,611;   78,770;32244,963;47,81368
 770,34;15365,767;   45,570;32031,195;47,89713
 770,91;15361,222;   58,470;31921,430;48,02677
 771,48;15261,177;   62,370;31836,863;47,83336
 772,05;15247,732;   66,470;31610,697;48,12691
 772,62;15065,787;   42,670;31443,029;47,84377
 773,19;15159,343;   59,370;31579,764;47,90541
 773,76;15198,498;   71,070;31506,297;48,12253
 774,33;15059,853;   74,170;31447,330;47,76593
 774,90;14878,208;   52,870;31206,064;47,58850
 775,47;14830,764;   59,970;30957,498;47,80575
 776,03;14835,119;   73,470;30984,330;47,75554
 776,60;14711,474;   55,970;30757,863;47,73485
 777,17;14709,629;   65,470;30698,098;47,80575
 777,74;14579,784;   30,870;30522,031;47,71518
 778,31;14602,239;   68,970;30582,064;47,62961
 778,88;14464,995;   30,470;30366,898;47,58149
 779,45;14466,050;   75,770;30358,131;47,52034
 780,01;14358,505;   58,370;30299,664;47,28678
 780,58;14301,061;   60,570;30177,998;47,28322
 781,15;14216,016;   38,771;29979,432;47,35114
 781,72;14260,671;   66,771;29962,266;47,47839
 782,29;14199,826;   51,771;29667,100;47,77274
 782,86;14160,882;   55,571;29617,732;47,71407
 783,42;14089,036;   56,171;29598,166;47,50141
 783,99;14140,992;   66,671;29482,100;47,84673
 784,56;14079,047;   55,171;29320,232;47,92020
 785,13;14022,902;   40,271;29247,266;47,87426
 785,70;13938,758;   49,071;29060,299;47,87694
 786,26;13902,813;   51,671;28910,732;47,99581
 786,83;13846,568;   84,371;28889,166;47,77745
 787,40;13714,023;   57,171;28783,500;47,54124
 787,97;13659,878;   43,971;28581,133;47,71290
 788,54;13605,934;   70,371;28515,268;47,58521
 789,10;13642,188;   57,971;28344,400;48,02380
 789,67;13558,044;   70,371;28245,334;47,87113
 790,24;13533,100;   51,071;28193,768;47,90596
 790,81;13197,654;   88,271;27914,400;47,11177
 791,37;13196,109;   73,671;27872,135;47,20562
 791,94;13196,865;   70,771;27886,367;47,18969
 792,51;13146,521;   46,271;27539,201;47,64952
 793,08;13038,976;   69,771;27555,234;47,18569
 793,64;12903,530;   71,271;27455,168;46,86060
 794,21;12941,186;   69,671;27250,602;47,35494
 794,78;12773,641;   53,071;27147,035;46,94983
 795,35;12684,597;   73,471;27007,969;46,82146
 795,91;12684,951;   48,071;26789,301;47,25617
 796,48;12521,406;   55,771;26710,734;46,76666
 797,05;12531,062;   57,671;26624,369;46,95123
 797,62;12429,018;   41,971;26600,701;46,64021
 798,18;12303,572;   57,471;26410,736;46,46901
 798,75;12286,428;   56,571;26279,770;46,63755
 799,32;12230,383;   60,771;26209,102;46,54068
 799,88;12207,638;   55,971;26051,535;46,74515
 800,45;12185,493;   33,971;25945,270;46,89662
 801,02;12165,049;   65,271;25880,104;46,87142
 801,58;12033,104;   90,872;25660,436;46,70487
 802,15;11923,959;   72,872;25615,270;46,39771
 802,72;11853,614;   66,172;25404,703;46,51983
 803,28;11848,770;   49,172;25288,938;46,75003
 803,85;11803,225;   41,972;25144,871;46,85217
 804,42;11760,780;   77,772;24948,004;46,97587
 804,98;11698,135;  100,672;24935,537;46,69831
 805,55;11608,391;   56,972;24702,371;46,87049
 806,12;11489,245;   83,572;24611,004;46,50170
 806,68;11384,101;   66,472;24493,738;46,33195
 807,25;11365,355;   74,972;24436,271;46,34557
 807,82;11262,011;   86,872;24407,805;45,94864
 808,38;11178,967;   73,672;24367,037;45,71328
 808,95;11134,622;   62,972;24166,971;45,93284
 809,52;11086,977;   50,272;24162,004;45,77317
 810,08;11032,832;   55,172;23994,938;45,85534
 810,65;11036,787;   77,172;24169,672;45,48974
 811,21;10982,242;   69,972;24123,404;45,36679
 811,78;10977,897;   92,472;24337,539;44,89749
 812,35;10943,053;   64,972;24173,871;45,12060
 812,91;11089,309;   90,072;24239,705;45,54619
 813,48;10998,363;   68,172;24202,738;45,28853
 814,04;10960,219;   64,172;24088,373;45,35446
 814,61;10940,674;   77,572;24176,006;45,07804
 815,18;10879,429;   67,772;23892,539;45,37990
 815,74;10835,584;   69,772;23709,172;45,54182
 816,31;10814,439;   83,372;23614,406;45,60389
 816,87;10671,995;   43,272;23489,641;45,33206
 817,44;10763,050;   76,972;23452,273;45,71525
 818,00;10562,105;   43,272;23159,506;45,50410
 818,57;10570,860;   71,872;23076,340;45,63891
 819,14;10511,016;   82,872;22924,273;45,65457
 819,70;10469,471;   72,672;22792,707;45,76049
 820,27;10395,926;   62,972;22691,941;45,66250
 820,83;10330,881;   70,072;22541,373;45,66184
 821,40;10267,937;   98,072;22431,908;45,53568
 821,96;10197,892;   75,272;22315,541;45,51482
 822,53;10095,447;   70,973;22257,574;45,18256
 823,09;10024,002;   81,073;22073,309;45,21109
 823,66; 9928,758;   68,173;21862,541;45,24373
 824,22; 9828,612;   77,173;21851,674;44,78376
 824,79; 9738,468;   75,473;21561,408;44,97358
 825,35; 9737,723;   65,173;21648,041;44,81587
 825,92; 9605,378;   75,173;21398,875;44,69301
 826,48; 9607,134;   87,673;21501,309;44,45514
 827,05; 9607,389;   89,573;21448,242;44,56184
 827,61; 9483,144;   75,273;21249,076;44,43165
 828,18; 9481,499;   60,873;21191,209;44,58342
 828,74; 9506,954;   91,673;21053,543;44,91623
 829,31; 9456,409;   83,373;21002,176;44,80675
 829,87; 9387,365;   73,073;20733,709;45,08231
 830,44; 9411,620;   85,173;20631,443;45,39241
 831,00; 9368,275;   91,273;20673,977;45,07184
 831,57; 9390,230;  101,573;20631,609;45,24423
 832,13; 9333,686;   72,073;20323,344;45,73349
 832,69; 9252,041;   58,173;20309,477;45,39889
 833,26; 9214,496;   85,473;20322,711;45,11002
 833,82; 9194,151;   93,073;20197,744;45,26848
 834,39; 9188,106;   78,773;20137,477;45,41337
 834,95; 9117,362;   57,173;19959,410;45,52347
 835,52; 9054,717;   87,873;19851,744;45,36988
 836,08; 9050,973;   95,573;19951,877;45,10104
 836,64; 9047,527;   76,273;19800,711;45,48294
 837,21; 8962,482;   88,673;19552,443;45,59142
 837,77; 8889,038;   91,873;19491,777;45,34643
 838,34; 8848,894;   67,473;19470,012;45,25913
 838,90; 8764,049;   64,473;19306,045;45,21240
 839,46; 8712,704;   83,873;19312,479;44,87497
 840,03; 8618,859;   76,173;19300,811;44,43614
 840,59; 8527,714;   85,873;19175,645;44,22180
 841,16; 8516,169;  105,173;19156,578;44,14895
 841,72; 8409,725;   59,373;18965,512;44,16741
 842,28; 8466,979;   77,873;18857,246;44,67192
 842,85; 8482,635;   95,573;18812,578;44,80985
 843,41; 8494,891;  105,374;18740,813;45,01915
 843,97; 8417,745;   89,174;18686,846;44,78287
 844,54; 8397,400;  104,774;18624,979;44,77611
 845,10; 8381,355;   89,174;18523,713;44,98177
 845,67; 8296,312;   68,774;18413,445;44,84974
 846,23; 8280,967;   78,674;18361,080;44,86441
 846,79; 8274,422;   90,474;18265,613;45,02825
 847,36; 8198,477;   55,774;18179,047;44,92954
 847,92; 8196,832;   84,874;18034,680;45,19246
 848,48; 8193,587;   41,874;18039,213;45,29399
 849,04; 8161,143;   62,374;17949,447;45,27722
 849,61; 8078,198;   56,274;17918,580;44,90979
 850,17; 8102,353;   68,174;17819,514;45,25957
 850,73; 8024,108;   71,474;17764,848;44,94696
 851,30; 8004,963;   46,074;17669,881;45,15988
 851,86; 7982,918;   75,874;17597,914;45,12628
 852,42; 7836,274;   51,174;17568,348;44,44267
 852,99; 7905,429;   79,274;17583,082;44,71116
 853,55; 7843,684;   83,174;17542,514;44,44905
 854,11; 7802,339;   70,074;17432,049;44,53563
 854,67; 7756,395;   85,474;17420,881;44,25002
 855,24; 7639,850;   51,874;17213,414;44,21501
 855,80; 7661,805;   76,874;17244,848;44,18070
 856,36; 7655,660;   80,574;17175,881;44,31091
 856,92; 7562,315;   54,474;17027,215;44,23470
 857,49; 7581,071;   81,274;17048,248;44,20232
 858,05; 7499,626;   67,274;16968,482;43,97527
 858,61; 7500,481;   65,774;17003,316;43,89484
 859,17; 7480,437;   77,374;16904,250;43,99547
 859,74; 7453,592;   82,074;16836,883;43,99643
 860,30; 7454,947;   93,074;16663,016;44,42908
 860,86; 7410,702;   72,074;16692,350;44,15467
 861,42; 7394,458;   74,674;16545,883;44,43987
 861,99; 7397,413;   54,674;16506,717;44,63117
 862,55; 7336,068;   66,374;16393,051;44,52647
 863,11; 7347,723;   75,174;16437,283;44,44750
 863,67; 7300,378;   61,274;16290,117;44,60641
 864,23; 7313,633;   80,175;16199,351;44,87487
 864,80; 7346,089;   69,175;16081,384;45,44604
 865,36; 7303,444;   71,875;16120,817;45,05947
 865,92; 7207,399;   96,175;16088,751;44,46578
 866,48; 7171,554;   67,375;15987,384;44,62422
 867,04; 7101,709;   60,675;15891,418;44,47697
 867,60; 7089,165;   99,375;15884,451;44,28100
 868,17; 7017,920;   93,675;15884,685;43,84929
 868,73; 6901,575;   82,775;15672,618;43,73874
 869,29; 6909,630;   59,475;15470,151;44,45071
 869,85; 6902,886;  100,475;15369,685;44,54986
 870,41; 6797,441;   80,575;15293,418;44,15260
 870,97; 6752,496;   92,975;15232,252;43,98837
 871,54; 6691,751;   84,175;15178,686;43,77470
 872,10; 6654,807;   84,275;15055,419;43,88797
 872,66; 6566,762;   66,775;14910,652;43,78901
 873,22; 6526,817;   81,975;14890,586;43,52091
 873,78; 6417,072;   65,275;14742,419;43,27679
 874,34; 6441,328;   95,075;14662,652;43,56423
 874,90; 6441,627;  109,775;14536,053;43,89110
 875,46; 6354,527;   96,375;14412,952;43,71263
 876,03; 6317,228;   86,475;14363,353;43,64226
 876,59; 6271,627;   64,475;14153,253;44,05742
 877,15; 6243,627;  101,475;14166,853;43,66859
 877,71; 6244,728;   78,275;14064,652;44,08899
 878,27; 6192,627;   95,675;13910,553;44,13323
 878,83; 6161,728;  114,275;13971,753;43,64035
 879,39; 6141,728;   91,075;14082,753;43,24465
 879,95; 6120,627;   86,275;13964,253;43,48150
 880,51; 6076,027;   75,175;13927,253;43,32095
 881,07; 6078,328;   82,375;13978,753;43,14759
 881,63; 6073,728;   92,575;13971,253;43,09598
 882,19; 6090,627;   82,675;13921,553;43,41358
 882,75; 6074,127;   86,275;14019,553;42,97519
 883,31; 6113,728;   95,575;14187,853;42,70532
 883,88; 6069,728;   96,375;14174,353;42,43047
 884,44; 6073,228;   76,175;14175,753;42,53356
 885,00; 6083,928;  106,075;14266,952;42,21386
 885,56; 6027,127;  101,675;14299,452;41,73507
 886,12; 6108,127;  109,875;14421,152;41,91277
 886,68; 6036,228;   90,775;14436,753;41,44334
 887,24; 6176,928;  102,475;14574,952;41,97245
 887,80; 6084,228;   86,975;14671,753;41,11994
 888,36; 6067,728;  106,275;14715,652;40,80566
 888,92; 6079,027;   98,975;14773,353;40,75166
 889,48; 6203,928;   99,575;14973,853;41,03966
 890,04; 6171,127;   95,275;14803,053;41,31047
 890,60; 6233,828;  117,475;15014,652;41,05712
 891,16; 6170,928;   99,875;15075,853;40,53861
 891,72; 6220,027;  113,275;15058,452;40,86102
 892,28; 6260,627;  112,475;15126,053;40,95062
 892,84; 6141,127;   93,775;15039,853;40,46113
 893,39; 6151,027;  117,575;15112,952;40,23542
 893,95; 6124,127;  112,975;15044,753;40,25745
 894,51; 6015,228;   66,375;14891,253;40,12750
 895,07; 6071,228;  127,375;14906,353;40,21829
 895,63; 5919,428;   74,275;14689,952;39,99235
 896,19; 5894,127;   90,375;14601,952;39,99395
 896,75; 5793,127;  105,175;14460,152;39,62356
 897,31; 5757,228;   82,775;14295,853;39,92417
 897,87; 5638,828;   98,175;14146,853;39,43896
 898,43; 5575,127;   87,775;14075,753;39,22906
 898,99; 5555,127;  109,175;14002,753;39,19762
 899,55; 5460,228;  109,475;13940,652;38,68617
 900,11; 5380,928;  104,975;13747,553;38,67270
 900,67; 5255,527;   91,375;13658,652;38,06329
 901,22; 5229,728;  108,375;13601,952;37,95400
 901,78; 5126,928;   91,275;13560,053;37,38760
 902,34; 5026,627;  103,075;13451,152;36,88585
 902,90; 4959,228;   73,575;13350,652;36,79765
 903,46; 4921,828;   95,775;13236,353;36,72634
 904,02; 4853,328;   88,075;13091,553;36,64599
 904,58; 4725,428;   67,075;12918,152;36,24873
 905,14; 4715,027;   63,975;12874,553;36,30634
 905,70; 4674,428;   66,775;12696,053;36,48390
 906,25; 4654,127;   84,375;12708,452;36,19870
 906,81; 4615,127;   87,675;12732,152;35,80577
 907,37; 4542,027;   79,275;12616,152;35,59700
 907,93; 4518,728;   74,775;12588,152;35,51361
 908,49; 4493,328;  101,875;12497,652;35,42700
 909,05; 4464,127;   89,675;12425,553;35,46122
 909,60; 4396,428;   86,575;12340,452;35,17134
 910,16; 4286,127;   67,675;12291,853;34,50909
 910,72; 4282,627;  100,475;12207,753;34,54247
 911,28; 4194,527;   90,875;12156,053;34,01237
 911,84; 4140,428;   79,575;12106,753;33,76397
 912,39; 4108,627;   73,475;12049,353;33,69400
 912,95; 4100,027;  104,475;12001,452;33,58460
 913,51; 4074,728;   85,375;11945,253;33,63738
 914,07; 4009,827;   83,775;11813,452;33,47110
 914,63; 3960,327;   64,775;11748,053;33,34298
 915,18; 3858,127;   77,475;11617,853;32,76021
 915,74; 3810,127;   63,975;11632,652;32,38186
 916,30; 3723,327;   61,475;11588,553;31,76740
 916,86; 3714,228;   83,575;11514,652;31,76125
 917,42; 3654,427;   82,275;11425,152;31,49247
 917,97; 3581,927;   75,375;11265,452;31,33627
 918,53; 3532,927;   67,775;11196,253;31,13770
 919,09; 3460,927;   88,975;11223,753;30,28307
 919,65; 3403,627;   83,375;11083,452;30,18390
 920,20; 3361,028;   61,875;10983,053;30,20876
 920,76; 3295,228;   65,475;10849,452;29,94955
 921,32; 3267,528;   82,675;10770,952;29,79762
 921,87; 3182,728;   97,475;10670,253;29,18110
 922,43; 3126,827;   64,675;10561,353;29,17259
 922,99; 3053,728;   61,875;10406,753;28,92110
 923,55; 2984,528;   63,775;10357,353;28,37451
 924,10; 2952,327;   73,575;10282,853;28,19742
 924,66; 2900,028;   78,675;10170,152;27,95778
 925,22; 2806,728;   43,275;10093,952;27,49519
 925,77; 2775,327;   66,075; 9927,053;27,47448
 926,33; 2762,228;   90,375; 9903,253;27,22802
 926,89; 2656,127;   71,975; 9692,753;26,86012
 927,44; 2589,028;   52,175; 9580,553;26,62418
 928,00; 2536,327;   66,875; 9533,753;26,08518
 928,56; 2517,627;   80,375; 9372,253;26,22992
 929,12; 2451,327;   72,775; 9275,152;25,84715
 929,67; 2339,327;   67,575; 9091,053;25,17602
 930,23; 2281,228;   50,975; 8915,253;25,16000
 930,78; 2305,728;  100,675; 8842,553;25,22401
 931,34; 2177,728;   61,975; 8632,152;24,68738
 931,90; 2124,528;   61,675; 8494,353;24,46260
 932,45; 2036,927;   78,775; 8290,753;23,84508
 933,01; 1951,927;   52,975; 8024,453;23,82184
 933,57; 1878,527;   72,175; 7753,252;23,51692
 934,12; 1781,127;   70,475; 7399,553;23,34062
 934,68; 1641,228;   59,075; 7020,252;22,72823
 935,24; 1553,427;   67,875; 6614,752;22,69101
 935,79; 1432,427;   72,975; 6254,853;21,99093
 936,35; 1351,728;   91,375; 5812,252;22,03076
 936,90; 1270,527;   80,275; 5348,752;22,59196
 937,46; 1136,828;   72,775; 4956,953;21,78570
 938,02; 1019,028;   63,375; 4549,152;21,30406
 938,57;  971,227;   73,175; 4265,053;21,42363
 939,13;  900,628;   70,575; 3986,752;21,19548
 939,68;  828,128;   57,375; 3713,452;21,08141
 940,24;  777,128;   68,775; 3504,052;20,61995
 940,79;  774,727;   91,875; 3391,052;20,69766
 941,35;  722,328;   79,675; 3217,552;20,48048
 941,91;  673,628;   71,375; 3122,252;19,74030
 942,46;  664,628;   75,075; 3063,552;19,72752
 943,02;  662,628;   65,375; 3050,752;20,00593
 943,57;  624,628;   61,275; 2982,452;19,28512
 944,13;  631,528;   67,375; 2974,452;19,40618
 944,68;  629,227;   65,975; 3041,752;18,92791
 945,24;  643,427;   82,275; 3060,052;18,84467
 945,79;  612,227;   68,775; 3104,052;17,90454
 946,35;  608,628;   51,775; 3194,752;17,71736
 946,90;  667,528;   98,575; 3283,552;17,86363
 947,46;  633,128;   52,175; 3311,052;17,82677
 948,01;  618,128;   51,575; 3390,052;16,97039
 948,57;  667,727;   86,775; 3552,952;16,76061
 949,12;  635,528;   65,875; 3613,353;16,05796
 949,68;  687,227;   76,275; 3732,653;16,70923
 950,23;  665,727;   70,075; 3833,252;15,82845
 950,79;  683,328;   75,775; 3933,452;15,74918
 951,34;  700,427;   83,275; 4070,952;15,47649
 951,90;  668,927;   57,475; 4140,853;14,97418
 952,45;  692,727;   81,075; 4292,152;14,52485
 953,01;  669,727;   65,975; 4364,252;14,04638
 953,56;  689,028;   87,975; 4500,853;13,62042
 954,12;  688,128;   42,075; 4567,553;14,27590
 954,67;  713,727;   70,875; 4720,453;13,82604
 955,23;  716,128;   61,975; 4804,553;13,79318
 955,78;  715,227;   67,175; 4882,953;13,45686
 956,33;  718,128;   58,575; 4947,252;13,49143
 956,89;  702,628;   53,475; 5038,553;13,02191
 957,44;  729,628;   53,675; 5170,752;13,20974
 958,00;  720,128;   49,475; 5238,353;12,92481
 958,55;  726,028;   70,475; 5313,953;12,50225
 959,10;  718,927;   52,375; 5370,252;12,53418
 959,66;  737,927;   74,275; 5488,752;12,25700
 960,21;  743,528;   78,475; 5567,453;12,11615
 960,77;  722,427;   54,275; 5606,152;12,03471
 961,32;  730,227;   48,375; 5663,453;12,14324
 961,87;  759,927;   79,775; 5738,752;12,01900
 962,43;  732,227;   68,975; 5780,652;11,61222
 962,98;  737,227;   76,175; 5828,652;11,49161
 963,54;  700,828;   27,075; 5820,652;11,62930
 964,09;  736,828;   56,275; 5873,953;11,69801
 964,64;  723,628;   64,975; 5901,053;11,28588
 965,20;  696,128;   44,375; 5966,652;11,00510
 965,75;  708,128;   66,575; 5976,353;10,85578
 966,30;  709,628;   75,275; 6068,553;10,58440
 966,86;  714,227;   62,975; 6121,953;10,74855
 967,41;  703,727;   81,075; 6084,453;10,37170
 967,96;  697,528;   75,175; 6108,953;10,31448
 968,52;  697,028;   81,775; 6126,353;10,17859
 969,07;  678,328;   72,975; 6120,152;10,01050
 969,62;  669,828;   77,175; 6134,953; 9,78333
 970,18;  660,828;   57,575; 6147,652; 9,90550
 970,73;  652,828;   66,475; 6203,553; 9,55426
 971,28;  676,328;   95,775; 6197,053; 9,51526
 971,84;  634,828;   55,075; 6118,752; 9,56107
 972,39;  667,528;   95,875; 6148,652; 9,44447
 972,94;  623,128;   54,975; 6140,652; 9,33590
 973,49;  621,328;   64,575; 6141,252; 9,16212
 974,05;  620,227;   64,375; 6178,053; 9,09195
 974,60;  625,227;   88,575; 6213,252; 8,76213
 975,15;  616,828;   77,675; 6231,553; 8,76118
 975,71;  598,528;   62,375; 6121,453; 8,84875
 976,26;  590,427;   77,575; 6110,252; 8,50124
 976,81;  605,427;   90,675; 6134,152; 8,51749
 977,36;  601,727;   84,775; 6156,953; 8,51346
 977,92;  611,727;   90,175; 6209,353; 8,52324
 978,47;  578,227;   77,175; 6060,252; 8,37449
 979,02;  598,128;   95,475; 6085,652; 8,39128
 979,57;  565,828;   86,775; 6058,453; 8,02208
 980,13;  549,328;   76,175; 6038,752; 7,93537
 980,68;  546,828;   77,075; 6010,553; 7,91698
 981,23;  546,628;   89,175; 6054,652; 7,66833
 981,78;  526,328;   82,075; 5974,152; 7,53983
 982,33;  521,227;   79,275; 5893,252; 7,60155
 982,89;  529,727;   94,375; 5938,152; 7,44985
 983,44;  482,927;   65,675; 5935,853; 7,10800
 983,99;  533,227;  104,775; 5949,453; 7,33064
 984,54;  488,927;   81,475; 5900,053; 7,00261
 985,09;  491,427;   87,275; 5873,752; 6,98443
 985,65;  477,728;   69,375; 5811,853; 7,11109
 986,20;  482,128;  106,575; 5791,152; 6,60652
 986,75;  481,527;   95,875; 5823,953; 6,73267
 987,30;  467,728;   97,175; 5726,053; 6,58306
 987,85;  445,128;   92,475; 5721,353; 6,26506
 988,40;  448,628;   96,675; 5693,953; 6,28792
 988,96;  446,228;  114,875; 5666,553; 5,96851
 989,51;  445,027;  108,875; 5644,053; 6,07302
 990,06;  461,527;  128,275; 5680,853; 6,00176
 990,61;  419,628;   93,575; 5569,053; 5,95478
 991,16;  435,027;  104,375; 5558,053; 6,06293
 991,71;  404,527;   79,875; 5505,853; 5,98330
 992,26;  412,728;   93,475; 5457,252; 5,95201
 992,81;  394,328;   75,075; 5427,053; 5,96513
 993,37;  442,828;  113,475; 5390,553; 6,24119
 993,92;  424,427;  108,375; 5368,953; 6,00794
 994,47;  430,027;  117,475; 5329,652; 5,99658
 995,02;  426,728;  118,475; 5313,252; 5,93389
 995,57;  374,828;   90,875; 5274,652; 5,47771
 996,12;  422,228;  133,575; 5247,553; 5,64438
 996,67;  413,027;  132,375; 5191,652; 5,54728
 997,22;  393,728;   99,875; 5128,652; 5,84342
 997,77;  402,128;  115,275; 5110,553; 5,74247
 998,32;  393,027;  103,775; 5015,652; 5,88884
 998,87;  387,728;  114,275; 5018,752; 5,57557
 999,42;  387,027;  101,675; 4972,553; 5,85834
 999,97;  365,828;  109,975; 4956,353; 5,27925
1000,53;  377,527;  123,475; 4993,752; 5,21639
1001,08;  366,728;   98,375; 4879,053; 5,61327
1001,63;  394,728;  144,475; 4878,053; 5,28675
1002,18;  327,527;   85,075; 4777,453; 5,16694
1002,73;  367,628;  131,375; 4813,853; 5,04546
1003,28;  347,828;  103,575; 4811,953; 5,18762
1003,83;  359,228;  119,075; 4691,752; 5,25190
1004,38;  381,328;  137,775; 4703,152; 5,33477
1004,93;  336,328;  114,375; 4680,953; 4,86037
1005,48;  336,527;  104,075; 4573,053; 5,20147
1006,03;  321,927;  112,775; 4525,652; 4,73959
1006,58;  328,927;  111,475; 4486,553; 4,97025
1007,13;  297,527;   94,475; 4466,252; 4,64462
1007,68;  316,628;  104,975; 4462,453; 4,85723
1008,23;  334,027;  114,575; 4425,853; 5,09020
1008,78;  313,128;  107,375; 4384,152; 4,81092
1009,33;  326,128;  121,875; 4307,752; 4,87956
1009,88;  291,728;   84,775; 4329,553; 4,87546
1010,43;  326,228;  118,875; 4320,752; 4,93476
1010,98;  307,228;  100,675; 4310,053; 4,90696
1011,52;  306,128;   97,075; 4264,953; 5,01580
1012,07;  344,427;  144,475; 4319,252; 4,78954
1012,62;  301,628;  103,875; 4259,152; 4,75907
1013,17;  315,328;   97,175; 4172,053; 5,35360
1013,72;  300,527;   94,575; 4143,453; 5,08666
1014,27;  309,828;  100,275; 4105,853; 5,23152
1014,82;  279,927;   86,875; 4042,952; 4,87990
1015,37;  267,927;   84,375; 3964,853; 4,73015
1015,92;  297,728;  109,475; 3894,252; 4,97394
1016,47;  278,328;   90,275; 3819,452; 5,04273
1017,02;  269,728;   81,075; 3732,153; 5,16704
1017,57;  284,328;   96,475; 3718,853; 5,18589
1018,11;  255,827;   77,275; 3656,252; 4,98892
1018,66;  296,628;  120,175; 3636,552; 5,01802
1019,21;  273,828;  109,675; 3579,552; 4,73079
1019,76;  254,128;   77,675; 3497,353; 5,15992
1020,31;  248,327;   71,975; 3446,452; 5,22607
1020,86;  252,227;   96,175; 3448,052; 4,65567
1021,41;  247,128;   80,175; 3387,052; 5,04864
1021,96;  248,527;   83,675; 3385,853; 4,99224
1022,50;  285,128;  105,975; 3332,952; 5,55171
1023,05;  253,928;   94,675; 3288,052; 4,98696
1023,60;  253,827;   97,975; 3251,353; 4,94240
1024,15;  235,827;   81,075; 3184,853; 4,98594
1024,70;  254,227;   95,075; 3176,252; 5,16531
1025,25;  232,827;   81,175; 3127,452; 4,97829
1025,79;  252,727;  101,175; 3110,752; 5,03567
1026,34;  244,227;   83,475; 3044,653; 5,42867
1026,89;  263,427;  102,175; 3039,052; 5,49061
1027,44;  238,827;   95,875; 2952,952; 5,00345
1027,99;  246,928;   93,475; 2944,552; 5,38226
1028,53;  244,428;   89,675; 2900,052; 5,50647
1029,08;  247,027;  114,775; 2876,653; 4,78850
1029,63;  245,428;  114,875; 2854,952; 4,76456
1030,18;  237,527;   92,075; 2788,552; 5,39417
1030,73;  226,128;   91,175; 2739,552; 5,09567
1031,27;  212,527;   85,875; 2715,252; 4,81682
1031,82;  229,128;   81,875; 2686,452; 5,65360
1032,37;  238,128;   98,875; 2688,853; 5,37659
1032,92;  244,628;  100,575; 2675,452; 5,59454
1033,46;  220,428;   99,775; 2599,252; 4,82711
1034,01;  212,227;   78,375; 2582,952; 5,34431
1034,56;  231,928;   98,875; 2559,252; 5,40781
1035,11;  225,227;   92,375; 2523,552; 5,46453
1035,65;  212,527;   87,575; 2478,052; 5,22709
1036,20;  234,727;   99,375; 2454,452; 5,74726
1036,75;  237,527;  118,675; 2446,353; 5,10605
1037,29;  215,827;   90,275; 2398,252; 5,43994
1037,84;  192,327;   78,375; 2347,252; 5,02242
1038,39;  216,227;   91,075; 2329,952; 5,58997
1038,94;  186,027;   73,075; 2277,153; 5,12471
1039,48;  212,128;   83,575; 2278,552; 5,85667
1040,03;  223,527;  102,875; 2245,252; 5,63171
1040,58;  202,827;  101,175; 2194,552; 4,85591
1041,12;  188,027;   91,375; 2191,653; 4,60189
1041,67;  193,327;  101,075; 2166,752; 4,46597
1042,22;  213,327;  118,475; 2145,252; 4,67997
1042,76;  188,527;   99,275; 2118,452; 4,42024
1043,31;  203,327;   90,675; 2060,653; 5,71847
1043,86;  200,827;   98,875; 2044,252; 5,24076
1044,40;  210,227;   92,975; 2018,052; 6,09079
1044,95;  202,527;   94,175; 1988,552; 5,71969
1045,50;  182,727;   75,375; 1934,353; 5,77481
1046,04;  204,128;  114,375; 1930,453; 4,94211
1046,59;  187,527;   96,175; 1878,353; 5,12589
1047,13;  214,628;  121,075; 1879,453; 5,32039
1047,68;  201,327;  115,675; 1860,052; 4,91020
1048,23;  205,628;  118,775; 1866,752; 4,96874
1048,77;  178,527;   90,175; 1784,953; 5,21322
1049,32;  187,727;  104,175; 1785,953; 4,96811
1049,86;  185,027;   92,675; 1760,552; 5,53713
1050,41;  170,327;   82,475; 1735,552; 5,31448
1050,96;  184,827;  100,875; 1698,652; 5,25433
1051,50;  190,628;  101,675; 1663,252; 5,69632
1052,05;  175,327;   94,675; 1664,052; 5,13914
1052,59;  170,027;   82,975; 1624,152; 5,64844
1053,14;  159,327;   84,475; 1582,652; 4,99624
1053,69;  168,428;   98,475; 1571,453; 4,74905
1054,23;  185,128;  104,575; 1569,052; 5,50043
1054,78;  173,727;  100,775; 1550,152; 5,03337
1055,32;  197,827;  123,075; 1550,453; 5,23705
1055,87;  149,928;   68,875; 1491,752; 5,69638
1056,41;  171,128;   78,775; 1469,552; 6,64035
1056,96;  161,027;   96,775; 1451,052; 4,74441
1057,50;  191,527;  113,375; 1470,853; 5,75719
1058,05;  150,727;   82,075; 1401,953; 5,20143
1058,59;  164,428;   95,875; 1396,552; 5,27052
1059,14;  169,928;  103,575; 1370,453; 5,23748
1059,68;  141,628;   75,975; 1329,353; 5,23805
1060,23;  191,527;  126,875; 1383,752; 5,14390
1060,77;  171,327;   97,375; 1317,052; 6,06328
1061,32;  170,227;  108,575; 1320,652; 5,08651
1061,86;  185,227;  111,175; 1289,752; 6,28321
1062,41;  167,628;   93,975; 1242,953; 6,41027
1062,95;  162,727;  109,575; 1230,853; 4,74035
1063,50;  173,827;  111,075; 1230,052; 5,60802
1064,04;  146,027;   90,475; 1197,453; 5,01839
1064,59;  157,227;  114,775; 1210,052; 3,87596
1065,13;  157,527;  103,475; 1170,552; 5,06547
1065,68;  155,928;  107,275; 1161,353; 4,61565
1066,22;  170,727;  115,875; 1166,453; 5,22118
1066,76;  175,428;  130,175; 1145,252; 4,45803
1067,31;  158,027;   99,875; 1110,552; 5,75381
1067,85;  159,227;  100,975; 1090,252; 5,88839
1068,40;  163,227;  110,275; 1095,353; 5,37546
1068,94;  152,628;   99,175; 1079,353; 5,45335
1069,49;  147,027;   98,175; 1041,652; 5,17792
1070,03;  150,027;  111,175; 1034,353; 4,20856
1070,57;  132,227;   88,775; 1012,852; 4,70226
1071,12;  124,628;   75,875;  987,153; 5,34991
1071,66;  190,727;  131,775; 1039,953; 6,49130
1072,21;  157,928;  112,475; 1011,352; 5,05659
1072,75;  151,227;  104,475;  978,552; 5,34878
1073,29;  131,027;   77,075;  942,453; 6,23456
1073,84;  145,327;   95,975;  941,153; 5,83931
1074,38;  140,128;   93,875;  928,253; 5,54335
1074,92;  143,928;  107,275;  940,153; 4,40071
1075,47;  164,027;  112,775;  938,852; 6,20432
1076,01;  167,428;  121,775;  926,253; 5,67480
1076,56;  137,128;   97,275;  891,953; 5,01493
1077,10;  125,927;   86,075;  865,253; 5,11469
1077,64;  143,928;   97,875;  884,453; 5,85480
1078,19;  158,327;  123,175;  887,753; 4,59764
1078,73;  148,527;   98,775;  853,852; 6,58906
1079,27;  163,928;  121,075;  875,552; 5,67976
1079,81;  158,928;  121,375;  860,953; 5,07756
1080,36;  155,227;  105,975;  836,052; 6,74620
1080,90;  141,628;   96,375;  819,753; 6,25572
1081,44;  132,428;   82,475;  789,552; 7,06464
1081,99;  114,628;   70,375;  771,753; 6,30937
1082,53;  142,428;  113,075;  798,653; 4,28143
1083,07;  147,227;  104,175;  791,453; 6,26421
1083,62;  147,327;  101,275;  772,552; 6,86043
1084,16;  137,928;   98,975;  782,453; 5,69916
1084,70;  151,827;  107,475;  767,153; 6,72336
1085,24;  156,527;  108,775;  750,653; 7,43950
1085,79;  136,827;  109,175;  747,552; 4,33168
1086,33;  132,727;   99,075;  711,453; 5,49538
1086,87;  138,928;  102,075;  714,852; 6,01401
1087,41;  131,527;   84,475;  686,852; 7,81113
1087,96;  159,727;  124,575;  732,552; 5,78187
1088,50;  129,628;  112,075;  696,953; 3,00106
1089,04;  151,727;  121,775;  715,153; 5,04780
1089,58;  116,527;   82,375;  655,953; 5,95429
1090,13;  128,628;  102,975;  653,153; 4,66259
1090,67;  140,428;  101,775;  678,753; 6,69914
1091,21;  123,027;   92,075;  651,852; 5,52943
1091,75;  135,027;  106,875;  647,153; 5,21075
1092,29;  150,727;  105,875;  642,552; 8,35744
1092,84;  142,727;  105,975;  628,352; 7,03562
1093,38;  162,928;  128,175;  662,753; 6,50093
1093,92;  155,428;  113,475;  640,052; 7,96701
1094,46;  152,827;  128,175;  638,852; 4,82741
1095,00;  138,027;   93,975;  602,052; 8,67043
1095,54;  117,527;   89,975;  591,352; 5,49536
1096,09;  141,128;  114,975;  597,352; 5,42158
1096,63;  149,227;  117,175;  598,453; 6,65988
1097,17;  125,827;  102,575;  573,052; 4,94232
1097,71;  155,527;  122,875;  582,453; 7,10489
1098,25;  125,128;  103,275;  553,653; 4,85204
1098,79;  144,428;  104,775;  568,753; 8,54621
1099,33;  148,327;  111,975;  572,052; 7,90139
1099,88;  144,227;  110,775;  562,253; 7,40956
1100,42;  111,128;   83,275;  521,253; 6,35935

