0131 ELITRO
Integration time [ms]:   8,000
Averaging Nr. [scans]: 10
Smoothing Nr. [pixels]: 0
Data measured with spectrometer [name]: 7314920SP
Wave   ;Sample   ;Dark     ;Reference;Reflectance
[nm]   ;[counts] ;[counts] ;[counts] ;[%]

 199,42;  107,428;   63,873;  150,055;50,53857
 200,02;  115,946;   92,669;  145,732;43,86634
 200,62;   81,978;   67,563;   88,793;67,90139
 201,22;  102,068;   86,969;  138,011;29,58100
 201,82;   98,294;   66,174;  141,790;42,47750
 202,42;  124,405;  101,668;  154,973;42,65426
 203,03;   74,902;   60,168;   91,775;46,61526
 203,63;   92,739;   69,967;  109,037;58,28455
 204,23;  100,177;   70,671;  129,903;49,81522
 204,83;   93,858;   74,567;  123,718;39,24763
 205,43;   98,428;   56,673;  123,555;62,43113
 206,03;   75,317;   50,167;   90,459;62,41994
 206,63;   79,166;   68,865;  100,007;33,07963
 207,24;  117,519;   74,675;  162,566;48,74683
 207,84;   67,576;   39,967;   83,699;63,13295
 208,44;   61,768;   50,669;   95,011;25,02981
 209,04;   59,707;   47,365;   85,066;32,73674
 209,64;  107,084;   69,972;  127,998;63,95774
 210,24;   68,158;   45,367;   97,218;43,95400
 210,84;   70,908;   51,469;  101,970;38,49262
 211,44;  105,871;   86,470;  122,908;53,24400
 212,05;   77,707;   60,865;   99,266;43,85829
 212,65;   96,102;   66,368;  112,975;63,79646
 213,25;  114,705;   93,768;  142,073;43,34307
 213,85;   99,970;   84,465;  114,904;50,93590
 214,45;   80,858;   53,367;  100,418;58,42715
 215,05;   68,208;   39,369;  100,070;47,51020
 215,65;   76,849;   55,169;  105,630;42,96380
 216,25;   74,158;   40,267;   82,518;80,21230
 216,85;   60,927;   34,069;   89,651;48,32135
 217,45;   80,002;   49,068;   97,375;64,03547
 218,05;   88,293;   58,270;  112,886;54,97031
 218,66;   51,386;   28,769;   75,692;48,20155
 219,26;   43,039;   26,567;   79,337;31,21427
 219,86;   58,496;   36,771;   81,584;48,48004
 220,46;   76,452;   54,270;  104,127;44,49178
 221,06;   83,077;   51,871;  115,903;48,73587
 221,66;   80,799;   43,471;  103,481;62,20314
 222,26;   78,784;   39,772;  102,398;62,29379
 222,86;   82,524;   67,268;  118,954;29,51594
 223,46;   72,758;   51,767;   88,918;56,50065
 224,06;   96,837;   64,971;  120,343;57,54833
 224,66;   94,574;   57,570;  105,805;76,71560
 225,26;   80,530;   48,169;  113,748;49,34615
 225,86;   78,706;   42,173;  112,376;52,03921
 226,46;   76,764;   49,968;  102,913;50,61115
 227,06;   58,474;   27,670;   87,705;51,30975
 227,66;   64,629;   37,665;   74,845;72,52318
 228,27;   62,352;   29,270;   96,227;49,40822
 228,87;  115,634;   89,170;  143,046;49,11920
 229,47;   66,125;   29,172;   92,357;58,48289
 230,07;   42,330;   11,169;   59,648;64,27672
 230,67;   56,927;   38,169;   84,651;40,35539
 231,27;   56,852;   27,670;   76,327;59,97544
 231,87;   57,027;   43,169;  100,751;24,06660
 232,47;  103,638;   43,775;  132,047;67,81639
 233,07;   60,426;   42,965;   75,547;53,59019
 233,67;   78,902;   53,768;   94,275;62,04760
 234,27;   24,617;    0,567;   53,259;45,64302
 234,87;   69,996;   34,771;  106,084;49,39542
 235,47;   57,330;   16,169;   74,148;70,99244
 236,07;   45,732;   30,266;   72,042;37,02204
 236,67;   74,295;   49,966;   85,180;69,08819
 237,27;   74,409;   28,873;  109,074;56,77783
 237,87;   66,974;   25,370;   99,805;55,89279
 238,47;   40,846;   14,269;   68,032;49,43320
 239,07;   66,243;   33,272;   95,738;52,78263
 239,67;   90,567;   43,477;  131,421;53,54537
 240,27;   79,006;   46,773;  119,176;44,51906
 240,87;   80,350;   50,773;  119,533;43,01436
 241,47;   47,641;   39,164;   76,131;22,93242
 242,07;   67,483;   39,968;   92,894;51,98744
 242,67;   48,369;  -11,027;   77,914;66,78078
 243,27;   41,458;    7,767;   46,418;87,16588
 243,87;   77,637;   48,671;  108,343;48,54155
 244,47;   83,077;   22,371;   99,703;78,50123
 245,07;   36,508;    2,669;   55,770;63,72605
 245,67;   55,202;   31,068;   85,575;44,27632
 246,27;   50,666;   34,965;   69,007;46,12432
 246,87;   48,524;   26,668;   63,154;59,90180
 247,46;   22,078;   19,663;   23,793;58,48549
 248,06;   42,993;   20,470;   69,786;45,67002
 248,66;   55,084;   31,072;  105,898;32,09040
 249,26;   47,232;   32,366;   70,742;38,73859
 249,86;   69,706;   42,873;  102,176;45,24750
 250,46;   43,579;   16,775;   93,507;34,93151
 251,06;   36,702;   22,168;   65,375;33,63746
 251,66;   37,955;   20,771;   64,724;39,09768
 252,26;   46,914;   38,866;   70,261;25,63308
 252,86;   58,608;   35,969;   89,070;42,63416
 253,46;    6,858;   -8,033;   22,118;49,38667
 254,06;   41,292;   31,766;   79,483;19,96342
 254,66;   54,328;   34,973;  100,155;29,69390
 255,26;   84,647;   39,073;  118,836;57,13670
 255,86;   46,441;   37,464;   55,631;49,41565
 256,46;   48,771;   19,870;   70,208;57,41395
 257,05;   59,315;   23,570;   59,565;99,30516
 257,65;   76,696;   38,071;   97,684;64,79345
 258,25;   71,225;   37,372;  101,457;52,82423
 258,85;   44,108;   15,669;   51,770;78,77671
 259,45;   17,827;    6,869;   42,951;30,36975
 260,05;   57,258;   46,667;   85,818;27,05073
 260,65;   55,814;   45,066;   83,561;27,91922
 261,25;   50,637;   29,371;   85,943;37,59064
 261,85;   21,759;   -0,129;   47,622;45,83724
 262,45;   73,508;   46,169;  109,270;43,32604
 263,04;   77,487;   53,073;  116,295;38,61682
 263,64;   60,080;   33,767;   77,097;60,72628
 264,24;   71,118;   37,671;   89,062;65,08311
 264,84;   96,813;   58,974;  138,671;47,47806
 265,44;   48,861;   26,368;   67,716;54,40003
 266,04;   58,210;   48,865;   71,464;41,35213
 266,64;   58,395;   39,866;   86,780;39,49495
 267,24;   59,895;   40,166;   68,980;68,46918
 267,84;   50,305;   24,668;   76,573;49,39199
 268,43;   74,042;   48,368;   95,935;53,97551
 269,03;   62,486;   46,969;   87,892;37,91902
 269,63;   69,373;   58,566;   92,402;31,93961
 270,23;   18,029;   10,765;   39,045;25,68578
 270,83;   60,614;   55,266;   83,161;19,17016
 271,43;   33,720;   23,967;   58,856;27,95409
 272,03;   74,161;   64,168;   99,116;28,59484
 272,62;   46,949;   23,269;   68,730;52,08867
 273,22;   33,434;   11,970;   61,046;43,73512
 273,82;   22,965;   17,460;   26,403;61,55635
 274,42;   30,382;   25,164;   46,890;24,01669
 275,02;   51,185;   34,864;   60,388;63,94379
 275,62;   77,025;   31,972;  100,457;65,78436
 276,21;   50,012;   22,770;   69,267;58,58733
 276,81;   57,376;   46,767;   71,099;43,60271
 277,41;   55,340;   22,971;   96,341;44,11738
 278,01;   30,385;   21,364;   42,788;42,10649
 278,61;   65,068;   38,869;   83,811;58,29480
 279,20;   73,506;   65,473;  119,076;14,98668
 279,80;    8,231;    6,762;   11,539;30,76399
 280,40;   51,032;   36,866;   79,742;33,04027
 281,00;   15,768;   -4,331;   33,311;53,39469
 281,60;   44,272;   20,774;   74,812;43,48464
 282,20;   53,071;   36,670;   70,108;49,04918
 282,79;   44,642;   29,568;   70,135;37,15948
 283,39;   21,673;   17,466;   44,702;15,44663
 283,99;   27,526;   23,165;   34,347;38,99909
 284,59;   29,790;   16,869;   45,289;45,46217
 285,19;   22,517;   27,067;   57,759;-14,82420
 285,78;   51,171;   23,270;   63,808;68,82675
 286,38;   46,766;   39,665;   59,207;36,34049
 286,98;   56,242;   35,168;   73,535;54,92881
 287,58;   23,477;    4,771;   61,403;33,03176
 288,17;   42,647;    8,973;   80,336;47,18684
 288,77;   55,682;   19,976;   92,504;49,23062
 289,37;   18,008;   11,269;   57,670;14,52371
 289,97;   50,726;   48,965;   66,647; 9,95993
 290,57;   71,421;   46,672;   93,260;53,12452
 291,16;   82,761;   63,868;  102,616;48,75949
 291,76;   47,934;    5,570;   47,346;101,40644
 292,36;   49,639;   34,367;   58,137;64,24812
 292,96;   22,565;   -3,127;   60,117;40,62484
 293,55;   45,576;   24,267;   65,399;51,80727
 294,15;   49,012;   26,870;   62,567;62,02572
 294,75;   52,566;   42,065;   66,207;43,49950
 295,35;   20,061;   21,068;   52,016;-3,25275
 295,94;   51,836;   42,967;   66,740;37,30723
 296,54;   36,964;   30,768;   70,613;15,55027
 297,14;   49,099;   29,971;   76,881;40,77618
 297,73;   22,088;   12,165;   40,085;35,54162
 298,33;   51,192;   28,066;   57,583;78,34780
 298,93;   55,424;   41,968;   82,554;33,15337
 299,53;   47,903;   24,872;   69,079;52,09776
 300,12;   22,899;  -12,229;   59,481;48,98634
 300,72;   65,980;   41,567;   91,197;49,18923
 301,32;   62,296;   25,771;   99,584;49,48364
 301,92;   17,422;    3,664;   33,050;46,82005
 302,51;   30,298;   11,567;   49,978;48,76576
 303,11;   36,917;   14,667;   48,759;65,26529
 303,71;   53,646;   21,369;   82,132;53,11909
 304,30;   31,551;    5,466;   38,423;79,14823
 304,90;   20,692;   19,666;   44,283; 4,16765
 305,50;   50,429;   18,565;   64,345;69,60268
 306,09;   34,132;   15,466;   49,042;55,59404
 306,69;   66,518;   34,171;   90,262;57,66858
 307,29;   18,925;   18,760;   33,144; 1,14236
 307,88;   59,290;   43,269;   72,489;54,82675
 308,48;   32,852;    0,070;   49,727;66,01737
 309,08;   15,897;   -4,437;   11,774;125,43397
 309,68;   34,088;   22,365;   39,585;68,07861
 310,27;   31,349;   20,169;   49,830;37,69236
 310,87;   40,664;   23,468;   54,813;54,86068
 311,47;   63,958;   54,967;   92,918;23,69012
 312,06;   55,848;   47,865;   68,426;38,82505
 312,66;   66,861;   51,168;  100,016;32,12686
 313,26;   70,055;   48,571;   96,224;45,08541
 313,85;   51,117;   38,267;   65,959;46,40409
 314,45;   65,768;   42,969;   86,611;52,24055
 315,04;   78,348;   52,165;   81,826;88,27372
 315,64;   29,680;   21,267;   47,897;31,59030
 316,24;   62,452;   40,770;   85,627;48,33640
 316,83;   56,632;   40,366;   76,742;44,71712
 317,43;   47,020;   35,167;   68,156;35,92993
 318,03;   47,960;   39,063;   70,012;28,74586
 318,62;   86,050;   73,061;   94,820;59,69472
 319,22;   40,905;    7,668;   66,973;56,04412
 319,82;   72,161;   40,768;   93,516;59,51565
 320,41;   89,846;   59,069;   98,732;77,59528
 321,01;  100,129;   80,465;  115,945;55,42293
 321,60;   84,682;   81,164;  102,790;16,26711
 322,20;   95,228;   67,673;  132,855;42,27414
 322,80;   70,380;   54,567;   91,797;42,47266
 323,39;   68,444;   65,764;   94,828; 9,22147
 323,99;   91,214;   61,766;  102,661;72,00747
 324,59;   72,560;   73,063;   97,512;-2,05965
 325,18;   75,798;   40,967;   92,178;68,01565
 325,78;   86,188;   76,365;  108,885;30,20675
 326,37;   90,602;   74,868;  108,075;47,38061
 326,97;   82,380;   63,267;  111,497;39,62793
 327,57;   54,478;   42,263;   76,493;35,68632
 328,16;   76,541;   60,864;   93,631;47,84492
 328,76;   68,036;   50,467;  110,140;29,44223
 329,35;   96,896;   56,871;  137,484;49,65124
 329,95;   66,571;   27,470;   91,308;61,25038
 330,54;   80,658;   52,167;   94,018;68,07610
 331,14;   62,576;   26,967;   82,599;64,00867
 331,74;   75,229;   54,165;   96,145;50,17635
 332,33;   73,452;   35,370;  108,127;52,34172
 332,93;   57,122;   43,764;   79,250;37,64455
 333,52;   76,273;   42,466;   93,102;66,76508
 334,12;  102,686;   72,069;  140,392;44,81303
 334,71;   73,532;   50,666;   87,942;61,34304
 335,31;   89,517;   63,267;  119,859;46,38504
 335,90;   43,334;   32,362;   53,836;51,09597
 336,50;   48,266;   30,665;   77,207;37,81886
 337,10;   83,149;   38,769;  121,530;53,62434
 337,69;   69,466;   51,765;   93,707;42,20507
 338,29;   65,539;   30,467;  101,037;49,69785
 338,88;   51,224;   22,468;   99,854;37,15872
 339,48;   84,194;   57,862;  111,677;48,93058
 340,07;   80,854;   48,566;  107,321;54,95422
 340,67;   68,796;   31,171;  124,784;40,19248
 341,26;   70,032;   48,466;   98,942;42,72586
 341,86;   92,630;   61,469;  138,348;40,53215
 342,45;   90,790;   45,669;  142,689;46,50623
 343,05;   77,690;   27,269;  115,689;57,02374
 343,64;   94,695;   47,366;  122,480;63,00916
 344,24;   55,566;   28,765;   92,107;42,31260
 344,83;   83,826;   71,365;  121,747;24,73303
 345,43;   62,336;   29,667;  114,240;38,62822
 346,02;   72,127;   41,469;  124,351;36,98993
 346,62;   91,655;   40,971;  140,424;50,96326
 347,21;   79,588;   42,165;  131,985;41,66467
 347,81;   75,221;   26,172;  140,560;42,88007
 348,40;   60,541;   29,064;  100,731;43,92169
 349,00;   74,660;   49,163;  137,712;28,79373
 349,59;  114,634;   65,870;  177,846;43,54812
 350,19;   78,955;   32,571;  139,424;43,40970
 350,78;   70,517;   55,467;  140,759;17,64549
 351,38;   54,827;   15,869;  140,951;31,14598
 351,97;   70,036;   26,767;  136,040;39,59719
 352,57;   68,752;   42,570;  155,827;23,11759
 353,16;   57,144;   30,564;  134,328;25,61593
 353,76;   80,934;   38,770;  169,846;32,16716
 354,35;   76,630;   27,669;  160,148;36,95734
 354,95;   98,412;   43,970;  182,067;39,42265
 355,54;   76,005;   38,368;  163,973;29,96437
 356,14;   73,330;   40,069;  164,749;26,67708
 356,73;   64,294;   29,162;  145,176;30,28219
 357,32;   64,646;   13,769;  164,432;33,76864
 357,92;   81,862;   17,772;  181,419;39,16360
 358,51;   93,103;   43,372;  214,179;29,11521
 359,11;   89,321;   36,772;  212,360;29,92782
 359,70;   70,415;   28,470;  189,965;25,97266
 360,30;   91,431;   54,562;  188,039;27,62243
 360,89;   63,924;   31,168;  188,054;20,87858
 361,48;  103,412;   55,570;  216,467;29,73428
 362,08;   62,320;   19,867;  187,156;25,37698
 362,67;   66,878;   39,763;  192,693;17,73060
 363,27;  112,898;   60,767;  247,678;27,89099
 363,86;   97,429;   35,765;  215,745;34,26157
 364,46;  109,141;   44,664;  257,231;30,33274
 365,05;  117,377;   64,659;  254,989;27,69840
 365,64;  118,262;   50,960;  269,706;30,76729
 366,24;  125,733;   38,558;  309,432;32,18294
 366,83;  158,979;   43,255;  335,383;39,61424
 367,43;  158,808;   51,545;  352,843;35,60033
 368,02;  187,496;   34,646;  399,757;41,86391
 368,61;  217,419;   62,239;  475,425;37,55687
 369,21;  188,223;   32,419;  445,299;37,73578
 369,80;  236,460;   43,007;  526,947;39,97456
 370,39;  300,935;   62,006;  604,971;44,00442
 370,99;  285,571;   42,089;  615,416;42,46821
 371,58;  290,216;   22,974;  630,953;43,95589
 372,18;  314,758;   37,166;  701,603;41,77857
 372,77;  329,857;   42,449;  679,385;45,12342
 373,36;  320,103;   42,747;  690,836;42,79597
 373,96;  311,928;   35,135;  639,498;45,79905
 374,55;  304,030;   29,844;  621,406;46,34955
 375,14;  291,716;   42,849;  573,826;46,86963
 375,74;  274,674;   69,157;  543,276;43,34718
 376,33;  229,670;   45,964;  464,589;43,88321
 376,92;  201,277;   33,278;  447,997;40,50910
 377,52;  285,143;   86,103;  548,460;43,04901
 378,11;  226,999;   46,703;  457,203;43,92121
 378,71;  263,542;   73,011;  514,270;43,17899
 379,30;  264,691;   59,517;  553,928;41,49862
 379,89;  267,512;   59,813;  556,103;41,85025
 380,49;  281,335;   31,018;  568,185;46,59945
 381,08;  307,916;   70,306;  570,990;47,45703
 381,67;  299,626;   55,008;  555,483;48,87716
 382,26;  286,916;   41,706;  539,390;49,27017
 382,86;  281,362;   54,003;  516,041;49,20784
 383,45;  296,208;   50,412;  562,105;48,03581
 384,04;  291,827;   38,712;  553,886;49,13188
 384,64;  297,056;   49,014;  566,760;47,90800
 385,23;  295,797;   64,406;  560,509;46,64172
 385,82;  330,144;   59,615;  592,774;50,74067
 386,42;  370,805;   61,024;  659,022;51,80308
 387,01;  337,774;   55,414;  580,541;53,76995
 387,60;  346,670;   69,009;  590,140;53,28048
 388,20;  348,008;   37,712;  590,805;56,10194
 388,79;  406,157;   72,418;  665,563;56,26590
 389,38;  345,916;   32,106;  564,890;58,89999
 389,97;  408,162;   45,415;  640,955;60,91065
 390,57;  413,778;   71,114;  654,038;58,78353
 391,16;  436,478;   62,514;  655,838;63,02851
 391,75;  434,752;   52,713;  638,562;65,21116
 392,34;  470,129;   60,821;  696,694;64,36954
 392,94;  479,338;   44,718;  689,683;67,38664
 393,53;  486,906;   41,016;  666,612;71,27450
 394,12;  519,621;   53,023;  719,105;70,05104
 394,72;  523,993;   54,213;  706,122;72,06219
 395,31;  519,744;   42,115;  694,874;73,17075
 395,90;  556,646;   42,924;  732,881;74,45707
 396,49;  611,244;   58,028;  779,187;76,71201
 397,09;  603,031;   47,417;  749,188;79,17323
 397,68;  635,909;   44,025;  800,719;78,21967
 398,27;  681,378;   54,626;  809,652;83,01062
 398,86;  653,771;   43,125;  807,657;79,87188
 399,45;  709,798;   56,630;  844,037;82,95174
 400,05;  686,104;   23,820;  799,518;85,37912
 400,64;  732,719;   56,419;  831,001;87,31161
 401,23;  757,067;   53,920;  859,956;87,23516
 401,82;  789,367;   67,220;  868,256;90,15160
 402,42;  814,270;   62,921;  873,953;92,64107
 403,01;  848,008;   81,525;  912,919;92,19256
 403,60;  857,623;   68,532;  940,513;90,49410
 404,19;  874,827;   76,024;  931,900;93,33163
 404,78;  871,695;   57,522;  909,929;95,51459
 405,38;  923,826;   68,332;  984,210;93,40700
 405,97;  916,996;   63,226;  953,933;95,85312
 406,56;  946,666;   71,528; 1004,366;93,81456
 407,15;  950,491;   68,829;  989,442;95,76904
 407,74; 1003,176;   80,730; 1026,758;97,50719
 408,34;  987,708;   50,933; 1018,629;96,80463
 408,93; 1008,801;   59,531; 1016,234;99,22304
 409,52; 1009,780;   51,435; 1041,359;96,80994
 410,11; 1063,182;   84,931; 1090,453;97,28790
 410,70; 1059,700;   54,727; 1027,230;103,33874
 411,29; 1053,584;   58,628; 1030,847;102,33873
 411,89; 1118,302;   60,535; 1093,938;102,35769
 412,48; 1100,825;   48,228; 1051,606;104,90530
 413,07; 1135,192;   65,033; 1101,446;103,25611
 413,66; 1140,021;   78,135; 1102,119;103,70141
 414,25; 1190,531;   63,337; 1142,311;104,46901
 414,84; 1201,401;   69,431; 1102,434;109,58049
 415,44; 1220,194;   91,530; 1155,939;106,03669
 416,03; 1213,368;   76,637; 1161,173;104,81264
 416,62; 1228,856;   76,138; 1168,687;105,50720
 417,21; 1221,896;   75,334; 1158,843;105,81929
 417,80; 1260,871;   65,037; 1162,871;108,92673
 418,39; 1265,544;   78,440; 1179,201;107,84393
 418,98; 1245,633;   55,634; 1143,405;109,39792
 419,58; 1257,770;   64,033; 1142,067;110,73280
 420,17; 1264,999;   52,735; 1164,540;109,03561
 420,76; 1303,368;   72,537; 1192,873;109,86265
 421,35; 1276,743;   60,236; 1155,197;111,10044
 421,94; 1318,444;   88,340; 1223,501;108,36382
 422,53; 1308,725;   61,540; 1195,320;110,00241
 423,12; 1289,778;   64,039; 1190,766;108,78761
 423,71; 1296,002;   60,835; 1162,138;112,15509
 424,30; 1321,446;   85,236; 1210,695;109,84054
 424,90; 1279,034;   39,438; 1163,809;110,24800
 425,49; 1307,503;   70,140; 1216,242;107,96279
 426,08; 1321,003;   80,240; 1209,641;109,86025
 426,67; 1273,283;   57,436; 1168,257;109,45486
 427,26; 1320,057;   60,343; 1230,391;107,66347
 427,85; 1319,875;   63,238; 1209,968;109,58434
 428,44; 1335,954;   68,442; 1218,093;110,25184
 429,03; 1364,191;   85,341; 1233,155;111,41611
 429,62; 1360,051;   78,941; 1240,296;110,31163
 430,21; 1366,042;   81,443; 1277,807;107,37522
 430,80; 1331,670;   70,445; 1235,381;108,26568
 431,39; 1348,123;   53,344; 1246,926;108,47842
 431,99; 1329,702;   78,535; 1206,838;110,88930
 432,58; 1356,378;   82,639; 1251,166;109,00385
 433,17; 1330,721;   69,735; 1238,319;107,90718
 433,76; 1374,940;   71,347; 1288,314;107,11820
 434,35; 1373,289;   88,245; 1292,462;106,71203
 434,94; 1397,368;   70,849; 1318,887;106,28838
 435,53; 1373,779;   78,643; 1278,669;107,92565
 436,12; 1386,182;   70,044; 1294,267;107,50809
 436,71; 1394,007;   87,740; 1303,239;107,46752
 437,30; 1392,969;   76,941; 1299,177;107,67382
 437,89; 1438,748;   76,245; 1320,802;109,47697
 438,48; 1418,116;   65,942; 1305,731;109,06486
 439,07; 1429,397;   95,238; 1347,147;106,56997
 439,66; 1445,443;   83,648; 1375,711;105,39695
 440,25; 1464,182;   85,844; 1390,567;105,64225
 440,84; 1488,872;   79,850; 1387,984;107,71229
 441,43; 1499,976;   78,054; 1440,985;104,32822
 442,02; 1497,934;   79,650; 1411,022;106,52799
 442,61; 1503,323;   93,344; 1397,226;108,13699
 443,20; 1541,631;   94,249; 1446,625;107,02513
 443,79; 1549,196;   74,546; 1412,957;110,17918
 444,38; 1591,965;   84,248; 1461,789;109,44985
 444,97; 1592,792;   84,146; 1466,359;109,14716
 445,56; 1646,714;  101,846; 1477,038;112,33841
 446,15; 1661,119;   81,651; 1522,539;109,61769
 446,74; 1648,664;   58,644; 1462,286;113,27818
 447,33; 1691,096;   82,646; 1538,357;110,49241
 447,92; 1746,138;   78,151; 1570,720;111,75275
 448,51; 1787,233;   89,746; 1586,019;113,44770
 449,10; 1805,911;   92,045; 1608,840;112,99259
 449,69; 1838,516;   73,950; 1627,741;113,56516
 450,28; 1862,502;   66,948; 1608,251;116,49583
 450,87; 1888,421;   78,647; 1656,333;114,71070
 451,46; 1931,246;   96,048; 1702,208;114,25996
 452,05; 1953,872;   70,950; 1715,384;114,50268
 452,64; 2011,675;   70,850; 1725,182;117,31775
 453,23; 2080,022;  113,752; 1794,936;116,95745
 453,82; 2091,497;   83,451; 1800,660;116,93658
 454,40; 2107,975;   65,450; 1786,682;118,66646
 454,99; 2203,770;  101,253; 1871,891;118,74347
 455,58; 2212,858;   69,747; 1832,095;121,60549
 456,17; 2250,926;   63,852; 1873,634;120,84737
 456,76; 2283,238;   67,751; 1918,820;119,68688
 457,35; 2291,365;   78,348; 1930,490;119,48423
 457,94; 2341,232;   66,954; 1978,929;118,94918
 458,53; 2358,356;   67,350; 2010,101;117,92589
 459,12; 2455,249;   82,657; 2111,116;116,96522
 459,71; 2430,984;   58,148; 2060,071;118,52784
 460,30; 2487,043;   84,448; 2087,511;119,94605
 460,89; 2507,538;   57,551; 2129,920;118,22156
 461,48; 2561,332;   75,954; 2173,829;118,47124
 462,06; 2572,053;   68,050; 2187,303;118,15495
 462,65; 2562,728;   48,249; 2176,527;118,14613
 463,24; 2662,483;   87,456; 2288,680;116,98156
 463,83; 2616,053;   54,450; 2229,803;117,75571
 464,42; 2683,368;   88,349; 2333,687;115,57366
 465,01; 2703,475;   73,050; 2336,482;116,21400
 465,60; 2713,434;   64,050; 2384,322;114,18420
 466,19; 2765,932;   73,354; 2462,829;112,68494
 466,77; 2782,419;   81,551; 2462,939;113,41572
 467,36; 2770,408;   69,457; 2459,256;113,01999
 467,95; 2807,060;   79,551; 2466,098;114,28680
 468,54; 2841,195;   71,954; 2513,866;113,40459
 469,13; 2850,382;   69,452; 2535,977;112,74687
 469,72; 2882,939;   67,555; 2582,723;111,93619
 470,31; 2913,320;   87,855; 2629,242;111,17805
 470,90; 2911,412;   76,750; 2652,044;110,07141
 471,48; 2931,589;   32,057; 2671,875;109,83833
 472,07; 3042,899;  125,747; 2686,454;113,91978
 472,66; 3050,748;   67,853; 2748,412;111,27882
 473,25; 3067,419;   68,351; 2723,339;112,95976
 473,84; 3083,817;   55,955; 2766,545;111,70489
 474,43; 3171,918;   55,459; 2843,049;111,79762
 475,01; 3195,935;   69,254; 2885,926;111,00623
 475,60; 3230,298;   49,755; 2882,364;112,28317
 476,19; 3300,133;   74,158; 2956,932;111,90523
 476,78; 3336,108;   71,057; 2964,456;112,84481
 477,37; 3365,698;   59,355; 2945,364;114,56454
 477,95; 3394,401;   75,656; 3018,661;112,76722
 478,54; 3446,070;   63,253; 3023,691;114,26745
 479,13; 3469,669;   56,253; 3070,291;113,25063
 479,72; 3542,713;   81,154; 3090,147;115,04044
 480,31; 3610,899;   63,459; 3167,468;114,28577
 480,89; 3565,835;   60,254; 3171,026;112,69168
 481,48; 3634,284;   46,260; 3214,084;113,26462
 482,07; 3669,695;   61,654; 3233,866;113,73894
 482,66; 3630,110;   52,853; 3253,650;111,76144
 483,25; 3740,084;   78,960; 3319,884;112,96544
 483,83; 3727,176;   59,954; 3325,385;112,30436
 484,42; 3755,532;   54,354; 3355,129;112,13059
 485,01; 3786,252;   65,958; 3400,413;111,57126
 485,60; 3834,782;   73,764; 3490,590;110,07342
 486,18; 3819,801;   66,956; 3490,761;109,61035
 486,77; 3808,922;   67,252; 3519,736;108,37616
 487,36; 3826,122;   58,464; 3561,750;107,54641
 487,95; 3863,587;   59,161; 3640,781;106,22081
 488,53; 3827,846;   54,461; 3642,522;105,16502
 489,12; 3808,119;   50,563; 3722,252;102,33862
 489,71; 3799,212;   38,062; 3680,357;103,26319
 490,30; 3794,965;   61,460; 3742,503;101,42519
 490,88; 3825,328;   87,561; 3859,141;99,10347
 491,47; 3781,160;   60,663; 3867,512;97,73166
 492,06; 3748,957;   62,563; 3920,615;95,55066
 492,65; 3796,009;   59,161; 3947,060;96,11485
 493,23; 3774,843;   54,860; 3982,825;94,70511
 493,82; 3772,729;   65,853; 4018,031;93,79324
 494,41; 3761,990;   51,361; 4066,179;92,42335
 494,99; 3750,317;   73,655; 4126,945;90,70809
 495,58; 3767,765;   86,060; 4224,403;88,96568
 496,17; 3742,183;   56,356; 4198,681;88,97967
 496,76; 3770,301;   65,356; 4276,761;87,97409
 497,34; 3781,130;   54,557; 4305,235;87,67008
 497,93; 3786,289;   66,057; 4350,675;86,82762
 498,52; 3815,681;   60,059; 4454,387;85,46521
 499,10; 3810,753;   75,862; 4533,217;83,79165
 499,69; 3794,462;   55,360; 4537,006;83,43145
 500,28; 3853,699;   37,959; 4592,068;83,78676
 500,86; 3887,731;   62,862; 4698,539;82,50941
 501,45; 3860,531;   53,462; 4730,438;81,40022
 502,04; 3939,212;   53,362; 4813,958;81,62530
 502,62; 3977,683;   70,956; 4856,181;81,64145
 503,21; 3950,664;   57,856; 4939,699;79,74054
 503,80; 4048,594;   69,662; 5015,577;80,44886
 504,38; 4021,743;   58,460; 5081,425;78,90326
 504,97; 4092,594;   49,962; 5122,776;79,69209
 505,56; 4096,277;   70,859; 5194,989;78,55808
 506,14; 4133,363;   64,064; 5263,709;78,26109
 506,73; 4114,966;   23,565; 5292,507;77,65129
 507,32; 4161,729;   62,865; 5376,045;77,14521
 507,90; 4181,984;   70,860; 5443,284;76,52270
 508,49; 4166,907;   58,865; 5500,366;75,49465
 509,08; 4214,441;   67,264; 5571,931;75,33929
 509,66; 4241,825;   69,960; 5677,644;74,39551
 510,25; 4270,068;   63,561; 5737,400;74,13864
 510,83; 4274,167;   45,165; 5855,607;72,78279
 511,42; 4285,364;   61,968; 5895,913;72,39349
 512,01; 4275,944;   59,164; 5980,328;71,21539
 512,59; 4295,894;   46,562; 6041,676;70,87992
 513,18; 4277,190;   59,961; 6114,379;69,65540
 513,77; 4242,967;   42,257; 6171,797;68,53223
 514,35; 4241,516;   37,763; 6190,255;68,32602
 514,94; 4231,753;   58,662; 6323,517;66,61113
 515,52; 4235,132;   48,166; 6358,342;66,35261
 516,11; 4253,226;   80,665; 6474,047;65,26374
 516,69; 4189,540;   41,959; 6446,727;64,75771
 517,28; 4176,192;   83,358; 6541,973;63,37016
 517,87; 4101,611;   45,558; 6604,054;61,84427
 518,45; 4139,774;   74,858; 6626,192;62,04715
 519,04; 4071,996;   54,258; 6707,970;60,38340
 519,62; 4163,656;   55,863; 6774,114;61,14379
 520,21; 4124,573;   24,466; 6828,002;60,26435
 520,79; 4171,001;   52,068; 7000,875;59,27541
 521,38; 4205,706;   52,960; 6995,363;59,81713
 521,97; 4250,523;   43,068; 7141,554;59,27258
 522,55; 4279,237;   67,759; 7195,230;59,08797
 523,14; 4333,977;   26,759; 7180,289;60,21109
 523,72; 4435,646;   77,561; 7383,422;59,65191
 524,31; 4485,966;   71,665; 7406,107;60,18592
 524,89; 4559,061;   48,468; 7526,815;60,31537
 525,48; 4619,895;   21,666; 7603,580;60,64734
 526,06; 4679,645;   56,264; 7633,128;61,01971
 526,65; 4856,474;   72,370; 7803,105;61,88420
 527,23; 4909,675;   46,262; 7840,596;62,39678
 527,82; 5043,598;   37,967; 7905,978;63,62004
 528,41; 5115,754;   67,366; 8041,021;63,31336
 528,99; 5206,807;   66,365; 8108,167;63,92153
 529,58; 5370,134;   42,562; 8168,736;65,56065
 530,16; 5477,391;   49,461; 8315,379;65,66638
 530,75; 5639,404;   73,964; 8417,069;66,70705
 531,33; 5714,195;   45,566; 8440,980;67,52053
 531,92; 5780,725;   48,560; 8567,344;67,28853
 532,50; 5937,312;   87,770; 8706,468;67,87036
 533,09; 6013,270;   65,665; 8807,204;68,03841
 533,67; 6112,955;   63,458; 8952,011;68,05941
 534,26; 6212,902;   65,760; 9007,665;68,74533
 534,84; 6281,309;   68,461; 9127,061;68,58508
 535,42; 6398,904;   61,564; 9205,969;69,30292
 536,01; 6489,256;   79,263; 9330,215;69,29010
 536,59; 6597,873;   43,366; 9482,202;69,44190
 537,18; 6641,662;   77,360; 9568,605;69,16165
 537,76; 6707,981;   56,972; 9764,700;68,51252
 538,35; 6770,583;   59,368; 9892,694;68,24969
 538,93; 6828,944;   72,664; 9941,828;68,45849
 539,52; 6939,174;   57,370;10111,405;68,44818
 540,10; 7019,849;   63,269;10309,029;67,89716
 540,69; 7085,400;   68,763;10444,071;67,62823
 541,27; 7146,553;   58,262;10514,917;67,78737
 541,85; 7238,192;   47,366;10658,783;67,76499
 542,44; 7202,284;   56,460;10765,484;66,72712
 543,02; 7379,549;   80,369;10952,729;67,13519
 543,61; 7451,158;   77,067;11102,218;66,88426
 544,19; 7523,351;   55,066;11264,023;66,62783
 544,78; 7513,214;   62,766;11296,562;66,32173
 545,36; 7674,567;   77,469;11521,011;66,38765
 545,94; 7668,704;   54,564;11563,069;66,16098
 546,53; 7775,700;   52,771;11724,882;66,16566
 547,11; 7888,405;   90,668;11879,873;66,14302
 547,70; 7894,062;   75,860;11954,706;65,81618
 548,28; 7983,307;   47,965;12093,066;65,88024
 548,86; 8085,207;   81,365;12327,767;65,35668
 549,45; 8097,224;   33,768;12364,953;65,39076
 550,03; 8213,539;   76,467;12507,537;65,45753
 550,62; 8329,433;   63,566;12662,842;65,60589
 551,20; 8442,058;   61,467;12808,418;65,74585
 551,78; 8438,723;   61,164;12952,850;64,98420
 552,37; 8545,504;   55,864;13112,469;65,02180
 552,95; 8656,126;   56,765;13214,547;65,35571
 553,54; 8746,967;   49,965;13393,207;65,17908
 554,12; 8822,779;   67,167;13498,797;65,18652
 554,70; 8949,405;   67,568;13736,973;64,97603
 555,29; 9025,288;   61,965;13856,285;64,97836
 555,87; 9109,093;   60,170;13987,786;64,97108
 556,45; 9162,213;   57,162;14154,058;64,58905
 557,04; 9261,677;   43,667;14376,600;64,31349
 557,62; 9346,276;   68,867;14525,499;64,17407
 558,20; 9423,540;   42,671;14799,940;63,56778
 558,79; 9552,602;  100,368;14905,875;63,84269
 559,37; 9569,258;   49,867;15000,418;63,67251
 559,95; 9699,687;   46,669;15169,691;63,82995
 560,54; 9726,864;   71,768;15324,613;63,30030
 561,12; 9874,514;   50,866;15485,562;63,64653
 561,70; 9935,227;   50,369;15679,551;63,24616
 562,29;10087,283;   61,768;15810,994;63,65719
 562,87;10135,823;   73,168;16023,953;63,08564
 563,45;10278,224;   71,068;16194,754;63,30535
 564,04;10284,976;   54,362;16227,195;63,25802
 564,62;10341,445;   37,769;16438,332;62,82514
 565,20;10437,731;   59,962;16715,838;62,30696
 565,78;10580,947;   70,765;16797,326;62,83528
 566,37;10657,991;   71,066;17011,283;62,49581
 566,95;10715,349;   52,969;17124,330;62,45770
 567,53;10763,713;   67,262;17308,857;62,03864
 568,12;10814,707;   62,265;17367,766;62,13309
 568,70;10981,285;   85,264;17565,889;62,33199
 569,28;11044,127;   61,069;17745,252;62,10667
 569,86;11137,017;   67,767;17910,758;62,03696
 570,45;11290,090;   78,569;18124,689;62,12704
 571,03;11321,572;   53,962;18259,898;61,88976
 571,61;11413,256;   46,571;18424,824;61,84856
 572,19;11408,197;   54,263;18395,773;61,90294
 572,78;11577,401;   70,668;18668,975;61,86979
 573,36;11662,204;   84,264;18797,668;61,86977
 573,94;11703,322;   44,064;18892,750;61,85714
 574,52;11775,699;   54,559;19030,768;61,76756
 575,11;11860,641;   37,264;19159,830;61,82945
 575,69;11926,095;   53,566;19268,680;61,78745
 576,27;11975,087;   47,161;19391,381;61,66145
 576,85;12134,504;   43,264;19549,668;61,98600
 577,44;12154,313;   30,262;19814,158;61,28242
 578,02;12125,980;   32,159;19753,887;61,32232
 578,60;12310,182;   50,464;20073,791;61,22718
 579,18;12401,020;   51,963;20160,752;61,41124
 579,76;12438,645;   40,264;20300,129;61,19676
 580,35;12504,071;   60,170;20436,707;61,06976
 580,93;12637,920;   59,667;20641,557;61,11321
 581,51;12631,812;   24,770;20697,168;60,98490
 582,09;12659,916;   58,663;20755,756;60,88417
 582,67;12793,458;   49,567;20971,318;60,91216
 583,26;12944,864;   28,568;21227,014;60,93039
 583,84;12945,463;   14,164;21413,709;60,42792
 584,42;13067,285;   48,064;21513,287;60,65262
 585,00;13208,295;   81,366;21772,180;60,51838
 585,58;13249,477;   25,167;21912,299;60,42048
 586,17;13238,746;   46,761;21948,521;60,23253
 586,75;13222,073;    6,666;22026,902;60,01483
 587,33;13357,898;   47,767;22191,678;60,10741
 587,91;13414,273;   74,866;22390,201;59,77686
 588,49;13421,213;   63,962;22349,758;59,93616
 589,07;13455,061;   45,468;22403,215;59,97739
 589,65;13358,536;   28,267;22444,439;59,46720
 590,24;13445,172;   42,562;22447,799;59,81910
 590,82;13394,709;   28,261;22484,160;59,52310
 591,40;13390,263;   41,464;22520,209;59,38409
 591,98;13396,939;   45,759;22558,227;59,30572
 592,56;13477,609;   61,161;22699,961;59,26307
 593,14;13394,740;   43,359;22728,928;58,85407
 593,72;13481,066;   29,765;22889,107;58,84378
 594,30;13459,381;   36,759;22797,486;58,97273
 594,89;13406,345;   41,364;22862,428;58,56423
 595,47;13424,746;   38,961;22922,623;58,49494
 596,05;13435,177;   30,267;23003,799;58,34936
 596,63;13379,776;   31,167;23056,199;57,97434
 597,21;13373,232;   36,766;23145,441;57,71195
 597,79;13271,036;   35,467;23166,039;57,22111
 598,37;13289,130;   36,669;23222,748;57,15697
 598,95;13176,673;   50,766;23305,301;56,44450
 599,53;13022,567;   46,757;23207,996;56,02382
 600,11;12946,926;   48,665;23341,947;55,37331
 600,70;12774,560;   57,363;23315,111;54,67940
 601,28;12660,463;   38,564;23424,809;53,97147
 601,86;12449,873;   61,766;23355,102;53,18305
 602,44;12176,509;   23,661;23449,660;51,87761
 603,02;12091,142;   38,656;23576,521;51,20467
 603,60;11869,633;   54,858;23663,232;50,04485
 604,18;11652,638;   69,263;23594,734;49,23759
 604,76;11456,716;   59,263;23642,154;48,32933
 605,34;11175,811;   27,565;23530,764;47,43289
 605,92;11022,950;   59,561;23453,719;46,86379
 606,50;10925,072;   17,662;23498,998;46,45140
 607,08;10916,895;   31,666;23394,881;46,59131
 607,66;10965,732;   39,266;23561,643;46,45137
 608,24;11029,017;   46,067;23522,059;46,78375
 608,82;11104,541;   26,164;23532,031;47,13026
 609,40;11177,854;   46,466;23471,021;47,52017
 609,98;11248,044;   18,864;23505,928;47,81006
 610,56;11398,506;   43,861;23497,662;48,41281
 611,14;11422,688;   30,765;23481,086;48,57897
 611,72;11484,107;   42,665;23572,467;48,62532
 612,30;11487,476;   24,962;23468,496;48,89414
 612,88;11530,736;   60,659;23517,730;48,89817
 613,46;11503,271;   21,862;23505,697;48,89069
 614,04;11515,705;   30,068;23461,873;49,01729
 614,62;11451,587;   41,561;23489,982;48,66010
 615,20;11418,161;   52,768;23402,416;48,67480
 615,78;11413,648;   25,569;23463,430;48,58839
 616,36;11377,622;   41,364;23400,150;48,53102
 616,94;11229,433;    7,666;23272,242;48,23542
 617,52;11218,420;   24,067;23373,656;47,94240
 618,10;11312,459;   63,559;23336,107;48,33549
 618,68;11171,792;   17,966;23253,184;48,00397
 619,26;11155,242;   39,268;23398,834;47,58639
 619,84;11040,138;   18,963;23277,133;47,38625
 620,42;11040,467;   31,165;23313,506;47,28606
 621,00;11011,066;   28,865;23209,607;47,37640
 621,58;10898,462;   38,760;23216,406;46,85421
 622,16;10846,415;   49,270;23335,164;46,36775
 622,74;10837,433;   47,066;23327,742;46,34903
 623,32;10717,851;   42,166;23291,223;45,91879
 623,90;10699,496;   66,971;23311,484;45,74209
 624,48;10564,472;   32,662;23196,598;45,46641
 625,05;10480,771;   34,562;23105,098;45,27944
 625,63;10429,972;   52,962;23188,799;44,85254
 626,21;10211,875;   38,262;23117,596;44,08105
 626,79;10154,157;   53,967;23219,719;43,59967
 627,37;10011,253;   28,162;23090,717;43,28701
 627,95; 9951,661;   72,768;23200,215;42,71502
 628,53; 9838,967;   49,365;23176,607;42,32931
 629,11; 9784,418;   48,259;23043,449;42,33998
 629,69; 9813,046;   53,369;23256,932;42,06111
 630,27; 9794,237;   80,763;23105,434;42,18725
 630,84; 9710,072;   43,862;23021,197;42,06846
 631,42; 9797,920;   54,367;23319,656;41,88021
 632,00; 9829,699;   45,459;23125,768;42,39215
 632,58; 9835,400;   50,263;23105,172;42,44275
 633,16; 9906,774;   49,870;23096,906;42,76864
 633,74; 9909,585;   56,264;23018,488;42,91100
 634,32; 9968,028;   45,661;23007,842;43,21178
 634,90;10073,533;   51,970;23195,746;43,30133
 635,47;10032,125;   38,860;23035,645;43,45505
 636,05; 9986,528;   37,461;22989,342;43,34750
 636,63;10007,866;   45,965;23104,807;43,20209
 637,21;10079,044;   67,464;23150,529;43,37197
 637,79; 9996,370;   71,465;23192,904;42,92512
 638,37; 9916,579;   54,055;23070,883;42,84919
 638,94; 9850,588;   33,265;23100,686;42,55926
 639,52; 9812,389;   41,665;23195,285;42,19955
 640,10; 9774,849;   64,264;23215,900;41,94341
 640,68; 9774,618;   54,164;23175,334;42,04136
 641,26; 9669,387;   35,864;23250,268;41,49804
 641,84; 9573,655;   39,164;23235,002;41,10432
 642,41; 9595,324;   28,264;23192,936;41,30022
 642,99; 9606,693;   48,464;23145,568;41,38280
 643,57; 9573,563;   22,064;23158,402;41,28354
 644,15; 9501,331;   27,064;23178,035;40,92384
 644,73; 9590,200;   37,564;23277,568;41,10428
 645,30; 9586,969;   55,264;23230,303;41,12919
 645,88; 9654,838;   44,964;23362,635;41,21284
 646,46; 9718,007;   59,264;23447,568;41,29732
 647,04; 9715,976;   51,864;23367,902;41,44834
 647,61; 9787,245;   46,564;23396,336;41,71639
 648,19; 9812,313;   61,664;23433,369;41,71989
 648,77; 9901,982;   26,264;23442,002;42,17556
 649,35; 9958,852;   51,064;23590,137;42,09081
 649,92; 9884,521;   42,464;23596,070;41,78577
 650,50; 9890,689;   30,064;23551,104;41,92257
 651,08; 9874,858;   39,964;23450,537;42,01048
 651,66; 9856,527;   21,864;23534,770;41,82666
 652,23; 9793,797;   39,064;23561,004;41,47078
 652,81; 9765,665;   36,464;23644,137;41,21203
 653,39; 9777,435;   56,164;23647,170;41,20753
 653,97; 9783,604;   37,065;23882,504;40,87381
 654,54; 9724,572;   23,565;23823,137;40,76127
 655,12; 9734,741;   30,965;23831,971;40,77045
 655,70; 9718,010;   42,065;23962,805;40,45002
 656,28; 9750,679;   32,765;23947,037;40,63646
 656,85; 9784,648;   44,065;24051,070;40,57392
 657,43; 9662,017;   -1,035;23831,305;40,54596
 658,01; 9765,786;   21,465;24078,539;40,50501
 658,58; 9923,555;   55,165;24234,371;40,81354
 659,16; 9934,924;   51,965;24154,105;41,00449
 659,74; 9985,593;   59,465;24338,039;40,88431
 660,32;10098,861;   71,665;24327,672;41,33902
 660,89;10109,830;   34,265;24347,305;41,44099
 661,47;10291,199;   51,665;24464,939;41,94249
 662,05;10304,068;   25,365;24587,373;41,84798
 662,62;10501,737;   59,665;24584,006;42,57840
 663,20;10605,706;   80,665;24740,139;42,68153
 663,78;10621,675;   47,965;24902,773;42,54191
 664,35;10646,145;   52,465;24921,006;42,59872
 664,93;10768,913;   64,465;25123,539;42,71685
 665,51;10714,282;   49,565;25170,973;42,45271
 666,08;10698,251;   30,165;25185,707;42,40849
 666,66;10851,420;   47,465;25667,539;42,16988
 667,23;10837,389;   51,765;25732,773;41,99844
 667,81;10930,258;   65,865;25889,307;42,07182
 668,39;10949,026;   43,265;26047,141;41,93898
 668,96;11033,996;   54,665;26309,074;41,81900
 669,54;11028,265;   38,765;26408,408;41,67481
 670,12;11188,434;   51,165;26808,740;41,62286
 670,69;11214,603;   64,165;26950,674;41,47224
 671,27;11238,672;   25,565;27096,008;41,42196
 671,84;11265,740;   40,665;27105,240;41,47516
 672,42;11350,909;   66,265;27253,875;41,50657
 673,00;11447,679;   57,165;27531,408;41,45888
 673,57;11481,947;   59,965;27276,441;41,96716
 674,15;11547,916;   64,065;27613,475;41,68456
 674,72;11600,785;   58,565;27536,209;42,00586
 675,30;11638,554;   69,466;27513,541;42,15514
 675,88;11720,823;   36,266;27573,176;42,43235
 676,45;11798,392;   59,466;27677,309;42,50486
 677,03;11741,661;   67,866;27525,043;42,51637
 677,60;11825,529;   41,466;27770,576;42,49708
 678,18;12012,599;   59,466;27877,510;42,96899
 678,76;11992,567;   40,766;27809,143;43,04105
 679,33;12014,036;   57,666;27813,176;43,07747
 679,91;11975,705;   44,266;27813,311;42,96669
 680,48;11942,475;   28,766;27740,242;42,99197
 681,06;11898,344;   50,866;27735,176;42,79492
 681,63;11843,212;   37,566;27736,209;42,62175
 682,21;11883,081;   67,966;27797,543;42,60835
 682,78;11731,950;   20,566;27459,576;42,68151
 683,36;11763,219;   46,966;27565,510;42,57585
 683,93;11721,888;   30,466;27450,645;42,63802
 684,51;11733,657;   26,166;27477,277;42,64851
 685,08;11700,926;   38,966;27733,711;42,10893
 685,66;11750,095;   53,066;27694,045;42,31771
 686,24;11825,764;   33,766;27796,578;42,47408
 686,81;11806,433;   57,666;27899,910;42,19763
 687,39;11889,202;   38,866;27807,844;42,67473
 687,96;11968,570;   54,166;27850,479;42,86325
 688,54;12020,739;   30,866;27984,811;42,89153
 689,11;12105,108;   26,966;28043,545;43,11070
 689,69;12215,878;   29,666;28019,279;43,53834
 690,26;12324,746;   59,466;28289,313;43,44792
 690,84;12456,315;   50,066;28239,846;44,00974
 691,41;12567,084;   35,966;28403,879;44,17356
 691,98;12655,753;   31,466;28427,912;44,45728
 692,56;12755,022;   32,866;28437,445;44,78910
 693,13;12874,491;   64,866;28655,080;44,80423
 693,71;12941,560;   24,466;28657,912;45,11191
 694,28;12899,429;   41,966;28715,945;44,84017
 694,86;13071,998;   47,266;28928,879;45,09697
 695,43;13117,867;   61,366;29100,912;44,96111
 696,01;13177,936;   36,266;29145,547;45,14598
 696,58;13218,005;   42,167;29083,879;45,36867
 697,16;13241,573;   38,067;29126,414;45,39105
 697,73;13389,843;   63,467;29338,246;45,52170
 698,30;13339,611;   51,867;29223,980;45,54948
 698,88;13375,580;   40,467;29558,613;45,17598
 699,45;13405,850;   35,367;29765,848;44,97231
 700,03;13590,719;   56,067;29750,980;45,57902
 700,60;13572,888;   56,267;29850,613;45,36640
 701,18;13729,856;   61,867;29963,947;45,70916
 701,75;13757,925;   74,367;30094,682;45,58099
 702,32;13825,794;   50,367;29901,914;46,14644
 702,90;13932,763;   52,467;30254,148;45,95869
 703,47;14094,632;   51,367;30428,881;46,22914
 704,05;14134,901;   67,767;30546,715;46,15361
 704,62;14271,770;   39,867;30587,848;46,58869
 705,19;14393,539;   43,667;30586,982;46,98204
 705,77;14573,708;   29,967;30618,314;47,54667
 706,34;14662,377;   61,667;30627,049;47,76878
 706,91;14757,046;   46,367;30673,883;48,03092
 707,49;14891,614;   57,267;30976,316;47,97802
 708,06;14998,483;   66,367;31089,049;48,13290
 708,64;15177,753;   25,767;31093,582;48,77068
 709,21;15277,521;   58,167;31179,316;48,90357
 709,78;15381,090;   41,367;31281,150;49,10317
 710,36;15493,959;   61,667;31419,684;49,21323
 710,93;15557,128;   50,567;31562,416;49,20867
 711,50;15636,397;   44,467;31506,049;49,55863
 712,08;15826,066;   76,567;31925,383;49,45082
 712,65;15888,035;   73,667;31775,916;49,88406
 713,22;15784,504;   69,067;31900,250;49,37120
 713,80;15902,272;   84,167;31966,883;49,61342
 714,37;15790,742;   55,767;31827,018;49,52583
 714,94;15897,911;   53,967;31727,551;50,02258
 715,52;15870,779;   47,867;31732,984;49,93799
 716,09;15934,049;   65,467;31891,918;49,85973
 716,66;15908,518;   73,467;31935,051;49,69951
 717,23;15959,687;   66,867;31908,484;49,91210
 717,81;15989,455;   50,168;31812,018;50,18375
 718,38;15962,824;   47,468;31671,252;50,32717
 718,95;16078,894;   59,068;31618,984;50,76004
 719,53;16116,462;   56,568;31661,418;50,81465
 720,10;16075,131;   59,968;31481,252;50,96916
 720,67;16066,800;   35,768;31355,984;51,18430
 721,24;16131,270;   59,468;31256,020;51,51788
 721,82;16147,138;   49,968;31236,053;51,61651
 722,39;16286,907;   64,068;31235,885;52,04329
 722,96;16304,576;   64,968;31261,420;52,05595
 723,53;16370,245;   88,268;31151,953;52,41483
 724,11;16609,814;   61,568;31207,486;53,13135
 724,68;16617,684;   71,568;31242,020;53,08269
 725,25;16676,752;   72,768;31399,953;53,00184
 725,82;16837,021;   96,068;31564,387;53,19939
 726,40;16854,189;   62,668;31714,820;53,05017
 726,97;16947,158;   62,168;31875,354;53,07545
 727,54;17030,727;   46,968;31801,486;53,48454
 728,11;17220,496;   49,568;32045,820;53,66544
 728,69;17113,564;   39,568;31938,953;53,52453
 729,26;17205,734;   53,568;32105,088;53,51436
 729,83;17255,504;   53,268;32264,621;53,40426
 730,40;17459,072;   66,768;32291,754;53,97149
 730,97;17483,441;   44,268;32590,588;53,58263
 731,55;17519,811;   41,468;32755,820;53,42714
 732,12;17537,279;   86,268;32841,656;53,27676
 732,69;17489,648;   66,968;32889,988;53,08067
 733,26;17431,916;   55,168;32930,520;52,85646
 733,83;17687,887;   41,168;32979,055;53,57575
 734,41;17825,754;   65,468;32991,590;53,93980
 734,98;17842,324;   51,368;33155,621;53,74221
 735,55;18038,793;   43,168;33183,656;54,30102
 736,12;18247,461;   65,968;33377,289;54,58052
 736,69;18340,131;   76,968;33377,922;54,84276
 737,26;18236,000;   57,468;33552,254;54,27272
 737,84;18357,068;   70,768;33487,188;54,72250
 738,41;18445,037;   63,168;33492,422;54,98737
 738,98;18574,406;   63,569;33375,055;55,56893
 739,55;18619,574;   49,669;33377,789;55,71843
 740,12;18751,545;   62,969;33678,023;55,59585
 740,69;18809,213;   70,569;33575,656;55,92776
 741,26;18909,781;   56,269;33557,391;56,27726
 741,83;18965,852;   53,869;33719,523;56,17590
 742,41;18935,520;   56,169;33833,055;55,89429
 742,98;19110,088;   91,469;33874,590;56,29622
 743,55;19161,559;   53,569;33836,824;56,56053
 744,12;19143,027;   50,469;33859,855;56,47118
 744,69;19187,996;   59,569;33848,492;56,61153
 745,26;19169,664;   42,169;33677,723;56,86690
 745,83;19251,033;   58,769;33854,355;56,78926
 746,40;19169,602;   57,969;33844,789;56,56535
 746,97;19027,971;   44,769;33828,125;56,19099
 747,55;19130,740;   62,269;33966,957;56,24140
 748,12;19140,109;   57,869;33910,191;56,36907
 748,69;19183,178;   68,769;33877,625;56,53669
 749,26;19190,547;   65,069;33958,559;56,42818
 749,83;18990,217;   42,569;33911,992;55,94323
 750,40;19148,885;   89,669;34158,824;55,94273
 750,97;19218,654;   96,269;34144,160;56,16320
 751,54;19257,623;   40,569;33980,793;56,62029
 752,11;19241,393;   52,969;33874,727;56,73396
 752,68;19169,660;   87,869;33912,859;56,41329
 753,25;19180,629;   60,269;33774,594;56,71287
 753,82;19237,699;   65,069;33810,527;56,81544
 754,39;19302,668;   75,169;33727,160;57,13629
 754,96;19343,936;   60,069;33616,395;57,46716
 755,53;19330,205;   29,469;33796,527;57,15848
 756,10;19376,475;   64,169;33720,961;57,38011
 756,67;19449,344;   73,369;33813,395;57,42727
 757,24;19243,012;   72,769;33740,426;56,93964
 757,81;19275,480;   16,469;33677,762;57,21412
 758,38;19381,051;   54,569;33822,695;57,23291
 758,95;19453,520;   79,469;33743,426;57,55132
 759,52;19363,287;   57,469;33615,859;57,52903
 760,09;19308,156;   68,570;33306,992;57,88357
 760,66;19252,025;   59,570;33309,727;57,72140
 761,23;19253,395;   91,070;33353,961;57,60872
 761,80;19025,264;   56,270;33295,793;57,06759
 762,37;19044,434;   68,970;33167,727;57,32984
 762,94;19188,301;   70,970;33187,461;57,72753
 763,51;19000,570;   36,070;32949,793;57,61883
 764,08;19057,939;   66,270;32998,527;57,66890
 764,65;19008,908;   69,570;32798,961;57,86646
 765,22;18955,877;   54,670;32804,496;57,71392
 765,79;18929,346;   77,370;32691,928;57,80233
 766,36;19013,516;   73,170;32743,063;57,97493
 766,93;18902,283;   68,970;32551,295;57,98019
 767,50;18949,053;   89,470;32828,328;57,60611
 768,07;18912,922;   63,870;32699,262;57,75648
 768,64;18833,490;   86,470;32572,596;57,70777
 769,21;18688,760;   57,970;32359,729;57,67732
 769,78;18643,229;   78,770;32244,963;57,71419
 770,34;18569,098;   45,570;32031,195;57,91204
 770,91;18499,867;   58,470;31921,430;57,87723
 771,48;18531,736;   62,370;31836,863;58,12639
 772,05;18522,904;   66,470;31610,697;58,50970
 772,62;18323,674;   42,670;31443,029;58,21909
 773,19;18403,342;   59,370;31579,764;58,19715
 773,76;18431,412;   71,070;31506,297;58,40690
 774,33;18273,881;   74,170;31447,330;58,01045
 774,90;18234,648;   52,870;31206,064;58,36248
 775,47;18146,018;   59,970;30957,498;58,53558
 776,03;18107,887;   73,470;30984,330;58,34330
 776,60;18053,756;   55,970;30757,863;58,62109
 777,17;18029,324;   65,470;30698,098;58,64288
 777,74;17862,094;   30,870;30522,031;58,47998
 778,31;17822,662;   68,970;30582,064;58,18385
 778,88;17692,932;   30,470;30366,898;58,22195
 779,45;17692,201;   75,770;30358,131;58,17390
 780,01;17705,570;   58,370;30299,664;58,35465
 780,58;17595,338;   60,570;30177,998;58,22133
 781,15;17407,008;   38,771;29979,432;58,00886
 781,72;17395,576;   66,771;29962,266;57,96460
 782,29;17266,246;   51,771;29667,100;58,12691
 782,86;17190,615;   55,571;29617,732;57,96276
 783,42;17047,982;   56,171;29598,166;57,51748
 783,99;16992,453;   66,671;29482,100;57,54049
 784,56;16969,621;   55,171;29320,232;57,79742
 785,13;16926,090;   40,271;29247,266;57,81430
 785,70;16808,959;   49,071;29060,299;57,77035
 786,26;16737,527;   51,671;28910,732;57,81843
 786,83;16805,697;   84,371;28889,166;58,05050
 787,40;16750,467;   57,171;28783,500;58,11148
 787,97;16608,035;   43,971;28581,133;58,04384
 788,54;16571,904;   70,371;28515,268;58,01228
 789,10;16387,072;   57,971;28344,400;57,72769
 789,67;16413,941;   70,371;28245,334;58,00742
 790,24;16449,510;   51,071;28193,768;58,26890
 790,81;16203,479;   88,271;27914,400;57,91394
 791,37;16206,648;   73,671;27872,135;58,03550
 791,94;16173,817;   70,771;27886,367;57,89215
 792,51;15960,687;   46,271;27539,201;57,88548
 793,08;16069,255;   69,771;27555,234;58,21071
 793,64;15911,524;   71,271;27455,168;57,84514
 794,21;15841,993;   69,671;27250,602;58,02716
 794,78;15789,762;   53,071;27147,035;58,08191
 795,35;15739,931;   73,471;27007,969;58,16503
 795,91;15500,600;   48,071;26789,301;57,78541
 796,48;15460,469;   55,771;26710,734;57,79298
 797,05;15464,738;   57,671;26624,369;57,99391
 797,62;15349,307;   41,971;26600,701;57,63580
 798,18;15222,775;   57,471;26410,736;57,54621
 798,75;15145,245;   56,571;26279,770;57,53941
 799,32;15154,813;   60,771;26209,102;57,72469
 799,88;15047,583;   55,971;26051,535;57,66988
 800,45;14947,451;   33,971;25945,270;57,55590
 801,02;14909,421;   65,271;25880,104;57,50241
 801,58;14836,090;   90,872;25660,436;57,66707
 802,15;14737,858;   72,872;25615,270;57,41429
 802,72;14658,027;   66,172;25404,703;57,58761
 803,28;14595,896;   49,172;25288,938;57,63415
 803,85;14515,065;   41,972;25144,871;57,65507
 804,42;14484,734;   77,772;24948,004;57,92854
 804,98;14433,104;  100,672;24935,537;57,71093
 805,55;14322,772;   56,972;24702,371;57,88423
 806,12;14260,741;   83,572;24611,004;57,80128
 806,68;14155,010;   66,472;24493,738;57,67546
 807,25;14200,479;   74,972;24436,271;57,98339
 807,82;14113,048;   86,872;24407,805;57,67121
 808,38;14099,917;   73,672;24367,037;57,73694
 808,95;14058,086;   62,972;24166,971;58,06138
 809,52;13915,854;   50,272;24162,004;57,50554
 810,08;13852,823;   55,172;23994,938;57,63486
 810,65;13866,893;   77,172;24169,672;57,23657
 811,21;13835,961;   69,972;24123,404;57,23087
 811,78;13831,030;   92,472;24337,539;56,66538
 812,35;13789,600;   64,972;24173,871;56,92764
 812,91;13846,668;   90,072;24239,705;56,96400
 813,48;13786,537;   68,172;24202,738;56,84115
 814,04;13741,106;   64,172;24088,373;56,92982
 814,61;13644,675;   77,572;24176,006;56,29869
 815,18;13564,744;   67,772;23892,539;56,65101
 815,74;13457,413;   69,772;23709,172;56,63274
 816,31;13348,082;   83,372;23614,406;56,37113
 816,87;13212,251;   43,272;23489,641;56,16639
 817,44;13254,420;   76,972;23452,273;56,37338
 818,00;13155,988;   43,272;23159,506;56,72514
 818,57;13141,958;   71,872;23076,340;56,81542
 819,14;12933,526;   82,872;22924,273;56,26036
 819,70;12816,195;   72,672;22792,707;56,08936
 820,27;12791,465;   62,972;22691,941;56,24866
 820,83;12684,934;   70,072;22541,373;56,13765
 821,40;12631,502;   98,072;22431,908;56,11857
 821,96;12610,771;   75,272;22315,541;56,36397
 822,53;12532,540;   70,973;22257,574;56,16709
 823,09;12370,310;   81,073;22073,309;55,87989
 823,66;12305,078;   68,173;21862,541;56,14710
 824,22;12243,847;   77,173;21851,674;55,87579
 824,79;12166,616;   75,473;21561,408;56,27469
 825,35;11995,685;   65,173;21648,041;55,27769
 825,92;11940,354;   75,173;21398,875;55,64316
 826,48;11855,423;   87,673;21501,309;54,95447
 827,05;11766,592;   89,573;21448,242;54,67110
 827,61;11650,461;   75,273;21249,076;54,66750
 828,18;11646,630;   60,873;21191,209;54,82997
 828,74;11590,998;   91,673;21053,543;54,85830
 829,31;11500,968;   83,373;21002,176;54,58054
 829,87;11455,736;   73,073;20733,709;55,09348
 830,44;11416,105;   85,173;20631,443;55,14837
 831,00;11384,574;   91,273;20673,977;54,86792
 831,57;11351,843;  101,573;20631,609;54,79907
 832,13;11120,612;   72,073;20323,344;54,55726
 832,69;11024,781;   58,173;20309,477;54,15260
 833,26;11071,550;   85,473;20322,711;54,28644
 833,82;10957,519;   93,073;20197,744;54,03941
 834,39;10874,988;   78,773;20137,477;53,82310
 834,95;10833,557;   57,173;19959,410;54,14659
 835,52;10814,626;   87,873;19851,744;54,27455
 836,08;10740,795;   95,573;19951,877;53,61130
 836,64;10733,863;   76,273;19800,711;54,03242
 837,21;10726,133;   88,673;19552,443;54,65262
 837,77;10660,901;   91,873;19491,777;54,47980
 838,34;10498,271;   67,473;19470,012;53,75996
 838,90;10416,039;   64,473;19306,045;53,79792
 839,46;10473,408;   83,873;19312,479;54,03166
 840,03;10472,077;   76,173;19300,811;54,07594
 840,59;10312,246;   85,873;19175,645;53,56991
 841,16;10323,715;  105,173;19156,578;53,63668
 841,72;10214,484;   59,373;18965,512;53,71330
 842,28;10240,153;   77,873;18857,246;54,11405
 842,85;10192,622;   95,573;18812,578;53,94586
 843,41;10127,991;  105,374;18740,813;53,78257
 843,97;10081,560;   89,174;18686,846;53,72923
 844,54;10079,829;  104,774;18624,979;53,86039
 845,10; 9959,197;   89,174;18523,713;53,54093
 845,67; 9907,167;   68,774;18413,445;53,63080
 846,23; 9878,836;   78,674;18361,080;53,60433
 846,79; 9831,404;   90,474;18265,613;53,59480
 847,36; 9707,073;   55,774;18179,047;53,25362
 847,92; 9735,442;   84,874;18034,680;53,76419
 848,48; 9675,411;   41,874;18039,213;53,52756
 849,04; 9654,380;   62,374;17949,447;53,62535
 849,61; 9653,649;   56,274;17918,580;53,72977
 850,17; 9733,519;   68,174;17819,514;54,44854
 850,73; 9620,087;   71,474;17764,848;53,96717
 851,30; 9485,856;   46,074;17669,881;53,56268
 851,86; 9487,325;   75,874;17597,914;53,71207
 852,42; 9482,894;   51,174;17568,348;53,84270
 852,99; 9422,163;   79,274;17583,082;53,37632
 853,55; 9436,532;   83,174;17542,514;53,57223
 854,11; 9383,501;   70,074;17432,049;53,64267
 854,67; 9313,670;   85,474;17420,881;53,23322
 855,24; 9269,539;   51,874;17213,414;53,71118
 855,80; 9318,607;   76,874;17244,848;53,83124
 856,36; 9228,776;   80,574;17175,881;53,51295
 856,92; 9096,846;   54,474;17027,215;53,27585
 857,49; 9156,114;   81,274;17048,248;53,48532
 858,05; 9111,184;   67,274;16968,482;53,51043
 858,61; 9032,052;   65,774;17003,316;52,93730
 859,17; 9044,121;   77,374;16904,250;53,28825
 859,74; 8939,690;   82,074;16836,883;52,86611
 860,30; 8947,859;   93,074;16663,016;53,43884
 860,86; 8882,728;   72,074;16692,350;53,01148
 861,42; 8884,297;   74,674;16545,883;53,48498
 861,99; 8838,666;   54,674;16506,717;53,39150
 862,55; 8772,035;   66,374;16393,051;53,32170
 863,11; 8877,104;   75,174;16437,283;53,79459
 863,67; 8789,873;   61,274;16290,117;53,78448
 864,23; 8785,542;   80,175;16199,351;54,00628
 864,80; 8734,011;   69,175;16081,384;54,11393
 865,36; 8766,979;   71,875;16120,817;54,17868
 865,92; 8697,948;   96,175;16088,751;53,78604
 866,48; 8643,218;   67,375;15987,384;53,86833
 867,04; 8574,786;   60,675;15891,418;53,78213
 867,60; 8547,155;   99,375;15884,451;53,51751
 868,17; 8513,524;   93,675;15884,685;53,32053
 868,73; 8425,394;   82,775;15672,618;53,51317
 869,29; 8352,462;   59,475;15470,151;53,81326
 869,85; 8353,131;  100,475;15369,685;54,04770
 870,41; 8270,100;   80,575;15293,418;53,83297
 870,97; 8284,769;   92,975;15232,252;54,10954
 871,54; 8179,438;   84,175;15178,686;53,63051
 872,10; 8162,607;   84,275;15055,419;53,95935
 872,66; 8010,576;   66,775;14910,652;53,51567
 873,22; 8035,845;   81,975;14890,586;53,71111
 873,78; 7873,114;   65,275;14742,419;53,19726
 874,34; 7818,783;   95,075;14662,652;53,01985
 874,90; 7796,482;  109,775;14536,053;53,28268
 875,46; 7842,783;   96,375;14412,952;54,10796
 876,03; 7713,982;   86,475;14363,353;53,42560
 876,59; 7612,083;   64,475;14153,253;53,57177
 877,15; 7622,283;  101,475;14166,853;53,47036
 877,71; 7604,683;   78,275;14064,652;53,81242
 878,27; 7579,583;   95,675;13910,553;54,17281
 878,83; 7577,382;  114,275;13971,753;53,85617
 879,39; 7479,382;   91,075;14082,753;52,80501
 879,95; 7466,382;   86,275;13964,253;53,17855
 880,51; 7452,083;   75,175;13927,253;53,25488
 881,07; 7504,982;   82,375;13978,753;53,41397
 881,63; 7539,683;   92,575;13971,253;53,65862
 882,19; 7587,583;   82,675;13921,553;54,23061
 882,75; 7625,882;   86,275;14019,553;54,11223
 883,31; 7680,882;   95,575;14187,853;53,82599
 883,88; 7691,482;   96,375;14174,353;53,95027
 884,44; 7592,683;   76,175;14175,753;53,31016
 885,00; 7682,583;  106,075;14266,952;53,50309
 885,56; 7699,982;  101,675;14299,452;53,51758
 886,12; 7753,283;  109,875;14421,152;53,40828
 886,68; 7697,583;   90,775;14436,753;53,02397
 887,24; 7788,283;  102,475;14574,952;53,10637
 887,80; 7775,982;   86,975;14671,753;52,71940
 888,36; 7876,783;  106,275;14715,652;53,18849
 888,92; 7923,583;   98,975;14773,353;53,32156
 889,48; 7999,482;   99,575;14973,853;53,11120
 890,04; 8018,482;   95,275;14803,053;53,87087
 890,60; 8032,283;  117,475;15014,652;53,12958
 891,16; 7984,683;   99,875;15075,853;52,64970
 891,72; 8030,083;  113,275;15058,452;52,97232
 892,28; 8015,982;  112,475;15126,053;52,64240
 892,84; 7978,482;   93,775;15039,853;52,75436
 893,39; 7964,183;  117,575;15112,952;52,32684
 893,95; 7995,482;  112,975;15044,753;52,79015
 894,51; 7906,283;   66,375;14891,253;52,88346
 895,07; 7964,683;  127,375;14906,353;53,03011
 895,63; 7805,382;   74,275;14689,952;52,89599
 896,19; 7733,283;   90,375;14601,952;52,66766
 896,75; 7752,783;  105,175;14460,152;53,27495
 897,31; 7716,083;   82,775;14295,853;53,70623
 897,87; 7567,083;   98,175;14146,853;53,16449
 898,43; 7506,583;   87,775;14075,753;53,03703
 898,99; 7463,183;  109,175;14002,753;52,93098
 899,55; 7387,083;  109,475;13940,652;52,61741
 900,11; 7298,482;  104,975;13747,553;52,72836
 900,67; 7282,783;   91,375;13658,652;53,00553
 901,22; 7205,882;  108,375;13601,952;52,59915
 901,78; 7131,683;   91,275;13560,053;52,27206
 902,34; 7008,283;  103,075;13451,152;51,73185
 902,90; 6950,683;   73,575;13350,652;51,79685
 903,46; 6914,783;   95,775;13236,353;51,89276
 904,02; 6843,982;   88,075;13091,553;51,95462
 904,58; 6733,083;   67,075;12918,152;51,87120
 905,14; 6723,982;   63,975;12874,553;51,98835
 905,70; 6591,283;   66,775;12696,053;51,66176
 906,25; 6580,083;   84,375;12708,452;51,45491
 906,81; 6587,783;   87,675;12732,152;51,40669
 907,37; 6506,283;   79,275;12616,152;51,26482
 907,93; 6478,482;   74,775;12588,152;51,17489
 908,49; 6418,382;  101,875;12497,652;50,95693
 909,05; 6387,482;   89,675;12425,553;51,05277
 909,60; 6380,482;   86,575;12340,452;51,36258
 910,16; 6298,183;   67,675;12291,853;50,96873
 910,72; 6279,982;  100,475;12207,753;51,03961
 911,28; 6227,283;   90,875;12156,053;50,86048
 911,84; 6236,783;   79,575;12106,753;51,19412
 912,39; 6217,683;   73,475;12049,353;51,30486
 912,95; 6234,583;  104,475;12001,452;51,52660
 913,51; 6194,382;   85,375;11945,253;51,50987
 914,07; 6075,982;   83,775;11813,452;51,08587
 914,63; 6053,482;   64,775;11748,053;51,25880
 915,18; 5995,783;   77,475;11617,853;51,28348
 915,74; 5941,882;   63,975;11632,652;50,80881
 916,30; 5857,683;   61,475;11588,553;50,28341
 916,86; 5835,382;   83,575;11514,652;50,31728
 917,42; 5862,183;   82,275;11425,152;50,95627
 917,97; 5762,683;   75,375;11265,452;50,82456
 918,53; 5668,583;   67,775;11196,253;50,32860
 919,09; 5672,183;   88,975;11223,753;50,14207
 919,65; 5564,583;   83,375;11083,452;49,82881
 920,20; 5452,183;   61,875;10983,053;49,35647
 920,76; 5457,382;   65,475;10849,452;49,99925
 921,32; 5435,783;   82,675;10770,952;50,08392
 921,87; 5327,982;   97,475;10670,253;49,47146
 922,43; 5275,583;   64,675;10561,353;49,64340
 922,99; 5165,283;   61,875;10406,753;49,33270
 923,55; 5114,183;   63,775;10357,353;49,06368
 924,10; 5083,382;   73,575;10282,853;49,07112
 924,66; 5071,283;   78,675;10170,152;49,47351
 925,22; 4942,283;   43,275;10093,952;48,74306
 925,77; 4915,982;   66,075; 9927,053;49,18283
 926,33; 4895,683;   90,375; 9903,253;48,96940
 926,89; 4819,882;   71,975; 9692,753;49,35056
 927,44; 4730,982;   52,175; 9580,553;49,10392
 928,00; 4684,482;   66,875; 9533,753;48,77645
 928,56; 4659,783;   80,375; 9372,253;49,28398
 929,12; 4564,583;   72,775; 9275,152;48,81138
 929,67; 4489,283;   67,575; 9091,053;49,00226
 930,23; 4413,583;   50,975; 8915,253;49,21560
 930,78; 4363,982;  100,675; 8842,553;48,76878
 931,34; 4259,783;   61,975; 8632,152;48,98157
 931,90; 4139,283;   61,675; 8494,353;48,35484
 932,45; 4032,782;   78,775; 8290,753;48,14927
 933,01; 3903,982;   52,975; 8024,453;48,30983
 933,57; 3748,183;   72,175; 7753,252;47,85797
 934,12; 3611,383;   70,475; 7399,553;48,31314
 934,68; 3420,383;   59,075; 7020,252;48,28648
 935,24; 3201,883;   67,875; 6614,752;47,87026
 935,79; 3027,383;   72,975; 6254,853;47,79143
 936,35; 2812,583;   91,375; 5812,252;47,56626
 936,90; 2621,782;   80,275; 5348,752;48,23989
 937,46; 2420,482;   72,775; 4956,953;48,06761
 938,02; 2173,583;   63,375; 4549,152;47,04218
 938,57; 2081,782;   73,175; 4265,053;47,91665
 939,13; 1909,983;   70,575; 3986,752;46,96946
 939,68; 1772,382;   57,375; 3713,452;46,90840
 940,24; 1698,782;   68,775; 3504,052;47,44908
 940,79; 1639,282;   91,875; 3391,052;46,90283
 941,35; 1577,583;   79,675; 3217,552;47,73633
 941,91; 1504,983;   71,375; 3122,252;46,99001
 942,46; 1510,583;   75,075; 3063,552;48,03474
 943,02; 1445,583;   65,375; 3050,752;46,23226
 943,57; 1435,483;   61,275; 2982,452;47,04293
 944,13; 1454,083;   67,375; 2974,452;47,70109
 944,68; 1435,182;   65,975; 3041,752;46,01176
 945,24; 1491,983;   82,275; 3060,052;47,34093
 945,79; 1470,083;   68,775; 3104,052;46,16736
 946,35; 1473,782;   51,775; 3194,752;45,24396
 946,90; 1535,983;   98,575; 3283,552;45,13085
 947,46; 1558,882;   52,175; 3311,052;46,23394
 948,01; 1565,983;   51,575; 3390,052;45,36222
 948,57; 1633,583;   86,775; 3552,952;44,62575
 949,12; 1648,083;   65,875; 3613,353;44,60092
 949,68; 1683,882;   76,275; 3732,653;43,96722
 950,23; 1714,583;   70,075; 3833,252;43,69997
 950,79; 1747,382;   75,775; 3933,452;43,33197
 951,34; 1788,083;   83,275; 4070,952;42,75189
 951,90; 1793,782;   57,475; 4140,853;42,52136
 952,45; 1853,182;   81,075; 4292,152;42,08205
 953,01; 1886,682;   65,975; 4364,252;42,35900
 953,56; 1913,382;   87,975; 4500,853;41,36547
 954,12; 1907,583;   42,075; 4567,553;41,22233
 954,67; 1948,682;   70,875; 4720,453;40,38663
 955,23; 1957,782;   61,975; 4804,553;39,97420
 955,78; 2000,882;   67,175; 4882,953;40,15359
 956,33; 2016,083;   58,575; 4947,252;40,04166
 956,89; 2040,182;   53,475; 5038,553;39,85309
 957,44; 2068,083;   53,675; 5170,752;39,36637
 958,00; 2103,782;   49,475; 5238,353;39,59059
 958,55; 2118,982;   70,475; 5313,953;39,06772
 959,10; 2144,782;   52,375; 5370,252;39,34667
 959,66; 2155,183;   74,275; 5488,752;38,43229
 960,21; 2170,782;   78,475; 5567,453;38,11835
 960,77; 2192,782;   54,275; 5606,152;38,51864
 961,32; 2194,583;   48,375; 5663,453;38,22222
 961,87; 2195,282;   79,775; 5738,752;37,38321
 962,43; 2196,383;   68,975; 5780,652;37,24663
 962,98; 2196,482;   76,175; 5828,652;36,85903
 963,54; 2153,782;   27,075; 5820,652;36,70802
 964,09; 2173,583;   56,275; 5873,953;36,39438
 964,64; 2173,982;   64,975; 5901,053;36,13741
 965,20; 2161,982;   44,375; 5966,652;35,75664
 965,75; 2148,982;   66,575; 5976,353;35,23665
 966,30; 2149,383;   75,275; 6068,553;34,60723
 966,86; 2138,583;   62,975; 6121,953;34,25673
 967,41; 2117,383;   81,075; 6084,453;33,91936
 967,96; 2134,482;   75,175; 6108,953;34,12965
 968,52; 2130,782;   81,775; 6126,353;33,89827
 969,07; 2083,583;   72,975; 6120,152;33,24869
 969,62; 2059,982;   77,175; 6134,953;32,73160
 970,18; 2053,282;   57,575; 6147,652;32,76982
 970,73; 2030,983;   66,475; 6203,553;32,01047
 971,28; 2060,482;   95,775; 6197,053;32,20157
 971,84; 1987,182;   55,075; 6118,752;31,86363
 972,39; 1977,583;   95,875; 6148,652;31,08833
 972,94; 1957,182;   54,975; 6140,652;31,25712
 973,49; 1946,583;   64,575; 6141,252;30,97100
 974,05; 1930,483;   64,375; 6178,053;30,52349
 974,60; 1942,983;   88,575; 6213,252;30,27764
 975,15; 1932,483;   77,675; 6231,553;30,14047
 975,71; 1876,483;   62,375; 6121,453;29,94033
 976,26; 1898,382;   77,575; 6110,252;30,18241
 976,81; 1881,483;   90,675; 6134,152;29,63207
 977,36; 1841,583;   84,775; 6156,953;28,93208
 977,92; 1863,782;   90,175; 6209,353;28,98441
 978,47; 1817,182;   77,175; 6060,252;29,08215
 979,02; 1807,182;   95,475; 6085,652;28,57524
 979,57; 1769,782;   86,775; 6058,453;28,18316
 980,13; 1732,682;   76,175; 6038,752;27,78174
 980,68; 1710,782;   77,075; 6010,553;27,53373
 981,23; 1700,782;   89,175; 6054,652;27,01557
 981,78; 1677,282;   82,075; 5974,152;27,07377
 982,33; 1647,483;   79,275; 5893,252;26,97306
 982,89; 1648,983;   94,375; 5938,152;26,60279
 983,44; 1578,882;   65,675; 5935,853;25,77788
 983,99; 1606,882;  104,775; 5949,453;25,70043
 984,54; 1561,782;   81,475; 5900,053;25,44105
 985,09; 1545,483;   87,275; 5873,752;25,20026
 985,65; 1489,782;   69,375; 5811,853;24,73510
 986,20; 1479,282;  106,575; 5791,152;24,14792
 986,75; 1460,583;   95,875; 5823,953;23,82488
 987,30; 1436,682;   97,175; 5726,053;23,79706
 987,85; 1390,583;   92,475; 5721,353;23,06157
 988,40; 1416,182;   96,675; 5693,953;23,57409
 988,96; 1378,583;  114,875; 5666,553;22,76262
 989,51; 1370,682;  108,875; 5644,053;22,79615
 990,06; 1359,782;  128,275; 5680,853;22,17902
 990,61; 1349,083;   93,575; 5569,053;22,92964
 991,16; 1326,382;  104,375; 5558,053;22,40703
 991,71; 1267,583;   79,875; 5505,853;21,88928
 992,26; 1269,682;   93,475; 5457,252;21,92872
 992,81; 1229,382;   75,075; 5427,053;21,56787
 993,37; 1269,983;  113,475; 5390,553;21,91568
 993,92; 1237,182;  108,375; 5368,953;21,45786
 994,47; 1227,083;  117,475; 5329,652;21,28875
 995,02; 1209,182;  118,475; 5313,252;20,99623
 995,57; 1167,583;   90,875; 5274,652;20,77071
 996,12; 1163,182;  133,575; 5247,553;20,13320
 996,67; 1144,983;  132,375; 5191,652;20,01487
 997,22; 1109,583;   99,875; 5128,652;20,07859
 997,77; 1079,282;  115,275; 5110,553;19,29838
 998,32; 1076,682;  103,775; 5015,652;19,80724
 998,87; 1069,882;  114,275; 5018,752;19,48439
 999,42; 1042,483;  101,675; 4972,553;19,31495
 999,97; 1016,083;  109,975; 4956,353;18,69659
1000,53; 1019,782;  123,475; 4993,752;18,40362
1001,08;  960,682;   98,375; 4879,053;18,03735
1001,63;  978,083;  144,475; 4878,053;17,61052
1002,18;  916,782;   85,075; 4777,453;17,72465
1002,73;  948,482;  131,375; 4813,853;17,45032
1003,28;  909,883;  103,575; 4811,953;17,12495
1003,83;  914,982;  119,075; 4691,752;17,40572
1004,38;  919,182;  137,775; 4703,152;17,11595
1004,93;  874,982;  114,375; 4680,953;16,65596
1005,48;  858,782;  104,075; 4573,053;16,88770
1006,03;  839,883;  112,775; 4525,652;16,47695
1006,58;  826,883;  111,475; 4486,553;16,35188
1007,13;  778,182;   94,475; 4466,252;15,63912
1007,68;  789,383;  104,975; 4462,453;15,70651
1008,23;  798,282;  114,575; 4425,853;15,85858
1008,78;  772,383;  107,375; 4384,152;15,54927
1009,33;  774,982;  121,875; 4307,752;15,60264
1009,88;  732,682;   84,775; 4329,553;15,26364
1010,43;  736,883;  118,875; 4320,752;14,70789
1010,98;  704,883;  100,675; 4310,053;14,35384
1011,52;  722,982;   97,075; 4264,953;15,01742
1012,07;  758,182;  144,475; 4319,252;14,70036
1012,62;  705,083;  103,875; 4259,152;14,46853
1013,17;  712,383;   97,175; 4172,053;15,09757
1013,72;  670,583;   94,575; 4143,453;14,22635
1014,27;  681,982;  100,275; 4105,853;14,52244
1014,82;  639,383;   86,875; 4042,952;13,96604
1015,37;  620,982;   84,375; 3964,853;13,82839
1015,92;  637,182;  109,475; 3894,252;13,94289
1016,47;  583,682;   90,275; 3819,452;13,23100
1017,02;  573,083;   81,075; 3732,153;13,47568
1017,57;  605,182;   96,475; 3718,853;14,04347
1018,11;  555,083;   77,275; 3656,252;13,35039
1018,66;  566,883;  120,175; 3636,552;12,70363
1019,21;  545,383;  109,675; 3579,552;12,55686
1019,76;  512,883;   77,675; 3497,353;12,72657
1020,31;  502,383;   71,975; 3446,452;12,75479
1020,86;  506,182;   96,175; 3448,052;12,23217
1021,41;  485,182;   80,175; 3387,052;12,24743
1021,96;  473,783;   83,675; 3385,853;11,81364
1022,50;  508,483;  105,975; 3332,952;12,47321
1023,05;  473,682;   94,675; 3288,052;11,86855
1023,60;  472,883;   97,975; 3251,353;11,88908
1024,15;  442,682;   81,075; 3184,853;11,65056
1024,70;  474,182;   95,075; 3176,252;12,30398
1025,25;  433,582;   81,175; 3127,452;11,56846
1025,79;  440,383;  101,175; 3110,752;11,27093
1026,34;  433,283;   83,475; 3044,653;11,81312
1026,89;  436,582;  102,175; 3039,052;11,38650
1027,44;  429,182;   95,875; 2952,952;11,66603
1027,99;  409,983;   93,475; 2944,552;11,10133
1028,53;  408,682;   89,675; 2900,052;11,35105
1029,08;  400,082;  114,775; 2876,653;10,33020
1029,63;  414,383;  114,875; 2854,952;10,93062
1030,18;  394,383;   92,075; 2788,552;11,21120
1030,73;  378,582;   91,175; 2739,552;10,85221
1031,27;  379,182;   85,875; 2715,252;11,15502
1031,82;  367,383;   81,875; 2686,452;10,96176
1032,37;  368,082;   98,875; 2688,853;10,39420
1032,92;  374,582;  100,575; 2675,452;10,64157
1033,46;  353,682;   99,775; 2599,252;10,15842
1034,01;  349,983;   78,375; 2582,952;10,84444
1034,56;  355,483;   98,875; 2559,252;10,42960
1035,11;  361,082;   92,375; 2523,552;11,05257
1035,65;  331,283;   87,575; 2478,052;10,19493
1036,20;  330,582;   99,375; 2454,452; 9,81741
1036,75;  362,483;  118,675; 2446,353;10,47428
1037,29;  318,682;   90,275; 2398,252; 9,89644
1037,84;  300,082;   78,375; 2347,252; 9,77168
1038,39;  312,483;   91,075; 2329,952; 9,88922
1038,94;  284,383;   73,075; 2277,153; 9,58712
1039,48;  289,983;   83,575; 2278,552; 9,40363
1040,03;  317,082;  102,875; 2245,252; 9,99859
1040,58;  287,283;  101,175; 2194,552; 8,89030
1041,12;  285,483;   91,375; 2191,653; 9,24199
1041,67;  284,983;  101,075; 2166,752; 8,90301
1042,22;  303,283;  118,475; 2145,252; 9,11829
1042,76;  282,483;   99,275; 2118,452; 9,07337
1043,31;  276,582;   90,675; 2060,653; 9,43704
1043,86;  292,182;   98,875; 2044,252; 9,93676
1044,40;  282,682;   92,975; 2018,052; 9,85454
1044,95;  281,983;   94,175; 1988,552; 9,91394
1045,50;  253,283;   75,375; 1934,353; 9,57018
1046,04;  281,082;  114,375; 1930,453; 9,17954
1046,59;  257,483;   96,175; 1878,353; 9,05115
1047,13;  266,383;  121,075; 1879,453; 8,26373
1047,68;  271,883;  115,675; 1860,052; 8,95491
1048,23;  256,082;  118,775; 1866,752; 7,85522
1048,77;  243,982;   90,175; 1784,953; 9,07538
1049,32;  256,783;  104,175; 1785,953; 9,07418
1049,86;  250,283;   92,675; 1760,552; 9,44958
1050,41;  240,783;   82,475; 1735,552; 9,57653
1050,96;  253,682;  100,875; 1698,652; 9,56375
1051,50;  244,682;  101,675; 1663,252; 9,15789
1052,05;  255,583;   94,675; 1664,052;10,25295
1052,59;  238,083;   82,975; 1624,152;10,06422
1053,14;  215,083;   84,475; 1582,652; 8,71776
1053,69;  228,682;   98,475; 1571,453; 8,83975
1054,23;  240,583;  104,575; 1569,052; 9,28710
1054,78;  234,583;  100,775; 1550,152; 9,23207
1055,32;  234,982;  123,075; 1550,453; 7,84008
1055,87;  201,482;   68,875; 1491,752; 9,31967
1056,41;  193,982;   78,775; 1469,552; 8,28368
1056,96;  212,982;   96,775; 1451,052; 8,58077
1057,50;  234,883;  113,375; 1470,853; 8,95098
1058,05;  203,982;   82,075; 1401,953; 9,23627
1058,59;  202,283;   95,875; 1396,552; 8,18093
1059,14;  211,883;  103,575; 1370,453; 8,54917
1059,68;  182,583;   75,975; 1329,353; 8,50562
1060,23;  229,982;  126,875; 1383,752; 8,20346
1060,77;  212,783;   97,375; 1317,052; 9,46213
1061,32;  212,083;  108,575; 1320,652; 8,53968
1061,86;  213,982;  111,175; 1289,752; 8,72302
1062,41;  199,783;   93,975; 1242,953; 9,20884
1062,95;  205,283;  109,575; 1230,853; 8,53558
1063,50;  212,982;  111,075; 1230,052; 9,10720
1064,04;  189,982;   90,475; 1197,453; 8,98912
1064,59;  202,783;  114,775; 1210,052; 8,03518
1065,13;  190,982;  103,475; 1170,552; 8,20067
1065,68;  192,482;  107,275; 1161,353; 8,08361
1066,22;  205,883;  115,875; 1166,453; 8,56743
1066,76;  204,682;  130,175; 1145,252; 7,34008
1067,31;  188,283;   99,875; 1110,552; 8,74735
1067,85;  176,682;  100,975; 1090,252; 7,65281
1068,40;  189,783;  110,275; 1095,353; 8,07119
1068,94;  188,783;   99,175; 1079,353; 9,14197
1069,49;  172,383;   98,175; 1041,652; 7,86532
1070,03;  191,182;  111,175; 1034,353; 8,66653
1070,57;  172,482;   88,775; 1012,852; 9,05849
1071,12;  152,182;   75,875;  987,153; 8,37368
1071,66;  221,783;  131,775; 1039,953; 9,91078
1072,21;  196,283;  112,475; 1011,352; 9,32357
1072,75;  168,482;  104,475;  978,552; 7,32286
1073,29;  163,083;   77,075;  942,453; 9,93873
1073,84;  161,982;   95,975;  941,153; 7,80990
1074,38;  159,783;   93,875;  928,253; 7,89900
1074,92;  180,182;  107,275;  940,153; 8,75369
1075,47;  189,583;  112,775;  938,852; 9,29786
1076,01;  195,383;  121,775;  926,253; 9,14973
1076,56;  158,283;   97,275;  891,953; 7,67701
1077,10;  153,383;   86,075;  865,253; 8,63828
1077,64;  156,482;   97,875;  884,453; 7,45095
1078,19;  192,083;  123,175;  887,753; 9,01249
1078,73;  174,682;   98,775;  853,852;10,05294
1079,27;  191,182;  121,075;  875,552; 9,29219
1079,81;  185,583;  121,375;  860,953; 8,68165
1080,36;  158,482;  105,975;  836,052; 7,19204
1080,90;  164,083;   96,375;  819,753; 9,35991
1081,44;  149,482;   82,475;  789,552; 9,47668
1081,99;  130,383;   70,375;  771,753; 8,55566
1082,53;  174,482;  113,075;  798,653; 8,95705
1083,07;  166,783;  104,175;  791,453; 9,10949
1083,62;  169,182;  101,275;  772,552;10,11616
1084,16;  163,383;   98,975;  782,453; 9,42350
1084,70;  167,682;  107,475;  767,153; 9,12681
1085,24;  168,283;  108,775;  750,653; 9,27085
1085,79;  159,682;  109,175;  747,552; 7,91185
1086,33;  139,883;   99,075;  711,453; 6,66378
1086,87;  160,883;  102,075;  714,852; 9,59688
1087,41;  154,982;   84,475;  686,852;11,70487
1087,96;  174,383;  124,575;  732,552; 8,19233
1088,50;  148,283;  112,075;  696,953; 6,19061
1089,04;  174,383;  121,775;  715,153; 8,86577
1089,58;  147,083;   82,375;  655,953;11,28139
1090,13;  147,182;  102,975;  653,153; 8,03513
1090,67;  150,883;  101,775;  678,753; 8,51116
1091,21;  138,682;   92,075;  651,852; 8,32608
1091,75;  160,682;  106,875;  647,153; 9,95923
1092,29;  158,783;  105,875;  642,552; 9,85834
1092,84;  157,283;  105,975;  628,352; 9,82192
1093,38;  180,283;  128,175;  662,753; 9,74742
1093,92;  163,482;  113,475;  640,052; 9,49670
1094,46;  165,783;  128,175;  638,852; 7,36424
1095,00;  147,283;   93,975;  602,052;10,49200
1095,54;  143,783;   89,975;  591,352;10,73193
1096,09;  157,482;  114,975;  597,352; 8,81208
1096,63;  162,682;  117,175;  598,453; 9,45556
1097,17;  149,283;  102,575;  573,052; 9,92768
1097,71;  170,883;  122,875;  582,453;10,44601
1098,25;  138,982;  103,275;  553,653; 7,92835
1098,79;  152,583;  104,775;  568,753;10,30384
1099,33;  149,883;  111,975;  572,052; 8,23937
1099,88;  147,883;  110,775;  562,253; 8,21913
1100,42;  127,783;   83,275;  521,253;10,16205

