O107 ELITRO
Integration time [ms]:   8,000
Averaging Nr. [scans]: 10
Smoothing Nr. [pixels]: 0
Data measured with spectrometer [name]: 7314920SP
Wave   ;Sample   ;Dark     ;Reference;Reflectance
[nm]   ;[counts] ;[counts] ;[counts] ;[%]

 199,42;   91,048;   63,873;  150,055;31,53242
 200,02;  103,332;   92,669;  145,732;20,09595
 200,62;   75,663;   67,563;   88,793;38,15231
 201,22;  114,184;   86,969;  138,011;53,31854
 201,82;   93,403;   66,174;  141,790;36,00860
 202,42;  121,182;  101,668;  154,973;36,60742
 203,03;   61,229;   60,168;   91,775; 3,35866
 203,63;   82,027;   69,967;  109,037;30,86826
 204,23;   83,541;   70,671;  129,903;21,72768
 204,83;   84,426;   74,567;  123,718;20,05959
 205,43;   86,148;   56,673;  123,555;44,07062
 206,03;   70,376;   50,167;   90,459;50,15700
 206,63;   70,868;   68,865;  100,007; 6,43426
 207,24;  102,506;   74,675;  162,566;31,66538
 207,84;   54,026;   39,967;   83,699;32,14737
 208,44;   75,384;   50,669;   95,011;55,73690
 209,04;   70,819;   47,365;   85,066;62,20996
 209,64;  101,345;   69,972;  127,998;54,06780
 210,24;   66,926;   45,367;   97,218;41,57960
 210,84;   74,534;   51,469;  101,970;45,67236
 211,44;   97,736;   86,470;  122,908;30,91884
 212,05;   77,819;   60,865;   99,266;44,14957
 212,65;   89,229;   66,368;  112,975;49,05140
 213,25;   93,982;   93,768;  142,073; 0,44153
 213,85;  100,521;   84,465;  114,904;52,74644
 214,45;   64,326;   53,367;  100,418;23,29278
 215,05;   59,734;   39,369;  100,070;33,54968
 215,65;   79,785;   55,169;  105,630;48,78153
 216,25;   49,326;   40,267;   82,518;21,44207
 216,85;   44,433;   34,069;   89,651;18,64678
 217,45;   65,729;   49,068;   97,375;34,49075
 218,05;   87,887;   58,270;  112,886;54,22788
 218,66;   45,183;   28,769;   75,692;34,98071
 219,26;   46,127;   26,567;   79,337;37,06696
 219,86;   51,140;   36,771;   81,584;32,06430
 220,46;   73,637;   54,270;  104,127;38,84504
 221,06;   73,241;   51,871;  115,903;33,37353
 221,66;   64,592;   43,471;  103,481;35,19537
 222,26;   63,545;   39,772;  102,398;37,96076
 222,86;   81,881;   67,268;  118,954;28,27217
 223,46;   77,526;   51,767;   88,918;69,33698
 224,06;   90,390;   64,971;  120,343;45,90608
 224,66;   71,688;   57,570;  105,805;29,26917
 225,26;   79,085;   48,169;  113,748;47,14311
 225,86;   66,597;   42,173;  112,376;34,79044
 226,46;   84,831;   49,968;  102,913;65,84770
 227,06;   41,988;   27,670;   87,705;23,84940
 227,66;   61,170;   37,665;   74,845;63,22049
 228,27;   50,437;   29,270;   96,227;31,61280
 228,87;  105,638;   89,170;  143,046;30,56603
 229,47;   71,096;   29,172;   92,357;66,35047
 230,07;   20,585;   11,169;   59,648;19,42282
 230,67;   58,033;   38,169;   84,651;42,73524
 231,27;   42,737;   27,670;   76,327;30,96570
 231,87;   67,733;   43,169;  100,751;42,65950
 232,47;   82,905;   43,775;  132,047;44,32917
 233,07;   60,318;   42,965;   75,547;53,25946
 233,67;   69,929;   53,768;   94,275;39,89785
 234,27;   23,476;    0,567;   53,259;43,47767
 234,87;   69,440;   34,771;  106,084;48,61517
 235,47;   31,585;   16,169;   74,148;26,58891
 236,07;   45,523;   30,266;   72,042;36,52021
 236,67;   58,025;   49,966;   85,180;22,88360
 237,27;   62,049;   28,873;  109,074;41,36619
 237,87;   56,688;   25,370;   99,805;42,07424
 238,47;   36,032;   14,269;   68,032;40,48026
 239,07;   52,895;   33,272;   95,738;31,41346
 239,67;   74,662;   43,477;  131,421;35,45982
 240,27;   66,397;   46,773;  119,176;27,10383
 240,87;   75,500;   50,773;  119,533;35,96026
 241,47;   52,965;   39,164;   76,131;37,33311
 242,07;   54,730;   39,968;   92,894;27,89221
 242,67;   16,799;  -11,027;   77,914;31,28534
 243,27;   31,326;    7,767;   46,418;60,95417
 243,87;   58,390;   48,671;  108,343;16,28786
 244,47;   53,341;   22,371;   99,703;40,04778
 245,07;   22,634;    2,669;   55,770;37,59815
 245,67;   40,829;   31,068;   85,575;17,90873
 246,27;   45,368;   34,965;   69,007;30,56141
 246,87;   42,881;   26,668;   63,154;44,43578
 247,46;   14,463;   19,663;   23,793;-125,91849
 248,06;   35,587;   20,470;   69,786;30,65377
 248,66;   55,045;   31,072;  105,898;32,03870
 249,26;   41,623;   32,366;   70,742;24,12115
 249,86;   62,197;   42,873;  102,176;32,58512
 250,46;   38,556;   16,775;   93,507;28,38551
 251,06;   34,629;   22,168;   65,375;28,84132
 251,66;   31,989;   20,771;   64,724;25,52382
 252,26;   48,424;   38,866;   70,261;30,44266
 252,86;   42,734;   35,969;   89,070;12,73983
 253,46;    6,826;   -8,033;   22,118;49,28335
 254,06;   40,872;   31,766;   79,483;19,08436
 254,66;   50,448;   34,973;  100,155;23,74159
 255,26;   68,547;   39,073;  118,836;36,95260
 255,86;   40,765;   37,464;   55,631;18,17028
 256,46;   33,336;   19,870;   70,208;26,75162
 257,05;   35,939;   23,570;   59,565;34,36182
 257,65;   61,440;   38,071;   97,684;39,20111
 258,25;   72,596;   37,372;  101,457;54,96377
 258,85;   30,034;   15,669;   51,770;39,79112
 259,45;   22,933;    6,869;   42,951;44,52134
 260,05;   40,626;   46,667;   85,818;-15,42853
 260,65;   48,524;   45,066;   83,561; 8,98168
 261,25;   52,690;   29,371;   85,943;41,22029
 261,85;   18,242;   -0,129;   47,622;38,47152
 262,45;   60,934;   46,169;  109,270;23,39897
 263,04;   67,098;   53,073;  116,295;22,18334
 263,64;   56,978;   33,767;   77,097;53,56780
 264,24;   58,291;   37,671;   89,062;40,12365
 264,84;   86,702;   58,974;  138,671;34,79113
 265,44;   40,179;   26,368;   67,716;33,40242
 266,04;   53,871;   48,865;   71,464;22,15124
 266,64;   52,025;   39,866;   86,780;25,91601
 267,24;   51,025;   40,166;   68,980;37,68396
 267,84;   45,382;   24,668;   76,573;39,90677
 268,43;   64,080;   48,368;   95,935;33,03132
 269,03;   54,983;   46,969;   87,892;19,58307
 269,63;   73,473;   58,566;   92,402;44,05744
 270,23;   35,270;   10,765;   39,045;86,65299
 270,83;   54,324;   55,266;   83,161;-3,37869
 271,43;   34,628;   23,967;   58,856;30,55691
 272,03;   64,679;   64,168;   99,116; 1,46285
 272,62;   37,485;   23,269;   68,730;31,26973
 273,22;   31,138;   11,970;   61,046;39,05731
 273,82;   10,353;   17,460;   26,403;-79,47324
 274,42;   29,015;   25,164;   46,890;17,72657
 275,02;   48,267;   34,864;   60,388;52,51282
 275,62;   66,596;   31,972;  100,457;50,55637
 276,21;   44,286;   22,770;   69,267;46,27467
 276,81;   55,526;   46,767;   71,099;35,99651
 277,41;   53,943;   22,971;   96,341;42,21255
 278,01;   22,667;   21,364;   42,788; 6,08256
 278,61;   57,484;   38,869;   83,811;41,41961
 279,20;   76,897;   65,473;  119,076;21,31228
 279,80;   -2,392;    6,762;   11,539;-191,62792
 280,40;   48,323;   36,866;   79,742;26,72059
 281,00;   13,784;   -4,331;   33,311;48,12398
 281,60;   49,751;   20,774;   74,812;53,62394
 282,20;   52,936;   36,670;   70,108;48,64569
 282,79;   46,780;   29,568;   70,135;42,42865
 283,39;   33,873;   17,466;   44,702;60,24128
 283,99;   15,818;   23,165;   34,347;-65,69515
 284,59;   18,735;   16,869;   45,289; 6,56467
 285,19;   32,076;   27,067;   57,759;16,32094
 285,78;   42,636;   23,270;   63,808;47,77283
 286,38;   49,868;   39,665;   59,207;52,21408
 286,98;   37,180;   35,168;   73,535; 5,24392
 287,58;   27,941;    4,771;   61,403;40,91282
 288,17;   41,147;    8,973;   80,336;45,08570
 288,77;   43,508;   19,976;   92,504;32,44573
 289,37;   31,234;   11,269;   57,670;43,02708
 289,97;   44,318;   48,965;   66,647;-26,27730
 290,57;   53,544;   46,672;   93,260;14,75004
 291,16;   69,479;   63,868;  102,616;14,48137
 291,76;   25,738;    5,570;   47,346;48,27600
 292,36;   40,627;   34,367;   58,137;26,33669
 292,96;   11,746;   -3,127;   60,117;23,51804
 293,55;   35,526;   24,267;   65,399;27,37216
 294,15;   44,186;   26,870;   62,567;48,50915
 294,75;   50,468;   42,065;   66,207;34,80951
 295,35;   21,279;   21,068;   52,016; 0,68257
 295,94;   38,675;   42,967;   66,740;-18,05174
 296,54;   29,031;   30,768;   70,613;-4,35957
 297,14;   24,892;   29,971;   76,881;-10,82764
 297,73;   13,520;   12,165;   40,085; 4,85236
 298,33;   37,272;   28,066;   57,583;31,19043
 298,93;   43,581;   41,968;   82,554; 3,97335
 299,53;   35,644;   24,872;   69,079;24,36830
 300,12;   16,192;  -12,229;   59,481;39,63288
 300,72;   61,778;   41,567;   91,197;40,72303
 301,32;   47,440;   25,771;   99,584;29,35659
 301,92;   21,966;    3,664;   33,050;62,28037
 302,51;   24,277;   11,567;   49,978;33,08952
 303,11;   32,876;   14,667;   48,759;53,41213
 303,71;   35,432;   21,369;   82,132;23,14484
 304,30;   24,122;    5,466;   38,423;56,60638
 304,90;   14,472;   19,666;   44,283;-21,09720
 305,50;   45,570;   18,565;   64,345;58,98942
 306,09;   28,823;   15,466;   49,042;39,78041
 306,69;   43,891;   34,171;   90,262;17,32901
 307,29;   19,503;   18,760;   33,144; 5,16269
 307,88;   52,235;   43,269;   72,489;30,68362
 308,48;   24,737;    0,070;   49,727;49,67470
 309,08;   13,362;   -4,437;   11,774;109,79465
 309,68;   36,520;   22,365;   39,585;82,19850
 310,27;   20,085;   20,169;   49,830;-0,28551
 310,87;   30,731;   23,468;   54,813;23,17110
 311,47;   59,826;   54,967;   92,918;12,80469
 312,06;   41,369;   47,865;   68,426;-31,59178
 312,66;   60,379;   51,168;  100,016;18,85694
 313,26;   66,789;   48,571;   96,224;38,23133
 313,85;   55,876;   38,267;   65,959;63,58976
 314,45;   54,084;   42,969;   86,611;25,46799
 315,04;   61,269;   52,165;   81,826;30,69512
 315,64;   40,578;   21,267;   47,897;72,51619
 316,24;   60,437;   40,770;   85,627;43,84371
 316,83;   58,523;   40,366;   76,742;49,91377
 317,43;   41,228;   35,167;   68,156;18,37267
 318,03;   49,864;   39,063;   70,012;34,89777
 318,62;   76,707;   73,061;   94,820;16,75357
 319,22;   35,182;    7,668;   66,973;46,39349
 319,82;   63,679;   40,768;   93,516;43,43525
 320,41;   75,032;   59,069;   98,732;40,24759
 321,01;   97,270;   80,465;  115,945;47,36559
 321,60;   94,115;   81,164;  102,790;59,88622
 322,20;   87,248;   67,673;  132,855;30,03170
 322,80;   69,078;   54,567;   91,797;38,97616
 323,39;   59,817;   65,764;   94,828;-20,46251
 323,99;   86,024;   61,766;  102,661;59,31640
 324,59;   74,464;   73,063;   97,512; 5,72783
 325,18;   70,577;   40,967;   92,178;57,81984
 325,78;   97,220;   76,365;  108,885;64,12864
 326,37;   81,929;   74,868;  108,075;21,26508
 326,97;   78,978;   63,267;  111,497;32,57471
 327,57;   35,763;   42,263;   76,493;-18,99014
 328,16;   68,965;   60,864;   93,631;24,72296
 328,76;   66,775;   50,467;  110,140;27,32974
 329,35;   74,440;   56,871;  137,484;21,79424
 329,95;   52,136;   27,470;   91,308;38,63872
 330,54;   65,826;   52,167;   94,018;32,63831
 331,14;   53,826;   26,967;   82,599;48,27907
 331,74;   74,270;   54,165;   96,145;47,89260
 332,33;   59,537;   35,370;  108,127;33,21602
 332,93;   51,666;   43,764;   79,250;22,26717
 333,52;   49,073;   42,466;   93,102;13,04843
 334,12;   92,183;   72,069;  140,392;29,43955
 334,71;   61,923;   50,666;   87,942;30,19828
 335,31;   86,476;   63,267;  119,859;41,01153
 335,90;   38,460;   32,362;   53,836;28,39587
 336,50;   33,068;   30,665;   77,207; 5,16471
 337,10;   66,485;   38,769;  121,530;33,48865
 337,69;   64,868;   51,765;   93,707;31,24247
 338,29;   59,427;   30,467;  101,037;41,03761
 338,88;   44,281;   22,468;   99,854;28,18695
 339,48;   66,409;   57,862;  111,677;15,88297
 340,07;   66,874;   48,566;  107,321;31,15993
 340,67;   66,540;   31,171;  124,784;37,78210
 341,26;   68,823;   48,466;   98,942;40,32940
 341,86;   81,085;   61,469;  138,348;25,51540
 342,45;   85,735;   45,669;  142,689;41,29642
 343,05;   64,235;   27,269;  115,689;41,80705
 343,64;   74,525;   47,366;  122,480;36,15605
 344,24;   48,068;   28,765;   92,107;30,47538
 344,83;   76,118;   71,365;  121,747; 9,43463
 345,43;   62,275;   29,667;  114,240;38,55658
 346,02;   60,233;   41,469;  124,351;22,63971
 346,62;   83,489;   40,971;  140,424;42,75218
 347,21;   67,420;   42,165;  131,985;28,11703
 347,81;   58,144;   26,172;  140,560;27,95026
 348,40;   47,065;   29,064;  100,731;25,11752
 349,00;   56,564;   49,163;  137,712; 8,35742
 349,59;   95,838;   65,870;  177,846;26,76264
 350,19;   60,689;   32,571;  139,424;26,31510
 350,78;   65,676;   55,467;  140,759;11,96973
 351,38;   37,133;   15,869;  140,951;17,00025
 351,97;   64,475;   26,767;  136,040;34,50849
 352,57;   49,237;   42,570;  155,827; 5,88662
 353,16;   49,417;   30,564;  134,328;18,16886
 353,76;   60,738;   38,770;  169,846;16,75953
 354,35;   47,785;   27,669;  160,148;15,18429
 354,95;   73,086;   43,970;  182,067;21,08411
 355,54;   63,682;   38,368;  163,973;20,15321
 356,14;   59,685;   40,069;  164,749;15,73319
 356,73;   62,209;   29,162;  145,176;28,48554
 357,32;   49,532;   13,769;  164,432;23,73741
 357,92;   57,394;   17,772;  181,419;24,21187
 358,51;   81,444;   43,372;  214,179;22,28977
 359,11;   71,644;   36,772;  212,360;19,85998
 359,70;   60,039;   28,470;  189,965;19,54764
 360,30;   67,708;   54,562;  188,039; 9,84887
 360,89;   44,081;   31,168;  188,054; 8,23059
 361,48;   83,686;   55,570;  216,467;17,47487
 362,08;   55,028;   19,867;  187,156;21,01810
 362,67;   70,263;   39,763;  192,693;19,94358
 363,27;   94,477;   60,767;  247,678;18,03530
 363,86;   72,170;   35,765;  215,745;20,22736
 364,46;   89,765;   44,664;  257,231;21,21730
 365,05;   98,848;   64,659;  254,989;17,96288
 365,64;  103,101;   50,960;  269,706;23,83642
 366,24;  108,245;   38,558;  309,432;25,72661
 366,83;  120,685;   43,255;  335,383;26,50540
 367,43;  130,548;   51,545;  352,843;26,22094
 368,02;  144,454;   34,646;  399,757;30,07509
 368,61;  173,427;   62,239;  475,425;26,90995
 369,21;  146,808;   32,419;  445,299;27,70518
 369,80;  181,113;   43,007;  526,947;28,53795
 370,39;  227,110;   62,006;  604,971;30,40782
 370,99;  204,100;   42,089;  615,416;28,25801
 371,58;  200,546;   22,974;  630,953;29,20705
 372,18;  245,819;   37,166;  701,603;31,40302
 372,77;  237,111;   42,449;  679,385;30,56217
 373,36;  243,251;   42,747;  690,836;30,93776
 373,96;  225,662;   35,135;  639,498;31,52513
 374,55;  203,592;   29,844;  621,406;29,37105
 375,14;  187,760;   42,849;  573,826;27,29144
 375,74;  198,488;   69,157;  543,276;27,27812
 376,33;  157,113;   45,964;  464,589;26,55104
 376,92;  131,011;   33,278;  447,997;23,56615
 377,52;  194,752;   86,103;  548,460;23,49880
 378,11;  147,049;   46,703;  457,203;24,44485
 378,71;  173,429;   73,011;  514,270;22,75723
 379,30;  189,200;   59,517;  553,928;26,22977
 379,89;  196,736;   59,813;  556,103;27,58934
 380,49;  186,003;   31,018;  568,185;28,85227
 381,08;  213,611;   70,306;  570,990;28,62176
 381,67;  212,068;   55,008;  555,483;31,38215
 382,26;  180,011;   41,706;  539,390;27,78964
 382,86;  187,951;   54,003;  516,041;28,99060
 383,45;  201,684;   50,412;  562,105;29,56292
 384,04;  197,083;   38,712;  553,886;30,74119
 384,64;  201,139;   49,014;  566,760;29,38219
 385,23;  215,811;   64,406;  560,509;30,51893
 385,82;  231,845;   59,615;  592,774;32,30357
 386,42;  263,124;   61,024;  659,022;33,79621
 387,01;  223,238;   55,414;  580,541;31,95881
 387,60;  252,771;   69,009;  590,140;35,26212
 388,20;  229,984;   37,712;  590,805;34,76294
 388,79;  273,754;   72,418;  665,563;33,94378
 389,38;  237,311;   32,106;  564,890;38,51552
 389,97;  267,044;   45,415;  640,955;37,21474
 390,57;  283,390;   71,114;  654,038;36,41575
 391,16;  277,890;   62,514;  655,838;36,29992
 391,75;  278,787;   52,713;  638,562;38,58901
 392,34;  312,513;   60,821;  696,694;39,58217
 392,94;  303,455;   44,718;  689,683;40,11644
 393,53;  307,547;   41,016;  666,612;42,60428
 394,12;  321,271;   53,023;  719,105;40,27253
 394,72;  342,337;   54,213;  706,122;44,19696
 395,31;  346,545;   42,115;  694,874;46,63736
 395,90;  343,675;   42,924;  732,881;43,58980
 396,49;  376,738;   58,028;  779,187;44,19411
 397,09;  379,350;   47,417;  749,188;47,29940
 397,68;  414,977;   44,025;  800,719;49,02272
 398,27;  426,883;   54,626;  809,652;49,30390
 398,86;  403,579;   43,125;  807,657;47,14697
 399,45;  455,898;   56,630;  844,037;50,70664
 400,05;  446,809;   23,820;  799,518;54,53018
 400,64;  464,156;   56,419;  831,001;52,63961
 401,23;  498,811;   53,920;  859,956;55,19496
 401,82;  500,211;   67,220;  868,256;54,05390
 402,42;  520,664;   62,921;  873,953;56,43951
 403,01;  547,077;   81,525;  912,919;55,99655
 403,60;  579,201;   68,532;  940,513;58,56434
 404,19;  577,176;   76,024;  931,900;58,55425
 404,78;  582,567;   57,522;  909,929;61,59561
 405,38;  614,054;   68,332;  984,210;59,58454
 405,97;  620,483;   63,226;  953,933;62,56339
 406,56;  642,289;   71,528; 1004,366;61,18547
 407,15;  642,893;   68,829;  989,442;62,35672
 407,74;  667,346;   80,730; 1026,758;62,00832
 408,34;  668,255;   50,933; 1018,629;63,79296
 408,93;  703,150;   59,531; 1016,234;67,27469
 409,52;  711,214;   51,435; 1041,359;66,64941
 410,11;  769,251;   84,931; 1090,453;68,05618
 410,70;  721,635;   54,727; 1027,230;68,57641
 411,29;  764,088;   58,628; 1030,847;72,56188
 411,89;  776,165;   60,535; 1093,938;69,24987
 412,48;  763,239;   48,228; 1051,606;71,26033
 413,07;  814,908;   65,033; 1101,446;72,35295
 413,66;  805,664;   78,135; 1102,119;71,04889
 414,25;  836,221;   63,337; 1142,311;71,63140
 414,84;  850,550;   69,431; 1102,434;75,61632
 415,44;  847,945;   91,530; 1155,939;71,06434
 416,03;  867,019;   76,637; 1161,173;72,87747
 416,62;  902,125;   76,138; 1168,687;75,60182
 417,21;  882,461;   75,334; 1158,843;74,49190
 417,80;  904,572;   65,037; 1162,871;76,47194
 418,39;  907,631;   78,440; 1179,201;75,32887
 418,98;  899,059;   55,634; 1143,405;77,53697
 419,58;  924,257;   64,033; 1142,067;79,79560
 420,17;  917,913;   52,735; 1164,540;77,81738
 420,76;  951,019;   72,537; 1192,873;78,41241
 421,35;  943,316;   60,236; 1155,197;80,64941
 421,94;  970,331;   88,340; 1223,501;77,69742
 422,53;  954,532;   61,540; 1195,320;78,76235
 423,12;  957,177;   64,039; 1190,766;79,26835
 423,71;  954,865;   60,835; 1162,138;81,17932
 424,30;  959,068;   85,236; 1210,695;77,64229
 424,90;  950,074;   39,438; 1163,809;80,99071
 425,49;  997,180;   70,140; 1216,242;80,88641
 426,08; 1001,480;   80,240; 1209,641;81,56890
 426,67;  960,866;   57,436; 1168,257;81,32997
 427,26; 1007,740;   60,343; 1230,391;80,97082
 427,85; 1002,224;   63,238; 1209,968;81,88380
 428,44; 1025,688;   68,442; 1218,093;83,26401
 429,03; 1027,786;   85,341; 1233,155;82,10778
 429,62; 1040,635;   78,941; 1240,296;82,80797
 430,21; 1056,894;   81,443; 1277,807;81,53457
 430,80; 1030,350;   70,445; 1235,381;82,39981
 431,39; 1020,995;   53,344; 1246,926;81,07113
 431,99; 1053,365;   78,535; 1206,838;86,39792
 432,58; 1055,677;   82,639; 1251,166;83,27048
 433,17; 1071,264;   69,735; 1238,319;85,70453
 433,76; 1102,756;   71,347; 1288,314;84,75248
 434,35; 1096,849;   88,245; 1292,462;83,75601
 434,94; 1109,313;   70,849; 1318,887;83,20769
 435,53; 1118,592;   78,643; 1278,669;86,66049
 436,12; 1109,144;   70,044; 1294,267;84,87835
 436,71; 1114,633;   87,740; 1303,239;84,48321
 437,30; 1131,235;   76,941; 1299,177;86,25942
 437,89; 1142,298;   76,245; 1320,802;85,65725
 438,48; 1115,290;   65,942; 1305,731;84,63920
 439,07; 1146,176;   95,238; 1347,147;83,94683
 439,66; 1158,809;   83,648; 1375,711;83,21272
 440,25; 1163,944;   85,844; 1390,567;82,63059
 440,84; 1158,465;   79,850; 1387,984;82,45445
 441,43; 1203,632;   78,054; 1440,985;82,58510
 442,02; 1181,967;   79,650; 1411,022;82,79553
 442,61; 1204,295;   93,344; 1397,226;85,20329
 443,20; 1218,014;   94,249; 1446,625;83,09564
 443,79; 1207,354;   74,546; 1412,957;84,63827
 444,38; 1217,160;   84,248; 1461,789;82,24160
 444,97; 1213,101;   84,146; 1466,359;81,67737
 445,56; 1255,353;  101,846; 1477,038;83,87971
 446,15; 1263,120;   81,651; 1522,539;81,99591
 446,74; 1216,945;   58,644; 1462,286;82,52113
 447,33; 1258,254;   82,646; 1538,357;80,75833
 447,92; 1303,819;   78,151; 1570,720;82,11805
 448,51; 1306,852;   89,746; 1586,019;81,34251
 449,10; 1305,100;   92,045; 1608,840;79,97488
 449,69; 1326,268;   73,950; 1627,741;80,59755
 450,28; 1337,958;   66,948; 1608,251;82,46334
 450,87; 1338,557;   78,647; 1656,333;79,85814
 451,46; 1392,161;   96,048; 1702,208;80,69636
 452,05; 1394,365;   70,950; 1715,384;80,47843
 452,64; 1406,717;   70,850; 1725,182;80,74965
 453,23; 1477,073;  113,752; 1794,936;81,09288
 453,82; 1469,169;   83,451; 1800,660;80,69592
 454,40; 1502,017;   65,450; 1786,682;83,46158
 454,99; 1534,828;  101,253; 1871,891;80,96376
 455,58; 1563,255;   69,747; 1832,095;84,74540
 456,17; 1600,425;   63,852; 1873,634;84,90377
 456,76; 1619,519;   67,751; 1918,820;83,83093
 457,35; 1670,760;   78,348; 1930,490;85,97681
 457,94; 1712,730;   66,954; 1978,929;86,07728
 458,53; 1732,318;   67,350; 2010,101;85,70158
 459,12; 1815,591;   82,657; 2111,116;85,43108
 459,71; 1804,359;   58,148; 2060,071;87,22671
 460,30; 1893,809;   84,448; 2087,511;90,32970
 460,89; 1931,119;   57,551; 2129,920;90,40709
 461,48; 1959,830;   75,954; 2173,829;89,79925
 462,06; 1995,766;   68,050; 2187,303;90,96203
 462,65; 1989,962;   48,249; 2176,527;91,23398
 463,24; 2087,637;   87,456; 2288,680;90,86676
 463,83; 2114,666;   54,450; 2229,803;94,70717
 464,42; 2167,213;   88,349; 2333,687;92,58578
 465,01; 2184,417;   73,050; 2336,482;93,28168
 465,60; 2230,167;   64,050; 2384,322;93,35615
 466,19; 2295,930;   73,354; 2462,829;93,01525
 466,77; 2316,220;   81,551; 2462,939;93,83895
 467,36; 2331,741;   69,457; 2459,256;94,66418
 467,95; 2376,671;   79,551; 2466,098;96,25284
 468,54; 2413,731;   71,954; 2513,866;95,89932
 469,13; 2451,622;   69,452; 2535,977;96,58002
 469,72; 2470,534;   67,555; 2582,723;95,53950
 470,31; 2528,635;   87,855; 2629,242;96,04125
 470,90; 2511,715;   76,750; 2652,044;94,55097
 471,48; 2549,442;   32,057; 2671,875;95,36205
 472,07; 2608,406;  125,747; 2686,454;96,95209
 472,66; 2604,676;   67,853; 2748,412;94,63784
 473,25; 2629,720;   68,351; 2723,339;96,47386
 473,84; 2632,083;   55,955; 2766,545;95,03939
 474,43; 2656,898;   55,459; 2843,049;93,32216
 475,01; 2689,682;   69,254; 2885,926;93,03276
 475,60; 2692,484;   49,755; 2882,364;93,29664
 476,19; 2741,845;   74,158; 2956,932;92,53887
 476,78; 2724,141;   71,057; 2964,456;91,69436
 477,37; 2704,084;   59,355; 2945,364;91,63967
 477,95; 2739,836;   75,656; 3018,661;90,52584
 478,54; 2732,828;   63,253; 3023,691;90,17500
 479,13; 2738,528;   56,253; 3070,291;88,99274
 479,72; 2741,031;   81,154; 3090,147;88,39755
 480,31; 2740,299;   63,459; 3167,468;86,23816
 480,89; 2708,382;   60,254; 3171,026;85,12768
 481,48; 2736,752;   46,260; 3214,084;84,93187
 482,07; 2736,132;   61,654; 3233,866;84,30953
 482,66; 2722,278;   52,853; 3253,650;83,39876
 483,25; 2741,752;   78,960; 3319,884;82,16152
 483,83; 2720,532;   59,954; 3325,385;81,47708
 484,42; 2705,130;   54,354; 3355,129;80,30768
 485,01; 2765,844;   65,958; 3400,413;80,96932
 485,60; 2750,615;   73,764; 3490,590;78,34320
 486,18; 2739,736;   66,956; 3490,761;78,06461
 486,77; 2750,472;   67,252; 3519,736;77,71854
 487,36; 2793,166;   58,464; 3561,750;78,06104
 487,95; 2816,205;   59,161; 3640,781;76,97755
 488,53; 2812,754;   54,461; 3642,522;76,87420
 489,12; 2826,913;   50,563; 3722,252;75,61506
 489,71; 2817,208;   38,062; 3680,357;76,30206
 490,30; 2872,153;   61,460; 3742,503;76,35589
 490,88; 2900,855;   87,561; 3859,141;74,59193
 491,47; 2935,164;   60,663; 3867,512;75,50866
 492,06; 2930,711;   62,563; 3920,615;74,34189
 492,65; 2964,456;   59,161; 3947,060;74,72661
 493,23; 2992,002;   54,860; 3982,825;74,77516
 493,82; 3038,577;   65,853; 4018,031;75,21736
 494,41; 3046,957;   51,361; 4066,179;74,61349
 494,99; 3059,083;   73,655; 4126,945;73,65444
 495,58; 3103,653;   86,060; 4224,403;72,91790
 496,17; 3095,837;   56,356; 4198,681;73,37622
 496,76; 3148,236;   65,356; 4276,761;73,20313
 497,34; 3115,492;   54,557; 4305,235;72,01052
 497,93; 3126,742;   66,057; 4350,675;71,43425
 498,52; 3168,200;   60,059; 4454,387;70,73075
 499,10; 3180,259;   75,862; 4533,217;69,64662
 499,69; 3162,001;   55,360; 4537,006;69,31920
 500,28; 3149,799;   37,959; 4592,068;68,33038
 500,86; 3179,308;   62,862; 4698,539;67,22742
 501,45; 3152,508;   53,462; 4730,438;66,26173
 502,04; 3175,708;   53,362; 4813,958;65,58731
 502,62; 3154,037;   70,956; 4856,181;64,42918
 503,21; 3139,638;   57,856; 4939,699;63,12743
 503,80; 3187,209;   69,662; 5015,577;63,03278
 504,38; 3098,602;   58,460; 5081,425;60,52485
 504,97; 3105,309;   49,962; 5122,776;60,22983
 505,56; 3120,648;   70,859; 5194,989;59,51817
 506,14; 3098,216;   64,064; 5263,709;58,35306
 506,73; 3017,068;   23,565; 5292,507;56,81413
 507,32; 3036,570;   62,865; 5376,045;55,96846
 507,90; 3014,152;   70,860; 5443,284;54,78518
 508,49; 2973,319;   58,865; 5500,366;53,55974
 509,08; 2985,365;   67,264; 5571,931;53,01140
 509,66; 2984,503;   69,960; 5677,644;51,97409
 510,25; 2986,406;   63,561; 5737,400;51,51441
 510,83; 2948,768;   45,165; 5855,607;49,97216
 511,42; 2959,631;   61,968; 5895,913;49,66901
 512,01; 2952,417;   59,164; 5980,328;48,86291
 512,59; 2939,709;   46,562; 6041,676;48,25842
 513,18; 2933,257;   59,961; 6114,379;47,45784
 513,77; 2920,190;   42,257; 6171,797;46,95187
 514,35; 2925,961;   37,763; 6190,255;46,94355
 514,94; 2962,259;   58,662; 6323,517;46,34739
 515,52; 2966,923;   48,166; 6358,342;46,25476
 516,11; 3011,918;   80,665; 6474,047;45,84824
 516,69; 2926,349;   41,959; 6446,727;45,03505
 517,28; 2971,794;   83,358; 6541,973;44,72223
 517,87; 2944,893;   45,558; 6604,054;44,20733
 518,45; 2938,395;   74,858; 6626,192;43,70922
 519,04; 2962,147;   54,258; 6707,970;43,70325
 519,62; 2951,611;   55,863; 6774,114;43,10271
 520,21; 2935,573;   24,466; 6828,002;42,78815
 520,79; 2984,529;   52,068; 7000,875;42,20093
 521,38; 2944,404;   52,960; 6995,363;41,64903
 521,97; 2994,681;   43,068; 7141,554;41,58088
 522,55; 2982,197;   67,759; 7195,230;40,89022
 523,14; 2984,248;   26,759; 7180,289;41,34307
 523,72; 3056,254;   77,561; 7383,422;40,77129
 524,31; 3088,868;   71,665; 7406,107;41,13747
 524,89; 3121,079;   48,468; 7526,815;41,08677
 525,48; 3186,725;   21,666; 7603,580;41,74485
 526,06; 3279,217;   56,264; 7633,128;42,53676
 526,65; 3397,288;   72,370; 7803,105;43,00908
 527,23; 3444,610;   46,262; 7840,596;43,60024
 527,82; 3633,277;   37,967; 7905,978;45,69528
 528,41; 3748,274;   67,366; 8041,021;46,16338
 528,99; 3902,619;   66,365; 8108,167;47,70391
 529,58; 4009,360;   42,562; 8168,736;48,81507
 530,16; 4138,057;   49,461; 8315,379;49,46330
 530,75; 4309,966;   73,964; 8417,069;50,77249
 531,33; 4321,325;   45,566; 8440,980;50,92969
 531,92; 4430,603;   48,560; 8567,344;51,43977
 532,50; 4590,687;   87,770; 8706,468;52,24590
 533,09; 4659,821;   65,665; 8807,204;52,55545
 533,67; 4683,696;   63,458; 8952,011;51,97964
 534,26; 4722,951;   65,760; 9007,665;52,08276
 534,84; 4771,556;   68,461; 9127,061;51,91857
 535,42; 4863,667;   61,564; 9205,969;52,51411
 536,01; 4900,511;   79,263; 9330,215;52,11624
 536,59; 4908,873;   43,366; 9482,202;51,54774
 537,18; 4982,701;   77,360; 9568,605;51,68279
 537,76; 5041,893;   56,972; 9764,700;51,35003
 538,35; 5080,530;   59,368; 9892,694;51,06270
 538,93; 5129,517;   72,664; 9941,828;51,23892
 539,52; 5190,288;   57,370;10111,405;51,05331
 540,10; 5246,885;   63,269;10309,029;50,59279
 540,69; 5300,914;   68,763;10444,071;50,42887
 541,27; 5334,859;   58,262;10514,917;50,46161
 541,85; 5413,272;   47,366;10658,783;50,56729
 542,44; 5420,152;   56,460;10765,484;50,08572
 543,02; 5533,484;   80,369;10952,729;50,15576
 543,61; 5613,426;   77,067;11102,218;50,21572
 544,19; 5594,922;   55,066;11264,023;49,42347
 544,78; 5700,124;   62,766;11296,562;50,18213
 545,36; 5775,184;   77,469;11521,011;49,78978
 545,94; 5735,066;   54,564;11563,069;49,35917
 546,53; 5832,692;   52,771;11724,882;49,51907
 547,11; 5961,981;   90,668;11879,873;49,80245
 547,70; 5931,201;   75,860;11954,706;49,29217
 548,28; 5972,619;   47,965;12093,066;49,18725
 548,86; 6056,519;   81,365;12327,767;48,79110
 549,45; 6064,381;   33,768;12364,953;48,90538
 550,03; 6152,027;   76,467;12507,537;48,87399
 550,62; 6261,823;   63,566;12662,842;49,19534
 551,20; 6327,526;   61,467;12808,418;49,15732
 551,78; 6336,366;   61,164;12952,850;48,67635
 552,37; 6408,466;   55,864;13112,469;48,65432
 552,95; 6484,218;   56,765;13214,547;48,84906
 553,54; 6529,869;   49,965;13393,207;48,56319
 554,12; 6595,878;   67,167;13498,797;48,60699
 554,70; 6729,882;   67,568;13736,973;48,73887
 555,29; 6770,820;   61,965;13856,285;48,63491
 555,87; 6807,688;   60,170;13987,786;48,44704
 556,45; 6823,608;   57,162;14154,058;47,99955
 557,04; 6896,226;   43,667;14376,600;47,80989
 557,62; 7016,726;   68,867;14525,499;48,06001
 558,20; 7081,143;   42,671;14799,940;47,69494
 558,79; 7163,629;  100,368;14905,875;47,70699
 559,37; 7181,426;   49,867;15000,418;47,70098
 559,95; 7257,083;   46,669;15169,691;47,67839
 560,54; 7284,531;   71,768;15324,613;47,28798
 561,12; 7353,724;   50,866;15485,562;47,31456
 561,70; 7390,433;   50,369;15679,551;46,96384
 562,29; 7528,430;   61,768;15810,994;47,40971
 562,87; 7580,381;   73,168;16023,953;47,06485
 563,45; 7629,181;   71,068;16194,754;46,87584
 564,04; 7603,311;   54,362;16227,195;46,67672
 564,62; 7755,432;   37,769;16438,332;47,05731
 565,20; 7779,107;   59,962;16715,838;46,34488
 565,78; 7837,469;   70,765;16797,326;46,43336
 566,37; 7913,972;   71,066;17011,283;46,29755
 566,95; 7968,885;   52,969;17124,330;46,36956
 567,53; 8100,708;   67,262;17308,857;46,59341
 568,12; 8022,419;   62,265;17367,766;45,99783
 568,70; 8191,268;   85,264;17565,889;46,37136
 569,28; 8211,533;   61,069;17745,252;46,08901
 569,86; 8300,376;   67,767;17910,758;46,13918
 570,45; 8382,835;   78,569;18124,689;46,01690
 571,03; 8385,758;   53,962;18259,898;45,76417
 571,61; 8526,189;   46,571;18424,824;46,13942
 572,19; 8574,662;   54,263;18395,773;46,45419
 572,78; 8613,129;   70,668;18668,975;45,93139
 573,36; 8728,467;   84,264;18797,668;46,19257
 573,94; 8762,466;   44,064;18892,750;46,25469
 574,52; 8868,999;   54,559;19030,768;46,44995
 575,11; 8855,564;   37,264;19159,830;46,11463
 575,69; 8943,524;   53,566;19268,680;46,26545
 576,27; 8979,104;   47,161;19391,381;46,17371
 576,85; 9069,167;   43,264;19549,668;46,27149
 577,44; 9109,608;   30,262;19814,158;45,89261
 578,02; 9133,200;   32,159;19753,887;46,14728
 578,60; 9272,615;   50,464;20073,791;46,05704
 579,18; 9291,813;   51,963;20160,752;45,94931
 579,76; 9376,717;   40,264;20300,129;46,08349
 580,35; 9421,436;   60,170;20436,707;45,94140
 580,93; 9495,828;   59,667;20641,557;45,84691
 581,51; 9524,086;   24,770;20697,168;45,95169
 582,09; 9522,961;   58,663;20755,756;45,72767
 582,67; 9609,227;   49,567;20971,318;45,69244
 583,26; 9674,031;   28,568;21227,014;45,50080
 583,84; 9745,216;   14,164;21413,709;45,47317
 584,42; 9737,268;   48,064;21513,287;45,13908
 585,00; 9875,925;   81,366;21772,180;45,15533
 585,58; 9899,626;   25,167;21912,299;45,11536
 586,17; 9937,154;   46,761;21948,521;45,15798
 586,75; 9938,073;    6,666;22026,902;45,10127
 587,33;10007,577;   47,767;22191,678;44,97765
 587,91;10034,373;   74,866;22390,201;44,63078
 588,49; 9967,809;   63,962;22349,758;44,44018
 589,07;10027,179;   45,468;22403,215;44,64542
 589,65; 9953,675;   28,267;22444,439;44,27789
 590,24; 9909,858;   42,562;22447,799;44,04014
 590,82; 9858,056;   28,261;22484,160;43,77377
 591,40; 9878,716;   41,464;22520,209;43,76246
 591,98; 9865,050;   45,759;22558,227;43,61712
 592,56; 9864,556;   61,161;22699,961;43,30351
 593,14; 9703,949;   43,359;22728,928;42,58474
 593,72; 9750,769;   29,765;22889,107;42,52530
 594,30; 9534,100;   36,759;22797,486;41,72688
 594,89; 9470,817;   41,364;22862,428;41,31908
 595,47; 9357,055;   38,961;22922,623;40,71942
 596,05; 9215,426;   30,267;23003,799;39,98148
 596,63; 9028,226;   31,167;23056,199;39,07512
 597,21; 8864,822;   36,766;23145,441;38,20235
 597,79; 8568,075;   35,467;23166,039;36,88888
 598,37; 8336,386;   36,669;23222,748;35,79612
 598,95; 8124,173;   50,766;23305,301;34,71756
 599,53; 7833,891;   46,757;23207,996;33,62140
 600,11; 7711,718;   48,665;23341,947;32,89812
 600,70; 7501,664;   57,363;23315,111;32,00783
 601,28; 7356,216;   38,564;23424,809;31,29041
 601,86; 7366,673;   61,766;23355,102;31,36050
 602,44; 7344,356;   23,661;23449,660;31,25030
 603,02; 7491,087;   38,656;23576,521;31,66146
 603,60; 7692,745;   54,858;23663,232;32,35245
 604,18; 7858,112;   69,263;23594,734;33,10815
 604,76; 8010,661;   59,263;23642,154;33,71681
 605,34; 8300,771;   27,565;23530,764;35,20034
 605,92; 8469,707;   59,561;23453,719;35,94977
 606,50; 8546,758;   17,662;23498,998;36,32287
 607,08; 8746,024;   31,666;23394,881;37,29948
 607,66; 8937,223;   39,266;23561,643;37,82763
 608,24; 8985,976;   46,067;23522,059;38,08107
 608,82; 9049,965;   26,164;23532,031;38,38957
 609,40; 9016,674;   46,466;23471,021;38,29404
 609,98; 8993,817;   18,864;23505,928;38,21233
 610,56; 8980,504;   43,861;23497,662;38,10318
 611,14; 8857,220;   30,765;23481,086;37,63895
 611,72; 8799,719;   42,665;23572,467;37,21686
 612,30; 8712,410;   24,962;23468,496;37,05690
 612,88; 8663,697;   60,659;23517,730;36,67567
 613,46; 8553,758;   21,862;23505,697;36,33093
 614,04; 8417,582;   30,068;23461,873;35,79542
 614,62; 8357,705;   41,561;23489,982;35,46569
 615,20; 8226,379;   52,768;23402,416;35,00529
 615,78; 8100,484;   25,569;23463,430;34,45244
 616,36; 8007,166;   41,364;23400,150;34,10195
 616,94; 7864,323;    7,666;23272,242;33,77090
 617,52; 7826,229;   24,067;23373,656;33,41455
 618,10; 7782,249;   63,559;23336,107;33,16650
 618,68; 7739,172;   17,966;23253,184;33,23062
 619,26; 7681,780;   39,268;23398,834;32,71684
 619,84; 7608,813;   18,963;23277,133;32,63305
 620,42; 7554,168;   31,165;23313,506;32,31206
 621,00; 7477,269;   28,865;23209,607;32,13186
 621,58; 7419,301;   38,760;23216,406;31,84336
 622,16; 7460,839;   49,270;23335,164;31,82858
 622,74; 7411,623;   47,066;23327,742;31,63377
 623,32; 7335,022;   42,166;23291,223;31,36840
 623,90; 7373,640;   66,971;23311,484;31,43395
 624,48; 7294,558;   32,662;23196,598;31,35001
 625,05; 7333,458;   34,562;23105,098;31,63731
 625,63; 7353,158;   52,962;23188,799;31,55363
 626,21; 7330,910;   38,262;23117,596;31,59817
 626,79; 7427,926;   53,967;23219,719;31,83130
 627,37; 7407,959;   28,162;23090,717;31,99904
 627,95; 7458,879;   72,768;23200,215;31,93656
 628,53; 7457,568;   49,365;23176,607;32,03237
 629,11; 7523,498;   48,259;23043,449;32,50784
 629,69; 7601,232;   53,369;23256,932;32,52890
 630,27; 7692,313;   80,763;23105,434;33,05823
 630,84; 7728,358;   43,862;23021,197;33,44381
 631,42; 7803,128;   54,367;23319,656;33,30610
 632,00; 7775,699;   45,459;23125,768;33,49279
 632,58; 7836,614;   50,263;23105,172;33,77307
 633,16; 7828,888;   49,870;23096,906;33,75279
 633,74; 7810,368;   56,264;23018,488;33,76896
 634,32; 7779,655;   45,661;23007,842;33,68145
 634,90; 7840,738;   51,970;23195,746;33,65383
 635,47; 7703,803;   38,860;23035,645;33,33050
 636,05; 7649,855;   37,461;22989,342;33,16675
 636,63; 7674,668;   45,965;23104,807;33,08364
 637,21; 7628,517;   67,464;23150,529;32,75584
 637,79; 7620,521;   71,465;23192,904;32,64959
 638,37; 7465,885;   54,055;23070,883;32,20179
 638,94; 7440,820;   33,265;23100,686;32,11263
 639,52; 7407,420;   41,665;23195,285;31,81254
 640,10; 7369,985;   64,264;23215,900;31,55596
 640,68; 7328,536;   54,164;23175,334;31,46195
 641,26; 7239,286;   35,864;23250,268;31,02997
 641,84; 7195,937;   39,164;23235,002;30,85369
 642,41; 7150,888;   28,264;23192,936;30,74779
 642,99; 7177,938;   48,464;23145,568;30,86740
 643,57; 7209,189;   22,064;23158,402;31,06423
 644,15; 7173,140;   27,064;23178,035;30,86728
 644,73; 7243,291;   37,564;23277,568;31,00570
 645,30; 7307,341;   55,264;23230,303;31,29262
 645,88; 7312,892;   44,964;23362,635;31,16918
 646,46; 7375,143;   59,264;23447,568;31,28007
 647,04; 7393,093;   51,864;23367,902;31,48575
 647,61; 7444,644;   46,564;23396,336;31,68374
 648,19; 7430,794;   61,664;23433,369;31,53014
 648,77; 7480,845;   26,264;23442,002;31,83577
 649,35; 7527,496;   51,064;23590,137;31,76179
 649,92; 7544,347;   42,464;23596,070;31,85025
 650,50; 7533,998;   30,064;23551,104;31,90307
 651,08; 7558,448;   39,964;23450,537;32,11576
 651,66; 7507,299;   21,864;23534,770;31,83543
 652,23; 7564,149;   39,064;23561,004;31,99177
 652,81; 7598,200;   36,464;23644,137;32,03084
 653,39; 7615,551;   56,164;23647,170;32,04351
 653,97; 7621,501;   37,065;23882,504;31,80666
 654,54; 7573,752;   23,565;23823,137;31,72405
 655,12; 7573,003;   30,965;23831,971;31,68790
 655,70; 7703,354;   42,065;23962,805;32,02781
 656,28; 7655,604;   32,765;23947,037;31,87569
 656,85; 7633,855;   44,065;24051,070;31,61490
 657,43; 7644,605;   -1,035;23831,305;32,08095
 658,01; 7736,256;   21,465;24078,539;32,06870
 658,58; 7836,307;   55,165;24234,371;32,18113
 659,16; 7819,658;   51,965;24154,105;32,22823
 659,74; 7794,808;   59,465;24338,039;31,86078
 660,32; 7934,259;   71,665;24327,672;32,41504
 660,89; 7926,810;   34,265;24347,305;32,46219
 661,47; 7958,960;   51,665;24464,939;32,38933
 662,05; 7958,911;   25,365;24587,373;32,30007
 662,62; 8063,062;   59,665;24584,006;32,63450
 663,20; 8155,313;   80,665;24740,139;32,74461
 663,78; 8165,763;   47,965;24902,773;32,66088
 664,35; 8192,414;   52,465;24921,006;32,73191
 664,93; 8245,864;   64,465;25123,539;32,64845
 665,51; 8242,115;   49,565;25170,973;32,61183
 666,08; 8293,866;   30,165;25185,707;32,85042
 666,66; 8362,417;   47,465;25667,539;32,45483
 667,23; 8392,067;   51,765;25732,773;32,47654
 667,81; 8445,418;   65,865;25889,307;32,44940
 668,39; 8494,868;   43,265;26047,141;32,50132
 668,96; 8528,119;   54,665;26309,074;32,27440
 669,54; 8558,170;   38,765;26408,408;32,30762
 670,12; 8680,221;   51,165;26808,740;32,24902
 670,69; 8775,271;   64,165;26950,674;32,39954
 671,27; 8840,122;   25,565;27096,008;32,56155
 671,84; 8819,373;   40,665;27105,240;32,43616
 672,42; 8957,123;   66,265;27253,875;32,70187
 673,00; 9033,574;   57,165;27531,408;32,67209
 673,57; 9001,225;   59,965;27276,441;32,85238
 674,15; 9193,676;   64,065;27613,475;33,13904
 674,72; 9171,626;   58,565;27536,209;33,16536
 675,30; 9236,277;   69,466;27513,541;33,40179
 675,88; 9337,228;   36,266;27573,176;33,77635
 676,45; 9410,179;   59,466;27677,309;33,85751
 677,03; 9439,929;   67,866;27525,043;34,13338
 677,60; 9466,979;   41,466;27770,576;33,99140
 678,18; 9569,431;   59,466;27877,510;34,18632
 678,76; 9617,381;   40,766;27809,143;34,48749
 679,33; 9656,531;   57,666;27813,176;34,58364
 679,91; 9683,782;   44,266;27813,311;34,71317
 680,48; 9622,633;   28,766;27740,242;34,62056
 681,06; 9704,184;   50,866;27735,176;34,86927
 681,63; 9697,435;   37,566;27736,209;34,87488
 682,21; 9771,785;   67,966;27797,543;34,99447
 682,78; 9710,436;   20,566;27459,576;35,31421
 683,36; 9673,486;   46,966;27565,510;34,98194
 683,93; 9666,938;   30,466;27450,645;35,14372
 684,51; 9627,988;   26,166;27477,277;34,97790
 685,08; 9749,139;   38,966;27733,711;35,06143
 685,66; 9720,989;   53,066;27694,045;34,97678
 686,24; 9728,040;   33,766;27796,578;34,91820
 686,81; 9848,190;   57,666;27899,910;35,16428
 687,39; 9840,142;   38,866;27807,844;35,29577
 687,96; 9849,392;   54,166;27850,479;35,23930
 688,54; 9915,743;   30,866;27984,811;35,36130
 689,11; 9975,993;   26,966;28043,545;35,51121
 689,69;10095,344;   29,666;28019,279;35,96219
 690,26;10220,895;   59,466;28289,313;35,99534
 690,84;10220,046;   50,066;28239,846;36,07683
 691,41;10313,296;   35,966;28403,879;36,22871
 691,98;10341,247;   31,466;28427,912;36,30659
 692,56;10479,697;   32,866;28437,445;36,77869
 693,13;10580,448;   64,866;28655,080;36,78035
 693,71;10602,099;   24,466;28657,912;36,94153
 694,28;10764,350;   41,966;28715,945;37,39412
 694,86;10758,700;   47,266;28928,879;37,08738
 695,43;10870,251;   61,366;29100,912;37,22126
 696,01;11022,901;   36,266;29145,547;37,74272
 696,58;11002,252;   42,167;29083,879;37,73912
 697,16;11096,103;   38,067;29126,414;38,01535
 697,73;11155,054;   63,467;29338,246;37,88786
 698,30;11167,904;   51,867;29223,980;38,10501
 698,88;11241,955;   40,467;29558,613;37,94780
 699,45;11332,006;   35,367;29765,848;37,99683
 700,03;11422,557;   56,067;29750,980;38,27757
 700,60;11469,607;   56,267;29850,613;38,30707
 701,18;11466,258;   61,867;29963,947;38,13912
 701,75;11558,608;   74,367;30094,682;38,25490
 702,32;11439,560;   50,367;29901,914;38,15277
 702,90;11549,410;   52,467;30254,148;38,06723
 703,47;11676,360;   51,367;30428,881;38,26842
 704,05;11671,711;   67,767;30546,715;38,07200
 704,62;11666,162;   39,867;30587,848;38,05913
 705,19;11789,713;   43,667;30586,982;38,45701
 705,77;11858,863;   29,967;30618,314;38,67125
 706,34;12011,414;   61,667;30627,049;39,09569
 706,91;12006,864;   46,367;30673,883;39,05148
 707,49;12122,915;   57,267;30976,316;39,02335
 708,06;12228,066;   66,367;31089,049;39,20260
 708,64;12226,316;   25,767;31093,582;39,27070
 709,21;12335,968;   58,167;31179,316;39,45163
 709,78;12431,118;   41,367;31281,150;39,66017
 710,36;12654,669;   61,667;31419,684;40,15880
 710,93;12750,819;   50,567;31562,416;40,30310
 711,50;12793,870;   44,467;31506,049;40,52372
 712,08;12956,421;   76,567;31925,383;40,44060
 712,65;12924,571;   73,667;31775,916;40,53625
 713,22;12978,422;   69,067;31900,250;40,55569
 713,80;13067,073;   84,167;31966,883;40,72083
 714,37;13071,724;   55,767;31827,018;40,96772
 714,94;13098,675;   53,967;31727,551;41,18482
 715,52;13107,925;   47,867;31732,984;41,21827
 716,09;13093,376;   65,467;31891,918;40,93422
 716,66;13111,026;   73,467;31935,051;40,91937
 717,23;13061,277;   66,867;31908,484;40,80952
 717,81;13108,728;   50,168;31812,018;41,11398
 718,38;13025,979;   47,468;31671,252;41,04035
 718,95;13014,929;   59,068;31618,984;41,05163
 719,53;12910,280;   56,568;31661,418;40,67006
 720,10;12924,230;   59,968;31481,252;40,94124
 720,67;12860,881;   35,768;31355,984;40,94835
 721,24;12845,932;   59,468;31256,020;40,98679
 721,82;12808,982;   49,968;31236,053;40,91252
 722,39;12900,833;   64,068;31235,885;41,18068
 722,96;12880,984;   64,968;31261,420;41,08165
 723,53;12956,734;   88,268;31151,953;41,42608
 724,11;12999,886;   61,568;31207,486;41,54097
 724,68;13030,936;   71,568;31242,020;41,57581
 725,25;13075,387;   72,768;31399,953;41,50586
 725,82;13115,837;   96,068;31564,387;41,37421
 726,40;13268,988;   62,668;31714,820;41,72329
 726,97;13364,738;   62,168;31875,354;41,81464
 727,54;13434,090;   46,968;31801,486;42,15816
 728,11;13531,740;   49,568;32045,820;42,13672
 728,69;13553,190;   39,568;31938,953;42,36327
 729,26;13680,941;   53,568;32105,088;42,51709
 729,83;13725,192;   53,268;32264,621;42,44443
 730,40;13832,043;   66,768;32291,754;42,71615
 730,97;13907,294;   44,268;32590,588;42,59476
 731,55;14074,044;   41,468;32755,820;42,89425
 732,12;14120,995;   86,268;32841,656;42,84708
 732,69;14089,546;   66,968;32889,988;42,72178
 733,26;14131,696;   55,168;32930,520;42,81788
 733,83;14291,447;   41,168;32979,055;43,26410
 734,41;14257,998;   65,468;32991,590;43,10416
 734,98;14260,448;   51,368;33155,621;42,92222
 735,55;14346,799;   43,168;33183,656;43,16059
 736,12;14473,750;   65,968;33377,289;43,25191
 736,69;14477,101;   76,968;33377,922;43,24240
 737,26;14430,251;   57,468;33552,254;42,91051
 737,84;14463,002;   70,768;33487,188;43,06935
 738,41;14439,353;   63,168;33492,422;43,00480
 738,98;14446,903;   63,569;33375,055;43,17830
 739,55;14482,454;   49,669;33377,789;43,30513
 740,12;14551,404;   62,969;33678,023;43,10103
 740,69;14482,355;   70,569;33575,656;43,01373
 741,26;14513,506;   56,269;33557,391;43,15449
 741,83;14630,557;   53,869;33719,523;43,29839
 742,41;14701,008;   56,169;33833,055;43,35758
 742,98;14741,058;   91,469;33874,590;43,36363
 743,55;14885,409;   53,569;33836,824;43,90293
 744,12;14788,959;   50,469;33859,855;43,59289
 744,69;14760,110;   59,569;33848,492;43,50698
 745,26;14842,461;   42,169;33677,723;44,00193
 745,83;14834,512;   58,769;33854,355;43,72092
 746,40;14904,563;   57,969;33844,789;43,94197
 746,97;14923,013;   44,769;33828,125;44,04016
 747,55;14896,163;   62,269;33966,957;43,75175
 748,12;14952,414;   57,869;33910,191;43,99859
 748,69;14897,064;   68,769;33877,625;43,85921
 749,26;15061,016;   65,069;33958,559;44,24433
 749,83;14906,066;   42,569;33911,992;43,88471
 750,40;15051,117;   89,669;34158,824;43,91494
 750,97;14995,768;   96,269;34144,160;43,76042
 751,54;14845,618;   40,569;33980,793;43,62095
 752,11;14814,069;   52,969;33874,727;43,64380
 752,68;14850,120;   87,869;33912,859;43,64303
 753,25;14827,170;   60,269;33774,594;43,80008
 753,82;14802,421;   65,069;33810,527;43,67210
 754,39;14820,172;   75,169;33727,160;43,81614
 754,96;14779,122;   60,069;33616,395;43,86372
 755,53;14854,273;   29,469;33796,527;43,90316
 756,10;14784,023;   64,169;33720,961;43,73517
 756,67;14753,975;   73,369;33813,395;43,51095
 757,24;14812,325;   72,769;33740,426;43,77957
 757,81;14789,576;   16,469;33677,762;43,88752
 758,38;14809,927;   54,569;33822,695;43,69611
 758,95;14922,077;   79,469;33743,426;44,09050
 759,52;14915,628;   57,469;33615,859;44,27554
 760,09;14828,179;   68,570;33306,992;44,40526
 760,66;14765,229;   59,570;33309,727;44,22734
 761,23;14808,080;   91,070;33353,961;44,24453
 761,80;14775,131;   56,270;33295,793;44,28120
 762,37;14795,981;   68,970;33167,727;44,49415
 762,94;14788,632;   70,970;33187,461;44,44209
 763,51;14744,583;   36,070;32949,793;44,68809
 764,08;14775,434;   66,270;32998,527;44,66491
 764,65;14782,484;   69,570;32798,961;44,95322
 765,22;14746,734;   54,670;32804,496;44,86150
 765,79;14817,586;   77,370;32691,928;45,19520
 766,36;14747,036;   73,170;32743,063;44,91556
 766,93;14781,187;   68,970;32551,295;45,29299
 767,50;14722,537;   89,470;32828,328;44,69633
 768,07;14675,688;   63,870;32699,262;44,77292
 768,64;14611,739;   86,470;32572,596;44,71222
 769,21;14449,989;   57,970;32359,729;44,55491
 769,78;14427,840;   78,770;32244,963;44,60916
 770,34;14263,391;   45,570;32031,195;44,45066
 770,91;14239,241;   58,470;31921,430;44,50551
 771,48;14167,893;   62,370;31836,863;44,39260
 772,05;14064,043;   66,470;31610,697;44,37444
 772,62;13940,894;   42,670;31443,029;44,26135
 773,19;13972,045;   59,370;31579,764;44,13865
 773,76;13990,396;   71,070;31506,297;44,27939
 774,33;13957,346;   74,170;31447,330;44,25176
 774,90;13869,396;   52,870;31206,064;44,35027
 775,47;13811,848;   59,970;30957,498;44,50802
 776,03;13845,198;   73,470;30984,330;44,55304
 776,60;13747,849;   55,970;30757,863;44,59620
 777,17;13721,299;   65,470;30698,098;44,57936
 777,74;13627,450;   30,870;30522,031;44,59187
 778,31;13600,700;   68,970;30582,064;44,34729
 778,88;13648,352;   30,470;30366,898;44,88953
 779,45;13575,102;   75,770;30358,131;44,57820
 780,01;13573,253;   58,370;30299,664;44,69016
 780,58;13469,203;   60,570;30177,998;44,52118
 781,15;13393,554;   38,771;29979,432;44,60417
 781,72;13391,104;   66,771;29962,266;44,56970
 782,29;13254,855;   51,771;29667,100;44,58193
 782,86;13180,206;   55,571;29617,732;44,39674
 783,42;13133,657;   56,171;29598,166;44,26745
 783,99;13134,707;   66,671;29482,100;44,42579
 784,56;13029,158;   55,171;29320,232;44,33268
 785,13;12897,809;   40,271;29247,266;44,02212
 785,70;12774,159;   49,071;29060,299;43,86263
 786,26;12744,011;   51,671;28910,732;43,98043
 786,83;12846,361;   84,371;28889,166;44,30509
 787,40;12728,312;   57,171;28783,500;44,10985
 787,97;12580,462;   43,971;28581,133;43,93041
 788,54;12590,313;   70,371;28515,268;44,01472
 789,10;12404,563;   57,971;28344,400;43,64847
 789,67;12440,414;   70,371;28245,334;43,90438
 790,24;12437,465;   51,071;28193,768;44,01282
 790,81;12233,315;   88,271;27914,400;43,64619
 791,37;12263,366;   73,671;27872,135;43,85025
 791,94;12187,617;   70,771;27886,367;43,56134
 792,51;12141,768;   46,271;27539,201;43,99493
 793,08;12150,318;   69,771;27555,234;43,95250
 793,64;12126,169;   71,271;27455,168;44,02185
 794,21;12147,020;   69,671;27250,602;44,43317
 794,78;12008,070;   53,071;27147,035;44,12422
 795,35;11972,722;   73,471;27007,969;44,17848
 795,91;11864,872;   48,071;26789,301;44,18944
 796,48;11843,423;   55,771;26710,734;44,22310
 797,05;11928,173;   57,671;26624,369;44,68189
 797,62;11925,224;   41,971;26600,701;44,74330
 798,18;11761,375;   57,471;26410,736;44,41159
 798,75;11745,625;   56,571;26279,770;44,57524
 799,32;11755,776;   60,771;26209,102;44,72563
 799,88;11609,627;   55,971;26051,535;44,44472
 800,45;11516,978;   33,971;25945,270;44,31660
 801,02;11538,328;   65,271;25880,104;44,44366
 801,58;11472,279;   90,872;25660,436;44,51154
 802,15;11308,430;   72,872;25615,270;43,98788
 802,72;11221,681;   66,172;25404,703;44,02587
 803,28;11226,331;   49,172;25288,938;44,28393
 803,85;11114,182;   41,972;25144,871;44,10730
 804,42;11100,832;   77,772;24948,004;44,32231
 804,98;11073,183;  100,672;24935,537;44,18188
 805,55;10999,533;   56,972;24702,371;44,40002
 806,12;10895,984;   83,572;24611,004;44,08294
 806,68;10852,135;   66,472;24493,738;44,15420
 807,25;10798,485;   74,972;24436,271;44,01864
 807,82;10804,336;   86,872;24407,805;44,06683
 808,38;10818,287;   73,672;24367,037;44,22860
 808,95;10836,638;   62,972;24166,971;44,69659
 809,52;10718,988;   50,272;24162,004;44,24699
 810,08;10734,739;   55,172;23994,938;44,61016
 810,65;10769,790;   77,172;24169,672;44,38152
 811,21;10747,940;   69,972;24123,404;44,39270
 811,78;10823,291;   92,472;24337,539;44,25980
 812,35;10808,242;   64,972;24173,871;44,56143
 812,91;10802,992;   90,072;24239,705;44,36059
 813,48;10773,443;   68,172;24202,738;44,35659
 814,04;10785,794;   64,172;24088,373;44,62842
 814,61;10761,245;   77,572;24176,006;44,33347
 815,18;10695,596;   67,772;23892,539;44,60830
 815,74;10683,746;   69,772;23709,172;44,89951
 816,31;10618,097;   83,372;23614,406;44,76949
 816,87;10381,747;   43,272;23489,641;44,09414
 817,44;10420,498;   76,972;23452,273;44,24981
 818,00;10262,449;   43,272;23159,506;44,20779
 818,57;10274,699;   71,872;23076,340;44,35150
 819,14;10256,550;   82,872;22924,273;44,54051
 819,70;10110,201;   72,672;22792,707;44,17920
 820,27; 9984,651;   62,972;22691,941;43,84503
 820,83; 9977,502;   70,072;22541,373;44,08926
 821,40; 9854,953;   98,072;22431,908;43,68654
 821,96; 9741,903;   75,272;22315,541;43,46454
 822,53; 9802,954;   70,973;22257,574;43,86423
 823,09; 9697,104;   81,073;22073,309;43,72467
 823,66; 9632,756;   68,173;21862,541;43,88557
 824,22; 9607,807;   77,173;21851,674;43,76970
 824,79; 9519,557;   75,473;21561,408;43,95473
 825,35; 9554,808;   65,173;21648,041;43,96837
 825,92; 9436,358;   75,173;21398,875;43,90038
 826,48; 9460,609;   87,673;21501,309;43,77088
 827,05; 9446,960;   89,573;21448,242;43,81072
 827,61; 9440,110;   75,273;21249,076;44,22841
 828,18; 9377,761;   60,873;21191,209;44,09247
 828,74; 9275,312;   91,673;21053,543;43,81116
 829,31; 9296,862;   83,373;21002,176;44,04406
 829,87; 9261,713;   73,073;20733,709;44,47414
 830,44; 9189,164;   85,173;20631,443;44,30970
 831,00; 9110,415;   91,273;20673,977;43,81904
 831,57; 9061,165;  101,573;20631,609;43,64138
 832,13; 8993,516;   72,073;20323,344;44,05374
 832,69; 9010,167;   58,173;20309,477;44,20453
 833,26; 9001,417;   85,473;20322,711;44,05712
 833,82; 8869,668;   93,073;20197,744;43,65451
 834,39; 8819,619;   78,773;20137,477;43,57633
 834,95; 8731,869;   57,173;19959,410;43,58654
 835,52; 8714,820;   87,873;19851,744;43,65009
 836,08; 8661,371;   95,573;19951,877;43,13893
 836,64; 8597,222;   76,273;19800,711;43,19996
 837,21; 8537,272;   88,673;19552,443;43,40680
 837,77; 8462,923;   91,873;19491,777;43,14995
 838,34; 8441,474;   67,473;19470,012;43,15930
 838,90; 8402,824;   64,473;19306,045;43,33508
 839,46; 8443,975;   83,873;19312,479;43,47742
 840,03; 8445,426;   76,173;19300,811;43,53399
 840,59; 8318,676;   85,873;19175,645;43,12677
 841,16; 8312,327;  105,173;19156,578;43,07900
 841,72; 8238,577;   59,373;18965,512;43,26216
 842,28; 8207,429;   77,873;18857,246;43,28981
 842,85; 8244,179;   95,573;18812,578;43,53584
 843,41; 8215,330;  105,374;18740,813;43,51900
 843,97; 8209,881;   89,174;18686,846;43,66518
 844,54; 8145,831;  104,774;18624,979;43,41776
 845,10; 8099,682;   89,174;18523,713;43,45380
 845,67; 8076,232;   68,774;18413,445;43,65005
 846,23; 8051,183;   78,674;18361,080;43,60755
 846,79; 8017,534;   90,474;18265,613;43,61485
 847,36; 7913,384;   55,774;18179,047;43,35646
 847,92; 7982,735;   84,874;18034,680;43,99970
 848,48; 7907,386;   41,874;18039,213;43,70375
 849,04; 7882,236;   62,374;17949,447;43,71795
 849,61; 7808,187;   56,274;17918,580;43,39817
 850,17; 7795,338;   68,174;17819,514;43,53003
 850,73; 7683,489;   71,474;17764,848;43,02184
 851,30; 7633,040;   46,074;17669,881;43,04953
 851,86; 7559,590;   75,874;17597,914;42,71030
 852,42; 7570,741;   51,174;17568,348;42,92683
 852,99; 7569,491;   79,274;17583,082;42,79193
 853,55; 7499,642;   83,174;17542,514;42,47851
 854,11; 7450,493;   70,074;17432,049;42,50910
 854,67; 7440,744;   85,474;17420,881;42,42917
 855,24; 7391,094;   51,874;17213,414;42,76551
 855,80; 7343,645;   76,874;17244,848;42,32748
 856,36; 7284,996;   80,574;17175,881;42,14269
 856,92; 7283,046;   54,474;17027,215;42,58930
 857,49; 7261,997;   81,274;17048,248;42,32177
 858,05; 7226,848;   67,274;16968,482;42,36131
 858,61; 7262,098;   65,774;17003,316;42,48742
 859,17; 7237,649;   77,374;16904,250;42,55261
 859,74; 7214,399;   82,074;16836,883;42,56883
 860,30; 7192,650;   93,074;16663,016;42,84611
 860,86; 7128,201;   72,074;16692,350;42,45493
 861,42; 7089,652;   74,674;16545,883;42,58933
 861,99; 7053,502;   54,674;16506,717;42,54079
 862,55; 7005,453;   66,374;16393,051;42,50148
 863,11; 6972,804;   75,174;16437,283;42,15611
 863,67; 6895,854;   61,274;16290,117;42,11379
 864,23; 6869,905;   80,175;16199,351;42,12207
 864,80; 6841,556;   69,175;16081,384;42,29511
 865,36; 6808,006;   71,875;16120,817;41,97243
 865,92; 6788,257;   96,175;16088,751;41,84493
 866,48; 6726,808;   67,375;15987,384;41,83059
 867,04; 6604,559;   60,675;15891,418;41,33656
 867,60; 6674,809;   99,375;15884,451;41,65602
 868,17; 6513,760;   93,675;15884,685;40,65658
 868,73; 6464,511;   82,775;15672,618;40,93522
 869,29; 6401,261;   59,475;15470,151;41,15190
 869,85; 6415,912;  100,475;15369,685;41,36060
 870,41; 6325,463;   80,575;15293,418;41,05010
 870,97; 6292,313;   92,975;15232,252;40,94871
 871,54; 6162,364;   84,175;15178,686;40,26755
 872,10; 6164,315;   84,275;15055,419;40,61173
 872,66; 6119,365;   66,775;14910,652;40,77500
 873,22; 6089,216;   81,975;14890,586;40,56587
 873,78; 6001,567;   65,275;14742,419;40,44582
 874,34; 6013,018;   95,075;14662,652;40,62407
 874,90; 5954,417;  109,775;14536,053;40,51386
 875,46; 5885,917;   96,375;14412,952;40,43943
 876,03; 5851,118;   86,475;14363,353;40,37748
 876,59; 5806,217;   64,475;14153,253;40,75401
 877,15; 5708,717;  101,475;14166,853;39,86557
 877,71; 5714,917;   78,275;14064,652;40,30095
 878,27; 5629,717;   95,675;13910,553;40,05857
 878,83; 5581,217;  114,275;13971,753;39,45121
 879,39; 5548,317;   91,075;14082,753;39,00349
 879,95; 5520,118;   86,275;13964,253;39,15443
 880,51; 5526,118;   75,175;13927,253;39,35108
 881,07; 5494,518;   82,375;13978,753;38,94643
 881,63; 5535,018;   92,575;13971,253;39,21442
 882,19; 5513,917;   82,675;13921,553;39,24626
 882,75; 5467,317;   86,275;14019,553;38,62008
 883,31; 5486,018;   95,575;14187,853;38,25104
 883,88; 5485,018;   96,375;14174,353;38,27711
 884,44; 5422,618;   76,175;14175,753;37,91917
 885,00; 5463,417;  106,075;14266,952;37,83200
 885,56; 5460,417;  101,675;14299,452;37,74353
 886,12; 5449,217;  109,875;14421,152;37,30864
 886,68; 5396,618;   90,775;14436,753;36,98488
 887,24; 5472,417;  102,475;14574,952;37,10452
 887,80; 5431,817;   86,975;14671,753;36,64672
 888,36; 5462,417;  106,275;14715,652;36,66236
 888,92; 5490,717;   98,975;14773,353;36,74256
 889,48; 5535,317;   99,575;14973,853;36,54458
 890,04; 5496,317;   95,275;14803,053;36,72236
 890,60; 5538,417;  117,475;15014,652;36,38906
 891,16; 5461,018;   99,875;15075,853;35,79828
 891,72; 5473,717;  113,275;15058,452;35,86737
 892,28; 5522,518;  112,475;15126,053;36,03433
 892,84; 5406,417;   93,775;15039,853;35,54540
 893,39; 5446,317;  117,575;15112,952;35,53590
 893,95; 5405,217;  112,975;15044,753;35,44281
 894,51; 5274,917;   66,375;14891,253;35,13380
 895,07; 5337,518;  127,375;14906,353;35,25374
 895,63; 5134,917;   74,275;14689,952;34,62476
 896,19; 5034,018;   90,375;14601,952;34,06689
 896,75; 5012,018;  105,175;14460,152;34,18217
 897,31; 4895,518;   82,775;14295,853;33,86137
 897,87; 4787,118;   98,175;14146,853;33,37640
 898,43; 4730,317;   87,775;14075,753;33,18952
 898,99; 4616,717;  109,175;14002,753;32,44335
 899,55; 4623,717;  109,475;13940,652;32,63816
 900,11; 4521,118;  104,975;13747,553;32,37030
 900,67; 4366,917;   91,375;13658,652;31,51364
 901,22; 4369,618;  108,375;13601,952;31,57979
 901,78; 4285,018;   91,275;13560,053;31,13677
 902,34; 4240,618;  103,075;13451,152;30,99729
 902,90; 4126,018;   73,575;13350,652;30,52210
 903,46; 4059,817;   95,775;13236,353;30,16642
 904,02; 3995,317;   88,075;13091,553;30,04767
 904,58; 3867,417;   67,075;12918,152;29,57217
 905,14; 3841,518;   63,975;12874,553;29,48768
 905,70; 3781,117;   66,775;12696,053;29,41057
 906,25; 3768,617;   84,375;12708,452;29,18425
 906,81; 3678,817;   87,675;12732,152;28,40088
 907,37; 3679,117;   79,275;12616,152;28,71403
 907,93; 3641,617;   74,775;12588,152;28,50423
 908,49; 3613,417;  101,875;12497,652;28,32854
 909,05; 3516,018;   89,675;12425,553;27,77543
 909,60; 3489,718;   86,575;12340,452;27,77197
 910,16; 3401,417;   67,675;12291,853;27,27171
 910,72; 3360,417;  100,475;12207,753;26,92548
 911,28; 3277,317;   90,875;12156,053;26,41024
 911,84; 3205,117;   79,575;12106,753;25,98733
 912,39; 3149,317;   73,475;12049,353;25,68365
 912,95; 3126,117;  104,475;12001,452;25,39840
 913,51; 3090,617;   85,375;11945,253;25,33957
 914,07; 2971,417;   83,775;11813,452;24,61826
 914,63; 2931,817;   64,775;11748,053;24,53971
 915,18; 2866,917;   77,475;11617,853;24,17115
 915,74; 2792,117;   63,975;11632,652;23,58215
 916,30; 2705,018;   61,475;11588,553;22,93333
 916,86; 2689,917;   83,575;11514,652;22,80050
 917,42; 2638,417;   82,275;11425,152;22,53522
 917,97; 2556,718;   75,375;11265,452;22,17449
 918,53; 2484,518;   67,775;11196,253;21,71674
 919,09; 2480,617;   88,975;11223,753;21,47903
 919,65; 2403,718;   83,375;11083,452;21,09388
 920,20; 2362,117;   61,875;10983,053;21,06222
 920,76; 2295,718;   65,475;10849,452;20,68108
 921,32; 2260,417;   82,675;10770,952;20,37506
 921,87; 2204,417;   97,475;10670,253;19,92799
 922,43; 2111,317;   64,675;10561,353;19,49800
 922,99; 2043,318;   61,875;10406,753;19,15385
 923,55; 2018,917;   63,775;10357,353;18,99381
 924,10; 2005,417;   73,575;10282,853;18,92242
 924,66; 1993,218;   78,675;10170,152;18,97188
 925,22; 1905,718;   43,275;10093,952;18,53052
 925,77; 1870,618;   66,075; 9927,053;18,29983
 926,33; 1836,017;   90,375; 9903,253;17,78930
 926,89; 1754,618;   71,975; 9692,753;17,48967
 927,44; 1694,218;   52,175; 9580,553;17,23318
 928,00; 1666,417;   66,875; 9533,753;16,89620
 928,56; 1616,517;   80,375; 9372,253;16,53210
 929,12; 1583,318;   72,775; 9275,152;16,41470
 929,67; 1509,417;   67,575; 9091,053;15,97879
 930,23; 1470,218;   50,975; 8915,253;16,01081
 930,78; 1462,917;  100,675; 8842,553;15,58295
 931,34; 1366,318;   61,975; 8632,152;15,21955
 931,90; 1319,917;   61,675; 8494,353;14,92103
 932,45; 1252,917;   78,775; 8290,753;14,29793
 933,01; 1204,017;   52,975; 8024,453;14,43951
 933,57; 1155,218;   72,175; 7753,252;14,10014
 934,12; 1073,818;   70,475; 7399,553;13,68989
 934,68;  993,518;   59,075; 7020,252;13,42363
 935,24;  961,818;   67,875; 6614,752;13,65449
 935,79;  900,218;   72,975; 6254,853;13,38174
 936,35;  844,818;   91,375; 5812,252;13,17005
 936,90;  772,218;   80,275; 5348,752;13,13363
 937,46;  693,917;   72,775; 4956,953;12,71744
 938,02;  647,117;   63,375; 4549,152;13,01318
 938,57;  622,917;   73,175; 4265,053;13,11447
 939,13;  573,617;   70,575; 3986,752;12,84524
 939,68;  518,917;   57,375; 3713,452;12,62398
 940,24;  497,517;   68,775; 3504,052;12,48058
 940,79;  515,417;   91,875; 3391,052;12,83782
 941,35;  492,418;   79,675; 3217,552;13,15356
 941,91;  449,318;   71,375; 3122,252;12,38799
 942,46;  442,217;   75,075; 3063,552;12,28527
 943,02;  432,517;   65,375; 3050,752;12,29803
 943,57;  393,017;   61,275; 2982,452;11,35646
 944,13;  412,818;   67,375; 2974,452;11,88281
 944,68;  410,318;   65,975; 3041,752;11,57151
 945,24;  430,217;   82,275; 3060,052;11,68464
 945,79;  403,617;   68,775; 3104,052;11,03169
 946,35;  392,818;   51,775; 3194,752;10,85094
 946,90;  432,217;   98,575; 3283,552;10,47551
 947,46;  406,318;   52,175; 3311,052;10,86701
 948,01;  390,117;   51,575; 3390,052;10,14063
 948,57;  432,217;   86,775; 3552,952; 9,96609
 949,12;  408,717;   65,875; 3613,353; 9,66440
 949,68;  423,017;   76,275; 3732,653; 9,48322
 950,23;  416,818;   70,075; 3833,252; 9,21409
 950,79;  419,017;   75,775; 3933,452; 8,89765
 951,34;  446,617;   83,275; 4070,952; 9,11163
 951,90;  412,717;   57,475; 4140,853; 8,69972
 952,45;  448,717;   81,075; 4292,152; 8,73037
 953,01;  429,717;   65,975; 4364,252; 8,46252
 953,56;  450,217;   87,975; 4500,853; 8,20876
 954,12;  421,117;   42,075; 4567,553; 8,37575
 954,67;  437,517;   70,875; 4720,453; 7,88550
 955,23;  440,217;   61,975; 4804,553; 7,97546
 955,78;  452,017;   67,175; 4882,953; 7,99128
 956,33;  428,517;   58,575; 4947,252; 7,56733
 956,89;  435,918;   53,475; 5038,553; 7,67175
 957,44;  450,717;   53,675; 5170,752; 7,75917
 958,00;  435,318;   49,475; 5238,353; 7,43595
 958,55;  453,418;   70,475; 5313,953; 7,30322
 959,10;  441,517;   52,375; 5370,252; 7,31763
 959,66;  471,217;   74,275; 5488,752; 7,33113
 960,21;  463,617;   78,475; 5567,453; 7,01665
 960,77;  438,918;   54,275; 5606,152; 6,92815
 961,32;  430,117;   48,375; 5663,453; 6,79853
 961,87;  450,418;   79,775; 5738,752; 6,54964
 962,43;  456,918;   68,975; 5780,652; 6,79209
 962,98;  455,217;   76,175; 5828,652; 6,58920
 963,54;  408,918;   27,075; 5820,652; 6,59079
 964,09;  429,617;   56,275; 5873,953; 6,41738
 964,64;  440,418;   64,975; 5901,053; 6,43313
 965,20;  419,617;   44,375; 5966,652; 6,33612
 965,75;  429,818;   66,575; 5976,353; 6,14647
 966,30;  427,517;   75,275; 6068,553; 5,87729
 966,86;  423,517;   62,975; 6121,953; 5,95055
 967,41;  431,517;   81,075; 6084,453; 5,83742
 967,96;  434,017;   75,175; 6108,953; 5,94723
 968,52;  441,117;   81,775; 6126,353; 5,94487
 969,07;  418,217;   72,975; 6120,152; 5,70915
 969,62;  423,017;   77,175; 6134,953; 5,70907
 970,18;  403,918;   57,575; 6147,652; 5,68700
 970,73;  409,418;   66,475; 6203,553; 5,58804
 971,28;  443,918;   95,775; 6197,053; 5,70606
 971,84;  394,818;   55,075; 6118,752; 5,60291
 972,39;  434,117;   95,875; 6148,652; 5,58822
 972,94;  392,918;   54,975; 6140,652; 5,55308
 973,49;  389,418;   64,575; 6141,252; 5,34573
 974,05;  400,318;   64,375; 6178,053; 5,49493
 974,60;  411,918;   88,575; 6213,252; 5,27934
 975,15;  408,818;   77,675; 6231,553; 5,38104
 975,71;  399,017;   62,375; 6121,453; 5,55600
 976,26;  411,217;   77,575; 6110,252; 5,53059
 976,81;  419,117;   90,675; 6134,152; 5,43466
 977,36;  392,017;   84,775; 6156,953; 5,05984
 977,92;  411,517;   90,175; 6209,353; 5,25140
 978,47;  396,818;   77,175; 6060,252; 5,34244
 979,02;  409,217;   95,475; 6085,652; 5,23762
 979,57;  388,818;   86,775; 6058,453; 5,05792
 980,13;  376,617;   76,175; 6038,752; 5,03880
 980,68;  369,318;   77,075; 6010,553; 4,92532
 981,23;  385,617;   89,175; 6054,652; 4,96930
 981,78;  370,517;   82,075; 5974,152; 4,89543
 982,33;  381,517;   79,275; 5893,252; 5,19855
 982,89;  381,918;   94,375; 5938,152; 4,92049
 983,44;  347,818;   65,675; 5935,853; 4,80637
 983,99;  398,617;  104,775; 5949,453; 5,02752
 984,54;  375,818;   81,475; 5900,053; 5,05867
 985,09;  376,517;   87,275; 5873,752; 4,99859
 985,65;  350,918;   69,375; 5811,853; 4,90281
 986,20;  376,517;  106,575; 5791,152; 4,74868
 986,75;  379,318;   95,875; 5823,953; 4,94830
 987,30;  373,117;   97,175; 5726,053; 4,90226
 987,85;  353,418;   92,475; 5721,353; 4,63578
 988,40;  369,217;   96,675; 5693,953; 4,86920
 988,96;  382,418;  114,875; 5666,553; 4,81913
 989,51;  376,717;  108,875; 5644,053; 4,83891
 990,06;  390,617;  128,275; 5680,853; 4,72470
 990,61;  346,617;   93,575; 5569,053; 4,62138
 991,16;  366,117;  104,375; 5558,053; 4,79938
 991,71;  326,217;   79,875; 5505,853; 4,54006
 992,26;  346,318;   93,475; 5457,252; 4,71389
 992,81;  332,818;   75,075; 5427,053; 4,81584
 993,37;  365,918;  113,475; 5390,553; 4,78376
 993,92;  359,418;  108,375; 5368,953; 4,77215
 994,47;  356,918;  117,475; 5329,652; 4,59391
 995,02;  366,818;  118,475; 5313,252; 4,78062
 995,57;  340,617;   90,875; 5274,652; 4,81777
 996,12;  375,217;  133,575; 5247,553; 4,72514
 996,67;  368,818;  132,375; 5191,652; 4,67344
 997,22;  331,017;   99,875; 5128,652; 4,59640
 997,77;  356,217;  115,275; 5110,553; 4,82341
 998,32;  333,017;  103,775; 5015,652; 4,66711
 998,87;  350,117;  114,275; 5018,752; 4,80872
 999,42;  343,517;  101,675; 4972,553; 4,96507
 999,97;  342,418;  109,975; 4956,353; 4,79621
1000,53;  358,617;  123,475; 4993,752; 4,82811
1001,08;  324,017;   98,375; 4879,053; 4,71988
1001,63;  365,418;  144,475; 4878,053; 4,66756
1002,18;  279,117;   85,075; 4777,453; 4,13527
1002,73;  343,517;  131,375; 4813,853; 4,53056
1003,28;  326,918;  103,575; 4811,953; 4,74351
1003,83;  340,117;  119,075; 4691,752; 4,83398
1004,38;  351,617;  137,775; 4703,152; 4,68400
1004,93;  324,818;  114,375; 4680,953; 4,60832
1005,48;  313,017;  104,075; 4573,053; 4,67540
1006,03;  313,818;  112,775; 4525,652; 4,55581
1006,58;  306,617;  111,475; 4486,553; 4,46032
1007,13;  293,617;   94,475; 4466,252; 4,55518
1007,68;  296,517;  104,975; 4462,453; 4,39572
1008,23;  318,617;  114,575; 4425,853; 4,73276
1008,78;  304,717;  107,375; 4384,152; 4,61428
1009,33;  313,517;  121,875; 4307,752; 4,57831
1009,88;  285,918;   84,775; 4329,553; 4,73859
1010,43;  310,517;  118,875; 4320,752; 4,56088
1010,98;  295,418;  100,675; 4310,053; 4,62640
1011,52;  289,617;   97,075; 4264,953; 4,61968
1012,07;  326,318;  144,475; 4319,252; 4,35574
1012,62;  286,217;  103,875; 4259,152; 4,38821
1013,17;  290,418;   97,175; 4172,053; 4,74229
1013,72;  280,318;   94,575; 4143,453; 4,58751
1014,27;  289,418;  100,275; 4105,853; 4,72198
1014,82;  255,417;   86,875; 4042,952; 4,26034
1015,37;  264,617;   84,375; 3964,853; 4,64485
1015,92;  290,517;  109,475; 3894,252; 4,78344
1016,47;  251,217;   90,275; 3819,452; 4,31576
1017,02;  243,217;   81,075; 3732,153; 4,44095
1017,57;  267,017;   96,475; 3718,853; 4,70803
1018,11;  245,318;   77,275; 3656,252; 4,69527
1018,66;  273,318;  120,175; 3636,552; 4,35512
1019,21;  264,318;  109,675; 3579,552; 4,45671
1019,76;  234,018;   77,675; 3497,353; 4,57185
1020,31;  221,318;   71,975; 3446,452; 4,42565
1020,86;  240,617;   96,175; 3448,052; 4,30930
1021,41;  233,518;   80,175; 3387,052; 4,63708
1021,96;  239,018;   83,675; 3385,853; 4,70424
1022,50;  254,117;  105,975; 3332,952; 4,59075
1023,05;  236,018;   94,675; 3288,052; 4,42611
1023,60;  245,417;   97,975; 3251,353; 4,67570
1024,15;  217,518;   81,075; 3184,853; 4,39601
1024,70;  239,318;   95,075; 3176,252; 4,68141
1025,25;  224,917;   81,175; 3127,452; 4,71863
1025,79;  234,117;  101,175; 3110,752; 4,41731
1026,34;  229,318;   83,475; 3044,653; 4,92515
1026,89;  225,518;  102,175; 3039,052; 4,19978
1027,44;  229,417;   95,875; 2952,952; 4,67409
1027,99;  221,217;   93,475; 2944,552; 4,48050
1028,53;  219,117;   89,675; 2900,052; 4,60588
1029,08;  241,518;  114,775; 2876,653; 4,58900
1029,63;  227,217;  114,875; 2854,952; 4,09998
1030,18;  222,617;   92,075; 2788,552; 4,84122
1030,73;  203,818;   91,175; 2739,552; 4,25326
1031,27;  202,617;   85,875; 2715,252; 4,43993
1031,82;  197,018;   81,875; 2686,452; 4,42077
1032,37;  211,318;   98,875; 2688,853; 4,34145
1032,92;  222,018;  100,575; 2675,452; 4,71644
1033,46;  207,018;   99,775; 2599,252; 4,29060
1034,01;  187,818;   78,375; 2582,952; 4,36970
1034,56;  221,217;   98,875; 2559,252; 4,97251
1035,11;  211,018;   92,375; 2523,552; 4,88004
1035,65;  205,518;   87,575; 2478,052; 4,93385
1036,20;  220,117;   99,375; 2454,452; 5,12690
1036,75;  237,217;  118,675; 2446,353; 5,09274
1037,29;  206,417;   90,275; 2398,252; 5,03222
1037,84;  181,318;   78,375; 2347,252; 4,53716
1038,39;  201,518;   91,075; 2329,952; 4,93294
1038,94;  174,117;   73,075; 2277,153; 4,58434
1039,48;  190,818;   83,575; 2278,552; 4,88581
1040,03;  217,018;  102,875; 2245,252; 5,32784
1040,58;  198,518;  101,175; 2194,552; 4,65002
1041,12;  193,217;   91,375; 2191,653; 4,84900
1041,67;  187,117;  101,075; 2166,752; 4,16534
1042,22;  200,217;  118,475; 2145,252; 4,03313
1042,76;  181,818;   99,275; 2118,452; 4,08793
1043,31;  197,117;   90,675; 2060,653; 5,40323
1043,86;  192,717;   98,875; 2044,252; 4,82387
1044,40;  203,617;   92,975; 2018,052; 5,74743
1044,95;  183,717;   94,175; 1988,552; 4,72675
1045,50;  176,917;   75,375; 1934,353; 5,46228
1046,04;  204,018;  114,375; 1930,453; 4,93605
1046,59;  181,917;   96,175; 1878,353; 4,81111
1047,13;  187,917;  121,075; 1879,453; 3,80137
1047,68;  186,617;  115,675; 1860,052; 4,06692
1048,23;  196,217;  118,775; 1866,752; 4,43041
1048,77;  168,318;   90,175; 1784,953; 4,61078
1049,32;  178,417;  104,175; 1785,953; 4,41453
1049,86;  177,117;   92,675; 1760,552; 5,06287
1050,41;  163,417;   82,475; 1735,552; 4,89647
1050,96;  177,018;  100,875; 1698,652; 4,76553
1051,50;  172,217;  101,675; 1663,252; 4,51739
1052,05;  177,217;   94,675; 1664,052; 5,25957
1052,59;  160,917;   82,975; 1624,152; 5,05733
1053,14;  146,917;   84,475; 1582,652; 4,16790
1053,69;  154,417;   98,475; 1571,453; 3,79792
1054,23;  179,617;  104,575; 1569,052; 5,12418
1054,78;  172,717;  100,775; 1550,152; 4,96368
1055,32;  192,117;  123,075; 1550,453; 4,83702
1055,87;  150,217;   68,875; 1491,752; 5,71676
1056,41;  147,117;   78,775; 1469,552; 4,91398
1056,96;  157,318;   96,775; 1451,052; 4,47047
1057,50;  184,518;  113,375; 1470,853; 5,24079
1058,05;  149,717;   82,075; 1401,953; 5,12491
1058,59;  158,917;   95,875; 1396,552; 4,84690
1059,14;  175,917;  103,575; 1370,453; 5,71030
1059,68;  135,518;   75,975; 1329,353; 4,75056
1060,23;  191,417;  126,875; 1383,752; 5,13515
1060,77;  175,917;   97,375; 1317,052; 6,43961
1061,32;  167,518;  108,575; 1320,652; 4,86293
1061,86;  166,018;  111,175; 1289,752; 4,65328
1062,41;  163,417;   93,975; 1242,953; 6,04385
1062,95;  146,917;  109,575; 1230,853; 3,33035
1063,50;  168,617;  111,075; 1230,052; 5,14242
1064,04;  157,518;   90,475; 1197,453; 6,05636
1064,59;  166,217;  114,775; 1210,052; 4,69675
1065,13;  151,818;  103,475; 1170,552; 4,53037
1065,68;  157,717;  107,275; 1161,353; 4,78546
1066,22;  175,818;  115,875; 1166,453; 5,70567
1066,76;  178,117;  130,175; 1145,252; 4,72304
1067,31;  148,818;   99,875; 1110,552; 4,84254
1067,85;  148,717;  100,975; 1090,252; 4,82600
1068,40;  158,717;  110,275; 1095,353; 4,91763
1068,94;  150,318;   99,175; 1079,353; 5,21768
1069,49;  147,417;   98,175; 1041,652; 5,21925
1070,03;  144,518;  111,175; 1034,353; 3,61171
1070,57;  135,318;   88,775; 1012,852; 5,03665
1071,12;  129,717;   75,875;  987,153; 5,90846
1071,66;  184,717;  131,775; 1039,953; 5,82953
1072,21;  156,818;  112,475; 1011,352; 4,93310
1072,75;  145,518;  104,475;  978,552; 4,69552
1073,29;  128,117;   77,075;  942,453; 5,89829
1073,84;  139,117;   95,975;  941,153; 5,10455
1074,38;  146,217;   93,875;  928,253; 6,27324
1074,92;  145,117;  107,275;  940,153; 4,54358
1075,47;  160,117;  112,775;  938,852; 5,73100
1076,01;  156,417;  121,775;  926,253; 4,30621
1076,56;  140,018;   97,275;  891,953; 5,37860
1077,10;  124,317;   86,075;  865,253; 4,90806
1077,64;  135,717;   97,875;  884,453; 4,81103
1078,19;  163,518;  123,175;  887,753; 5,27644
1078,73;  141,617;   98,775;  853,852; 5,67392
1079,27;  166,818;  121,075;  875,552; 6,06281
1079,81;  159,617;  121,375;  860,953; 5,17086
1080,36;  153,318;  105,975;  836,052; 6,48459
1080,90;  138,617;   96,375;  819,753; 5,83962
1081,44;  126,618;   82,475;  789,552; 6,24295
1081,99;  115,317;   70,375;  771,753; 6,40775
1082,53;  154,518;  113,075;  798,653; 6,04490
1083,07;  142,818;  104,175;  791,453; 5,62255
1083,62;  140,117;  101,275;  772,552; 5,78635
1084,16;  142,417;   98,975;  782,453; 6,35610
1084,70;  152,717;  107,475;  767,153; 6,85828
1085,24;  144,717;  108,775;  750,653; 5,59959
1085,79;  139,818;  109,175;  747,552; 4,80006
1086,33;  127,418;   99,075;  711,453; 4,62827
1086,87;  137,318;  102,075;  714,852; 5,75127
1087,41;  128,318;   84,475;  686,852; 7,27824
1087,96;  148,518;  124,575;  732,552; 3,93806
1088,50;  123,817;  112,075;  696,953; 2,00769
1089,04;  155,117;  121,775;  715,153; 5,61910
1089,58;  117,217;   82,375;  655,953; 6,07459
1090,13;  139,217;  102,975;  653,153; 6,58742
1090,67;  143,417;  101,775;  678,753; 7,21735
1091,21;  114,418;   92,075;  651,852; 3,99132
1091,75;  121,618;  106,875;  647,153; 2,72869
1092,29;  143,417;  105,875;  642,552; 6,99536
1092,84;  132,117;  105,975;  628,352; 5,00452
1093,38;  167,117;  128,175;  662,753; 7,28472
1093,92;  144,518;  113,475;  640,052; 5,89514
1094,46;  154,818;  128,175;  638,852; 5,21709
1095,00;  129,117;   93,975;  602,052; 6,91676
1095,54;  119,717;   89,975;  591,352; 5,93216
1096,09;  141,818;  114,975;  597,352; 5,56463
1096,63;  145,818;  117,175;  598,453; 5,95135
1097,17;  125,317;  102,575;  573,052; 4,83392
1097,71;  159,518;  122,875;  582,453; 7,97308
1098,25;  120,618;  103,275;  553,653; 3,85066
1098,79;  143,318;  104,775;  568,753; 8,30698
1099,33;  138,217;  111,975;  572,052; 5,70393
1099,88;  141,617;  110,775;  562,253; 6,83146
1100,42;  107,018;   83,275;  521,253; 5,42094

