0016 elitro
Integration time [ms]:   8,000
Averaging Nr. [scans]: 10
Smoothing Nr. [pixels]: 0
Data measured with spectrometer [name]: 7314920SP
Wave   ;Sample   ;Dark     ;Reference;Reflectance
[nm]   ;[counts] ;[counts] ;[counts] ;[%]

 199,42;   94,735;   63,873;  150,055;35,81045
 200,02;  116,151;   92,669;  145,732;44,25261
 200,62;   77,778;   67,563;   88,793;48,11557
 201,22;  109,117;   86,969;  138,011;43,39182
 201,82;   96,834;   66,174;  141,790;40,54665
 202,42;  122,095;  101,668;  154,973;38,32102
 203,03;   72,318;   60,168;   91,775;38,44110
 203,63;   92,596;   69,967;  109,037;57,91929
 204,23;   94,148;   70,671;  129,903;39,63622
 204,83;   85,985;   74,567;  123,718;23,23126
 205,43;   77,735;   56,673;  123,555;31,49150
 206,03;   67,430;   50,167;   90,459;42,84524
 206,63;   68,943;   68,865;  100,007; 0,25185
 207,24;  102,477;   74,675;  162,566;31,63253
 207,84;   57,775;   39,967;   83,699;40,71993
 208,44;   69,817;   50,669;   95,011;43,18267
 209,04;   55,399;   47,365;   85,066;21,30875
 209,64;   92,703;   69,972;  127,998;39,17287
 210,24;   65,485;   45,367;   97,218;38,80033
 210,84;   70,672;   51,469;  101,970;38,02537
 211,44;   97,894;   86,470;  122,908;31,35253
 212,05;   75,299;   60,865;   99,266;37,58633
 212,65;   90,518;   66,368;  112,975;51,81629
 213,25;  114,795;   93,768;  142,073;43,52979
 213,85;   86,820;   84,465;  114,904; 7,73648
 214,45;   69,985;   53,367;  100,418;35,31991
 215,05;   51,272;   39,369;  100,070;19,60954
 215,65;   65,128;   55,169;  105,630;19,73525
 216,25;   51,385;   40,267;   82,518;26,31508
 216,85;   44,561;   34,069;   89,651;18,87759
 217,45;   59,218;   49,068;   97,375;21,01174
 218,05;   78,160;   58,270;  112,886;36,41804
 218,66;   40,306;   28,769;   75,692;24,58777
 219,26;   45,196;   26,567;   79,337;35,30236
 219,86;   54,337;   36,771;   81,584;39,19985
 220,46;   72,305;   54,270;  104,127;36,17328
 221,06;   74,348;   51,871;  115,903;35,10328
 221,66;   74,215;   43,471;  103,481;51,23011
 222,26;   55,203;   39,772;  102,398;24,63894
 222,86;   81,984;   67,268;  118,954;28,47243
 223,46;   68,185;   51,767;   88,918;44,19355
 224,06;   80,993;   64,971;  120,343;28,93492
 224,66;   78,171;   57,570;  105,805;42,70916
 225,26;   76,839;   48,169;  113,748;43,71682
 225,86;   69,869;   42,173;  112,376;39,45119
 226,46;   64,440;   49,968;  102,913;27,33300
 227,06;   52,971;   27,670;   87,705;42,14335
 227,66;   63,965;   37,665;   74,845;70,73665
 228,27;   54,905;   29,270;   96,227;38,28563
 228,87;   99,716;   89,170;  143,046;19,57381
 229,47;   58,158;   29,172;   92,357;45,87421
 230,07;   31,139;   11,169;   59,648;41,19114
 230,67;   60,961;   38,169;   84,651;49,03504
 231,27;   47,805;   27,670;   76,327;41,38132
 231,87;   56,061;   43,169;  100,751;22,38987
 232,47;   72,267;   43,775;  132,047;32,27690
 233,07;   66,188;   42,965;   75,547;71,27418
 233,67;   63,718;   53,768;   94,275;24,56397
 234,27;   23,830;    0,567;   53,259;44,14940
 234,87;   53,637;   34,771;  106,084;26,45613
 235,47;   35,439;   16,169;   74,148;33,23454
 236,07;   32,042;   30,266;   72,042; 4,25142
 236,67;   53,864;   49,966;   85,180;11,06746
 237,27;   54,946;   28,873;  109,074;32,50936
 237,87;   53,371;   25,370;   99,805;37,61775
 238,47;   19,551;   14,269;   68,032; 9,82450
 239,07;   40,347;   33,272;   95,738;11,32609
 239,67;   68,887;   43,477;  131,421;28,89385
 240,27;   67,869;   46,773;  119,176;29,13689
 240,87;   73,401;   50,773;  119,533;32,90869
 241,47;   46,100;   39,164;   76,131;18,76269
 242,07;   52,929;   39,968;   92,894;24,48851
 242,67;   30,491;  -11,027;   77,914;46,67963
 243,27;   17,485;    7,767;   46,418;25,14395
 243,87;   59,693;   48,671;  108,343;18,47082
 244,47;   53,648;   22,371;   99,703;40,44552
 245,07;   22,172;    2,669;   55,770;36,72848
 245,67;   51,718;   31,068;   85,575;37,88518
 246,27;   39,743;   34,965;   69,007;14,03678
 246,87;   29,484;   26,668;   63,154; 7,71846
 247,46;   14,478;   19,663;   23,793;-125,55080
 248,06;   35,860;   20,470;   69,786;31,20712
 248,66;   51,303;   31,072;  105,898;27,03659
 249,26;   33,642;   32,366;   70,742; 3,32518
 249,86;   56,869;   42,873;  102,176;23,60085
 250,46;   23,222;   16,775;   93,507; 8,40174
 251,06;   32,318;   22,168;   65,375;23,49187
 251,66;   22,982;   20,771;   64,724; 5,03125
 252,26;   42,253;   38,866;   70,261;10,78728
 252,86;   35,572;   35,969;   89,070;-0,74730
 253,46;    6,685;   -8,033;   22,118;48,81540
 254,06;   44,887;   31,766;   79,483;27,49709
 254,66;   46,135;   34,973;  100,155;17,12451
 255,26;   54,924;   39,073;  118,836;19,87320
 255,86;   42,100;   37,464;   55,631;25,51870
 256,46;   36,794;   19,870;   70,208;33,62118
 257,05;   37,727;   23,570;   59,565;39,32857
 257,65;   59,337;   38,071;   97,684;35,67450
 258,25;   69,158;   37,372;  101,457;49,59916
 258,85;   35,872;   15,669;   51,770;55,96300
 259,45;    9,561;    6,869;   42,951; 7,46236
 260,05;   42,585;   46,667;   85,818;-10,42510
 260,65;   51,853;   45,066;   83,561;17,62998
 261,25;   46,193;   29,371;   85,943;29,73528
 261,85;   17,159;   -0,129;   47,622;36,20453
 262,45;   57,372;   46,169;  109,270;17,75437
 263,04;   64,480;   53,073;  116,295;18,04229
 263,64;   52,552;   33,767;   77,097;43,35249
 264,24;   47,104;   37,671;   89,062;18,35448
 264,84;   92,823;   58,974;  138,671;42,47216
 265,44;   30,763;   26,368;   67,716;10,62911
 266,04;   53,976;   48,865;   71,464;22,61319
 266,64;   57,064;   39,866;   86,780;36,65715
 267,24;   36,864;   40,166;   68,980;-11,46230
 267,84;   31,995;   24,668;   76,573;14,11582
 268,43;   61,273;   48,368;   95,935;27,13139
 269,03;   54,906;   46,969;   87,892;19,39572
 269,63;   68,197;   58,566;   92,402;28,46512
 270,23;   12,165;   10,765;   39,045; 4,94920
 270,83;   63,853;   55,266;   83,161;30,78204
 271,43;   35,507;   23,967;   58,856;33,07558
 272,03;   65,463;   64,168;   99,116; 3,70530
 272,62;   34,228;   23,269;   68,730;24,10558
 273,22;   24,316;   11,970;   61,046;25,15606
 273,82;   15,969;   17,460;   26,403;-16,67303
 274,42;   15,955;   25,164;   46,890;-42,38402
 275,02;   28,832;   34,864;   60,388;-23,63377
 275,62;   64,058;   31,972;  100,457;46,85058
 276,21;   32,049;   22,770;   69,267;19,95722
 276,81;   51,375;   46,767;   71,099;18,93704
 277,41;   38,670;   22,971;   96,341;21,39652
 278,01;   21,932;   21,364;   42,788; 2,65054
 278,61;   59,017;   38,869;   83,811;44,83125
 279,20;   77,069;   65,473;  119,076;21,63318
 279,80;   -2,732;    6,762;   11,539;-198,73132
 280,40;   43,442;   36,866;   79,742;15,33732
 281,00;    7,317;   -4,331;   33,311;30,94417
 281,60;   31,568;   20,774;   74,812;19,97456
 282,20;   39,694;   36,670;   70,108; 9,04458
 282,79;   37,273;   29,568;   70,135;18,99467
 283,39;   18,497;   17,466;   44,702; 3,78687
 283,99;   24,488;   23,165;   34,347;11,83184
 284,59;   30,583;   16,869;   45,289;48,25449
 285,19;   35,330;   27,067;   57,759;26,92293
 285,78;   35,094;   23,270;   63,808;29,16830
 286,38;   49,443;   39,665;   59,207;50,03755
 286,98;   38,773;   35,168;   73,535; 9,39751
 287,58;   18,948;    4,771;   61,403;25,03413
 288,17;   42,824;    8,973;   80,336;47,43560
 288,77;   46,899;   19,976;   92,504;37,12109
 289,37;   24,972;   11,269;   57,670;29,53210
 289,97;   42,888;   48,965;   66,647;-34,36596
 290,57;   58,881;   46,672;   93,260;26,20645
 291,16;   67,663;   63,868;  102,616; 9,79386
 291,76;   27,916;    5,570;   47,346;53,48918
 292,36;   38,496;   34,367;   58,137;17,37084
 292,96;   27,113;   -3,127;   60,117;47,81599
 293,55;   30,675;   24,267;   65,399;15,57857
 294,15;   24,449;   26,870;   62,567;-6,78010
 294,75;   37,943;   42,065;   66,207;-17,07207
 295,35;   19,663;   21,068;   52,016;-4,54010
 295,94;   42,119;   42,967;   66,740;-3,56465
 296,54;   25,840;   30,768;   70,613;-12,36948
 297,14;   46,615;   29,971;   76,881;35,47898
 297,73;   24,409;   12,165;   40,085;43,85460
 298,33;   46,687;   28,066;   57,583;63,08489
 298,93;   52,484;   41,968;   82,554;25,91103
 299,53;   30,192;   24,872;   69,079;12,03362
 300,12;   14,715;  -12,229;   59,481;37,57243
 300,72;   58,552;   41,567;   91,197;34,22239
 301,32;   53,437;   25,771;   99,584;37,48206
 301,92;   11,411;    3,664;   33,050;26,36169
 302,51;   27,341;   11,567;   49,978;41,06612
 303,11;   19,130;   14,667;   48,759;13,09155
 303,71;   44,451;   21,369;   82,132;37,98659
 304,30;   13,431;    5,466;   38,423;24,16887
 304,90;   26,687;   19,666;   44,283;28,52006
 305,50;   36,465;   18,565;   64,345;39,09953
 306,09;   30,442;   15,466;   49,042;44,60303
 306,69;   45,004;   34,171;   90,262;19,31245
 307,29;   21,214;   18,760;   33,144;17,05912
 307,88;   49,583;   43,269;   72,489;21,60794
 308,48;   21,905;    0,070;   49,727;43,97146
 309,08;    0,967;   -4,437;   11,774;33,33682
 309,68;   28,309;   22,365;   39,585;34,51932
 310,27;   26,428;   20,169;   49,830;21,10050
 310,87;   38,940;   23,468;   54,813;49,35874
 311,47;   64,585;   54,967;   92,918;25,34423
 312,06;   49,454;   47,865;   68,426; 7,72834
 312,66;   68,663;   51,168;  100,016;35,81501
 313,26;   62,082;   48,571;   96,224;28,35326
 313,85;   48,630;   38,267;   65,959;37,42307
 314,45;   44,517;   42,969;   86,611; 3,54680
 315,04;   61,454;   52,165;   81,826;31,31739
 315,64;   35,552;   21,267;   47,897;53,64140
 316,24;   50,805;   40,770;   85,627;22,37093
 316,83;   37,942;   40,366;   76,742;-6,66342
 317,43;   39,807;   35,167;   68,156;14,06432
 318,03;   43,589;   39,063;   70,012;14,62254
 318,62;   69,157;   73,061;   94,820;-17,94240
 319,22;   33,795;    7,668;   66,973;44,05542
 319,82;   54,663;   40,768;   93,516;26,34208
 320,41;   65,551;   59,069;   98,732;16,34246
 321,01;   91,465;   80,465;  115,945;31,00264
 321,60;   77,955;   81,164;  102,790;-14,83646
 322,20;   78,935;   67,673;  132,855;17,27794
 322,80;   72,352;   54,567;   91,797;47,76972
 323,39;   70,177;   65,764;   94,828;15,18211
 323,99;   71,653;   61,766;  102,661;24,17571
 324,59;   69,089;   73,063;   97,512;-16,25665
 325,18;   68,541;   40,967;   92,178;53,84382
 325,78;   93,509;   76,365;  108,885;52,71889
 326,37;   82,418;   74,868;  108,075;22,73658
 326,97;   77,452;   63,267;  111,497;29,41020
 327,57;   51,978;   42,263;   76,493;28,38128
 328,16;   78,600;   60,864;   93,631;54,12728
 328,76;   68,219;   50,467;  110,140;29,74967
 329,35;   85,137;   56,871;  137,484;35,06461
 329,95;   53,894;   27,470;   91,308;41,39259
 330,54;   60,085;   52,167;   94,018;18,92046
 331,14;   46,075;   26,967;   82,599;34,34656
 331,74;   70,465;   54,165;   96,145;38,82746
 332,33;   55,305;   35,370;  108,127;27,39932
 332,93;   56,911;   43,764;   79,250;37,04742
 333,52;   67,897;   42,466;   93,102;50,22417
 334,12;   86,206;   72,069;  140,392;20,69188
 334,71;   51,942;   50,666;   87,942; 3,42332
 335,31;   85,530;   63,267;  119,859;39,33983
 335,90;   39,745;   32,362;   53,836;34,38203
 336,50;   40,343;   30,665;   77,207;20,79496
 337,10;   70,628;   38,769;  121,530;38,49486
 337,69;   66,743;   51,765;   93,707;35,71209
 338,29;   54,596;   30,467;  101,037;34,19166
 338,88;   45,684;   22,468;   99,854;30,00061
 339,48;   65,190;   57,862;  111,677;13,61684
 340,07;   71,408;   48,566;  107,321;38,87700
 340,67;   56,937;   31,171;  124,784;27,52466
 341,26;   68,742;   48,466;   98,942;40,16944
 341,86;   85,439;   61,469;  138,348;31,17764
 342,45;   77,883;   45,669;  142,689;33,20333
 343,05;   51,083;   27,269;  115,689;26,93266
 343,64;   70,764;   47,366;  122,480;31,14909
 344,24;   44,343;   28,765;   92,107;24,59409
 344,83;   76,488;   71,365;  121,747;10,16841
 345,43;   48,519;   29,667;  114,240;22,29142
 346,02;   58,461;   41,469;  124,351;20,50208
 346,62;   77,882;   40,971;  140,424;37,11411
 347,21;   59,909;   42,165;  131,985;19,75536
 347,81;   64,281;   26,172;  140,560;33,31561
 348,40;   47,000;   29,064;  100,731;25,02684
 349,00;   59,989;   49,163;  137,712;12,22546
 349,59;   97,316;   65,870;  177,846;28,08244
 350,19;   60,282;   32,571;  139,424;25,93394
 350,78;   58,830;   55,467;  140,759; 3,94311
 351,38;   41,661;   15,869;  140,951;20,62050
 351,97;   39,419;   26,767;  136,040;11,57884
 352,57;   67,605;   42,570;  155,827;22,10453
 353,16;   49,777;   30,564;  134,328;18,51560
 353,76;   68,816;   38,770;  169,846;22,92226
 354,35;   51,139;   27,669;  160,148;17,71530
 354,95;   74,149;   43,970;  182,067;21,85384
 355,54;   76,995;   38,368;  163,973;30,75272
 356,14;   57,039;   40,069;  164,749;13,61020
 356,73;   52,090;   29,162;  145,176;19,76291
 357,32;   45,951;   13,769;  164,432;21,36018
 357,92;   52,536;   17,772;  181,419;21,24346
 358,51;   73,092;   43,372;  214,179;17,39959
 359,11;   76,681;   36,772;  212,360;22,72881
 359,70;   55,627;   28,470;  189,965;16,81551
 360,30;   75,068;   54,562;  188,039;15,36343
 360,89;   45,584;   31,168;  188,054; 9,18894
 361,48;   85,849;   55,570;  216,467;18,81919
 362,08;   56,307;   19,867;  187,156;21,78249
 362,67;   59,378;   39,763;  192,693;12,82606
 363,27;   87,341;   60,767;  247,678;14,21736
 363,86;   74,565;   35,765;  215,745;21,55778
 364,46;   93,000;   44,664;  257,231;22,73918
 365,05;  107,504;   64,659;  254,989;22,51107
 365,64;  100,392;   50,960;  269,706;22,59813
 366,24;  105,772;   38,558;  309,432;24,81359
 366,83;  133,308;   43,255;  335,383;30,82639
 367,43;  124,984;   51,545;  352,843;24,37434
 368,02;  151,849;   34,646;  399,757;32,10070
 368,61;  186,145;   62,239;  475,425;29,98803
 369,21;  146,308;   32,419;  445,299;27,58397
 369,80;  180,042;   43,007;  526,947;28,31659
 370,39;  231,399;   62,006;  604,971;31,19776
 370,99;  213,359;   42,089;  615,416;29,87309
 371,58;  220,951;   22,974;  630,953;32,56320
 372,18;  258,236;   37,166;  701,603;33,27185
 372,77;  244,918;   42,449;  679,385;31,78798
 373,36;  265,554;   42,747;  690,836;34,37919
 373,96;  252,054;   35,135;  639,498;35,89208
 374,55;  239,701;   29,844;  621,406;35,47513
 375,14;  213,563;   42,849;  573,826;32,15091
 375,74;  227,478;   69,157;  543,276;33,39264
 376,33;  183,371;   45,964;  464,589;32,82342
 376,92;  147,769;   33,278;  447,997;27,60702
 377,52;  227,556;   86,103;  548,460;30,59394
 378,11;  168,824;   46,703;  457,203;29,74938
 378,71;  205,727;   73,011;  514,270;30,07658
 379,30;  210,310;   59,517;  553,928;30,49957
 379,89;  216,503;   59,813;  556,103;31,57222
 380,49;  204,543;   31,018;  568,185;32,30372
 381,08;  256,310;   70,306;  570,990;37,14989
 381,67;  243,641;   55,008;  555,483;37,69084
 382,26;  235,610;   41,706;  539,390;38,96118
 382,86;  220,046;   54,003;  516,041;35,93698
 383,45;  240,326;   50,412;  562,105;37,11468
 384,04;  248,815;   38,712;  553,886;40,78283
 384,64;  234,335;   49,014;  566,760;35,79390
 385,23;  243,820;   64,406;  560,509;36,16471
 385,82;  246,201;   59,615;  592,774;34,99618
 386,42;  313,693;   61,024;  659,022;42,25244
 387,01;  281,824;   55,414;  580,541;43,11544
 387,60;  306,774;   69,009;  590,140;45,62480
 388,20;  272,026;   37,712;  590,805;42,36417
 388,79;  335,409;   72,418;  665,563;44,33836
 389,38;  280,510;   32,106;  564,890;46,62368
 389,97;  323,090;   45,415;  640,955;46,62570
 390,57;  335,802;   71,114;  654,038;45,40684
 391,16;  335,902;   62,514;  655,838;46,07725
 391,75;  338,958;   52,713;  638,562;48,85985
 392,34;  364,062;   60,821;  696,694;47,68900
 392,94;  359,920;   44,718;  689,683;48,87117
 393,53;  376,522;   41,016;  666,612;53,62988
 394,12;  412,905;   53,023;  719,105;54,02960
 394,72;  411,614;   54,213;  706,122;54,82369
 395,31;  400,201;   42,115;  694,874;54,85722
 395,90;  440,448;   42,924;  732,881;57,61575
 396,49;  468,445;   58,028;  779,187;56,91068
 397,09;  470,866;   47,417;  749,188;60,34004
 397,68;  488,770;   44,025;  800,719;58,77472
 398,27;  511,646;   54,626;  809,652;60,53031
 398,86;  513,791;   43,125;  807,657;61,56267
 399,45;  529,409;   56,630;  844,037;60,04246
 400,05;  545,019;   23,820;  799,518;67,19097
 400,64;  560,131;   56,419;  831,001;65,03012
 401,23;  565,241;   53,920;  859,956;63,43644
 401,82;  603,841;   67,220;  868,256;66,99081
 402,42;  623,718;   62,921;  873,953;69,14604
 403,01;  654,270;   81,525;  912,919;68,88970
 403,60;  654,652;   68,532;  940,513;67,21711
 404,19;  675,159;   76,024;  931,900;70,00251
 404,78;  659,961;   57,522;  909,929;70,67504
 405,38;  700,929;   68,332;  984,210;69,07001
 405,97;  696,335;   63,226;  953,933;71,07936
 406,56;  760,611;   71,528; 1004,366;73,86952
 407,15;  744,554;   68,829;  989,442;73,39952
 407,74;  779,042;   80,730; 1026,758;73,81516
 408,34;  769,540;   50,933; 1018,629;74,25959
 408,93;  799,986;   59,531; 1016,234;77,39650
 409,52;  793,393;   51,435; 1041,359;74,95100
 410,11;  845,597;   84,931; 1090,453;75,64881
 410,70;  809,012;   54,727; 1027,230;77,56117
 411,29;  828,800;   58,628; 1030,847;79,21797
 411,89;  870,059;   60,535; 1093,938;78,33580
 412,48;  869,555;   48,228; 1051,606;81,85621
 413,07;  883,828;   65,033; 1101,446;79,00280
 413,66;  908,349;   78,135; 1102,119;81,07682
 414,25;  928,480;   63,337; 1142,311;80,18199
 414,84;  922,086;   69,431; 1102,434;82,54134
 415,44;  959,431;   91,530; 1155,939;81,53833
 416,03;  961,758;   76,637; 1161,173;81,61289
 416,62;  990,323;   76,138; 1168,687;83,67454
 417,21;  977,105;   75,334; 1158,843;83,22692
 417,80;  992,235;   65,037; 1162,871;84,45709
 418,39;  996,289;   78,440; 1179,201;83,38310
 418,98;  981,284;   55,634; 1143,405;85,09599
 419,58;  969,762;   64,033; 1142,067;84,01672
 420,17;  976,682;   52,735; 1164,540;83,10334
 420,76; 1019,058;   72,537; 1192,873;84,48548
 421,35; 1009,615;   60,236; 1155,197;86,70434
 421,94; 1034,089;   88,340; 1223,501;83,31405
 422,53; 1026,299;   61,540; 1195,320;85,09230
 423,12; 1027,290;   64,039; 1190,766;85,49109
 423,71; 1003,059;   60,835; 1162,138;85,55543
 424,30; 1055,392;   85,236; 1210,695;86,20094
 424,90;  993,857;   39,438; 1163,809;84,88475
 425,49; 1045,533;   70,140; 1216,242;85,10530
 426,08; 1062,133;   80,240; 1209,641;86,93925
 426,67; 1030,770;   57,436; 1168,257;87,62299
 427,26; 1066,297;   60,343; 1230,391;85,97548
 427,85; 1046,713;   63,238; 1209,968;85,76339
 428,44; 1067,820;   68,442; 1218,093;86,92879
 429,03; 1091,398;   85,341; 1233,155;87,64982
 429,62; 1075,943;   78,941; 1240,296;85,84816
 430,21; 1099,685;   81,443; 1277,807;85,11138
 430,80; 1094,906;   70,445; 1235,381;87,94141
 431,39; 1098,196;   53,344; 1246,926;87,53918
 431,99; 1096,459;   78,535; 1206,838;90,21731
 432,58; 1112,290;   82,639; 1251,166;88,11531
 433,17; 1089,849;   69,735; 1238,319;87,29486
 433,76; 1111,382;   71,347; 1288,314;85,46125
 434,35; 1129,995;   88,245; 1292,462;86,50852
 434,94; 1123,502;   70,849; 1318,887;84,34467
 435,53; 1125,364;   78,643; 1278,669;87,22480
 436,12; 1125,641;   70,044; 1294,267;86,22587
 436,71; 1127,710;   87,740; 1303,239;85,55912
 437,30; 1149,032;   76,941; 1299,177;87,71556
 437,89; 1149,839;   76,245; 1320,802;86,26318
 438,48; 1143,242;   65,942; 1305,731;86,89378
 439,07; 1143,179;   95,238; 1347,147;83,70746
 439,66; 1176,159;   83,648; 1375,711;84,55555
 440,25; 1154,241;   85,844; 1390,567;81,88688
 440,84; 1189,180;   79,850; 1387,984;84,80242
 441,43; 1206,630;   78,054; 1440,985;82,80507
 442,02; 1186,901;   79,650; 1411,022;83,16616
 442,61; 1201,396;   93,344; 1397,226;84,98099
 443,20; 1204,824;   94,249; 1446,625;82,12029
 443,79; 1179,249;   74,546; 1412,957;82,53844
 444,38; 1207,925;   84,248; 1461,789;81,57121
 444,97; 1234,572;   84,146; 1466,359;83,23074
 445,56; 1248,138;  101,846; 1477,038;83,35511
 446,15; 1256,489;   81,651; 1522,539;81,53572
 446,74; 1222,452;   58,644; 1462,286;82,91343
 447,33; 1269,849;   82,646; 1538,357;81,55489
 447,92; 1301,978;   78,151; 1570,720;81,99471
 448,51; 1323,628;   89,746; 1586,019;82,46369
 449,10; 1348,761;   92,045; 1608,840;82,85338
 449,69; 1352,912;   73,950; 1627,741;82,31234
 450,28; 1395,204;   66,948; 1608,251;86,17743
 450,87; 1424,293;   78,647; 1656,333;85,29239
 451,46; 1450,536;   96,048; 1702,208;84,33080
 452,05; 1484,680;   70,950; 1715,384;85,97057
 452,64; 1504,457;   70,850; 1725,182;86,65774
 453,23; 1577,066;  113,752; 1794,936;87,04070
 453,82; 1586,323;   83,451; 1800,660;87,51828
 454,40; 1587,257;   65,450; 1786,682;88,41381
 454,99; 1679,776;  101,253; 1871,891;89,14998
 455,58; 1685,371;   69,747; 1832,095;91,67454
 456,17; 1736,744;   63,852; 1873,634;92,43610
 456,76; 1776,478;   67,751; 1918,820;92,31031
 457,35; 1785,825;   78,348; 1930,490;92,18935
 457,94; 1829,098;   66,954; 1978,929;92,16356
 458,53; 1884,068;   67,350; 2010,101;93,51264
 459,12; 1958,584;   82,657; 2111,116;92,48038
 459,71; 1956,814;   58,148; 2060,071;94,84215
 460,30; 2010,959;   84,448; 2087,511;96,17825
 460,89; 2023,578;   57,551; 2129,920;94,86861
 461,48; 2073,398;   75,954; 2173,829;95,21274
 462,06; 2106,690;   68,050; 2187,303;96,19616
 462,65; 2099,447;   48,249; 2176,527;96,37828
 463,24; 2199,885;   87,456; 2288,680;95,96608
 463,83; 2188,291;   54,450; 2229,803;98,09167
 464,42; 2251,002;   88,349; 2333,687;96,31750
 465,01; 2262,657;   73,050; 2336,482;96,73835
 465,60; 2287,501;   64,050; 2384,322;95,82717
 466,19; 2339,398;   73,354; 2462,829;94,83440
 466,77; 2377,689;   81,551; 2462,939;96,42018
 467,36; 2404,728;   69,457; 2459,256;97,71830
 467,95; 2423,445;   79,551; 2466,098;98,21275
 468,54; 2462,620;   71,954; 2513,866;97,90136
 469,13; 2457,311;   69,452; 2535,977;96,81066
 469,72; 2477,252;   67,555; 2582,723;95,80660
 470,31; 2499,163;   87,855; 2629,242;94,88156
 470,90; 2529,935;   76,750; 2652,044;95,25845
 471,48; 2515,139;   32,057; 2671,875;94,06262
 472,07; 2598,126;  125,747; 2686,454;96,55065
 472,66; 2576,910;   67,853; 2748,412;93,60200
 473,25; 2570,689;   68,351; 2723,339;94,25046
 473,84; 2576,386;   55,955; 2766,545;92,98459
 474,43; 2600,560;   55,459; 2843,049;91,30111
 475,01; 2643,175;   69,254; 2885,926;91,38164
 475,60; 2615,397;   49,755; 2882,364;90,57522
 476,19; 2658,772;   74,158; 2956,932;89,65716
 476,78; 2633,128;   71,057; 2964,456;88,54883
 477,37; 2609,197;   59,355; 2945,364;88,35183
 477,95; 2692,274;   75,656; 3018,661;88,90972
 478,54; 2657,876;   63,253; 3023,691;87,64323
 479,13; 2659,176;   56,253; 3070,291;86,36001
 479,72; 2677,609;   81,154; 3090,147;86,28981
 480,31; 2678,670;   63,459; 3167,468;84,25271
 480,89; 2665,375;   60,254; 3171,026;83,74516
 481,48; 2660,059;   46,260; 3214,084;82,51085
 482,07; 2695,420;   61,654; 3233,866;83,02614
 482,66; 2652,432;   52,853; 3253,650;81,21660
 483,25; 2677,559;   78,960; 3319,884;80,18079
 483,83; 2683,730;   59,954; 3325,385;80,35007
 484,42; 2720,998;   54,354; 3355,129;80,78843
 485,01; 2715,261;   65,958; 3400,413;79,45234
 485,60; 2759,655;   73,764; 3490,590;78,60777
 486,18; 2749,474;   66,956; 3490,761;78,34902
 486,77; 2778,467;   67,252; 3519,736;78,52938
 487,36; 2803,111;   58,464; 3561,750;78,34492
 487,95; 2856,236;   59,161; 3640,781;78,09523
 488,53; 2870,780;   54,461; 3642,522;78,49140
 489,12; 2894,933;   50,563; 3722,252;77,46762
 489,71; 2866,479;   38,062; 3680,357;77,65479
 490,30; 2949,969;   61,460; 3742,503;78,46985
 490,88; 3000,491;   87,561; 3859,141;77,23368
 491,47; 3015,689;   60,663; 3867,512;77,62393
 492,06; 3035,412;   62,563; 3920,615;77,05570
 492,65; 3044,502;   59,161; 3947,060;76,78545
 493,23; 3076,503;   54,860; 3982,825;76,92643
 493,82; 3082,621;   65,853; 4018,031;76,33177
 494,41; 3110,113;   51,361; 4066,179;76,18656
 494,99; 3080,586;   73,655; 4126,945;74,18495
 495,58; 3157,269;   86,060; 4224,403;74,21349
 496,17; 3150,785;   56,356; 4198,681;74,70271
 496,76; 3148,174;   65,356; 4276,761;73,20165
 497,34; 3144,695;   54,557; 4305,235;72,69752
 497,93; 3144,339;   66,057; 4350,675;71,84495
 498,52; 3175,281;   60,059; 4454,387;70,89189
 499,10; 3170,135;   75,862; 4533,217;69,41948
 499,69; 3139,392;   55,360; 4537,006;68,81472
 500,28; 3107,870;   37,959; 4592,068;67,40970
 500,86; 3142,068;   62,862; 4698,539;66,42410
 501,45; 3099,668;   53,462; 4730,438;65,13196
 502,04; 3133,679;   53,362; 4813,958;64,70445
 502,62; 3115,685;   70,956; 4856,181;63,62771
 503,21; 3060,096;   57,856; 4939,699;61,49808
 503,80; 3079,590;   69,662; 5015,577;60,85685
 504,38; 3031,603;   58,460; 5081,425;59,19100
 504,97; 3032,790;   49,962; 5122,776;58,80026
 505,56; 3027,604;   70,859; 5194,989;57,70238
 506,14; 3039,866;   64,064; 5263,709;57,23086
 506,73; 2913,343;   23,565; 5292,507;54,84551
 507,32; 2915,065;   62,865; 5376,045;53,68159
 507,90; 2928,158;   70,860; 5443,284;53,18453
 508,49; 2927,398;   58,865; 5500,366;52,71585
 509,08; 2923,700;   67,264; 5571,931;51,89116
 509,66; 2886,114;   69,960; 5677,644;50,21956
 510,25; 2861,747;   63,561; 5737,400;49,31732
 510,83; 2814,943;   45,165; 5855,607;47,66898
 511,42; 2856,540;   61,968; 5895,913;47,90191
 512,01; 2832,477;   59,164; 5980,328;46,83729
 512,59; 2849,890;   46,562; 6041,676;46,76021
 513,18; 2841,713;   59,961; 6114,379;45,94582
 513,77; 2831,573;   42,257; 6171,797;45,50612
 514,35; 2851,156;   37,763; 6190,255;45,72771
 514,94; 2876,334;   58,662; 6323,517;44,97586
 515,52; 2900,842;   48,166; 6358,342;45,20755
 516,11; 2955,588;   80,665; 6474,047;44,96717
 516,69; 2921,726;   41,959; 6446,727;44,96286
 517,28; 2987,716;   83,358; 6541,973;44,96875
 517,87; 2988,005;   45,558; 6604,054;44,86467
 518,45; 3024,027;   74,858; 6626,192;45,01631
 519,04; 3060,193;   54,258; 6707,970;45,17681
 519,62; 3085,012;   55,863; 6774,114;45,08835
 520,21; 3081,897;   24,466; 6828,002;44,93886
 520,79; 3161,118;   52,068; 7000,875;44,74221
 521,38; 3176,625;   52,960; 6995,363;44,99400
 521,97; 3217,484;   43,068; 7141,554;44,71962
 522,55; 3246,349;   67,759; 7195,230;44,59632
 523,14; 3264,004;   26,759; 7180,289;45,25382
 523,72; 3328,280;   77,561; 7383,422;44,49468
 524,31; 3355,443;   71,665; 7406,107;44,77203
 524,89; 3382,563;   48,468; 7526,815;44,58331
 525,48; 3383,464;   21,666; 7603,580;44,33969
 526,06; 3438,577;   56,264; 7633,128;44,64001
 526,65; 3451,471;   72,370; 7803,105;43,70996
 527,23; 3426,901;   46,262; 7840,596;43,37303
 527,82; 3493,741;   37,967; 7905,978;43,92182
 528,41; 3507,508;   67,366; 8041,021;43,14386
 528,99; 3518,599;   66,365; 8108,167;42,92861
 529,58; 3499,845;   42,562; 8168,736;42,54503
 530,16; 3524,813;   49,461; 8315,379;42,04435
 530,75; 3599,621;   73,964; 8417,069;42,25833
 531,33; 3556,064;   45,566; 8440,980;41,81446
 531,92; 3540,514;   48,560; 8567,344;40,99122
 532,50; 3656,750;   87,770; 8706,468;41,40973
 533,09; 3625,820;   65,665; 8807,204;40,72687
 533,67; 3659,438;   63,458; 8952,011;40,45630
 534,26; 3629,848;   65,760; 9007,665;39,85826
 534,84; 3683,002;   68,461; 9127,061;39,90176
 535,42; 3719,921;   61,564; 9205,969;40,00651
 536,01; 3779,012;   79,263; 9330,215;39,99317
 536,59; 3842,597;   43,366; 9482,202;40,25106
 537,18; 3867,492;   77,360; 9568,605;39,93293
 537,76; 3948,325;   56,972; 9764,700;40,08511
 538,35; 4015,329;   59,368; 9892,694;40,23014
 538,93; 4092,277;   72,664; 9941,828;40,72901
 539,52; 4166,271;   57,370;10111,405;40,86818
 540,10; 4292,928;   63,269;10309,029;41,28204
 540,69; 4341,644;   68,763;10444,071;41,18317
 541,27; 4471,935;   58,262;10514,917;42,20922
 541,85; 4659,687;   47,366;10658,783;43,46564
 542,44; 4736,758;   56,460;10765,484;43,70424
 543,02; 4888,528;   80,369;10952,729;44,22369
 543,61; 5000,785;   77,067;11102,218;44,65896
 544,19; 5097,231;   55,066;11264,023;44,98336
 544,78; 5236,553;   62,766;11296,562;46,05555
 545,36; 5454,917;   77,469;11521,011;46,99112
 545,94; 5495,521;   54,564;11563,069;47,27771
 546,53; 5627,615;   52,771;11724,882;47,76209
 547,11; 5818,295;   90,668;11879,873;48,58366
 547,70; 5857,392;   75,860;11954,706;48,67082
 548,28; 5957,699;   47,965;12093,066;49,06338
 548,86; 6088,599;   81,365;12327,767;49,05305
 549,45; 6146,384;   33,768;12364,953;49,57039
 550,03; 6253,596;   76,467;12507,537;49,69105
 550,62; 6359,842;   63,566;12662,842;49,97332
 551,20; 6482,186;   61,467;12808,418;50,37062
 551,78; 6485,710;   61,164;12952,850;49,83481
 552,37; 6588,221;   55,864;13112,469;50,03106
 552,95; 6641,788;   56,765;13214,547;50,04660
 553,54; 6723,643;   49,965;13393,207;50,01542
 554,12; 6819,952;   67,167;13498,797;50,27524
 554,70; 6916,295;   67,568;13736,973;50,10260
 555,29; 6916,209;   61,965;13856,285;49,68889
 555,87; 7035,960;   60,170;13987,786;50,08603
 556,45; 7086,179;   57,162;14154,058;49,86216
 557,04; 7132,375;   43,667;14376,600;49,45748
 557,62; 7273,674;   68,867;14525,499;49,83739
 558,20; 7312,670;   42,671;14799,940;49,26385
 558,79; 7400,118;  100,368;14905,875;49,30429
 559,37; 7456,585;   49,867;15000,418;49,54144
 559,95; 7517,006;   46,669;15169,691;49,39712
 560,54; 7604,340;   71,768;15324,613;49,38470
 561,12; 7616,553;   50,866;15485,562;49,01740
 561,70; 7700,261;   50,369;15679,551;48,94621
 562,29; 7793,829;   61,768;15810,994;49,09486
 562,87; 7835,284;   73,168;16023,953;48,66291
 563,45; 7875,984;   71,068;16194,754;48,40653
 564,04; 7985,101;   54,362;16227,195;49,03741
 564,62; 8065,451;   37,769;16438,332;48,94760
 565,20; 8133,768;   59,962;16715,838;48,47422
 565,78; 8224,854;   70,765;16797,326;48,74934
 566,37; 8290,187;   71,066;17011,283;48,51839
 566,95; 8390,428;   52,969;17124,330;48,83886
 567,53; 8434,879;   67,262;17308,857;48,53157
 568,12; 8485,998;   62,265;17367,766;48,67662
 568,70; 8596,933;   85,264;17565,889;48,69202
 569,28; 8652,262;   61,069;17745,252;48,58123
 569,86; 8727,930;   67,767;17910,758;48,53538
 570,45; 8824,383;   78,569;18124,689;48,46368
 571,03; 8836,023;   53,962;18259,898;48,23735
 571,61; 8969,882;   46,571;18424,824;48,55364
 572,19; 8892,167;   54,263;18395,773;48,18526
 572,78; 9026,718;   70,668;18668,975;48,15519
 573,36; 9131,321;   84,264;18797,668;48,34533
 573,94; 9139,311;   44,064;18892,750;48,25401
 574,52; 9177,870;   54,559;19030,768;48,07763
 575,11; 9269,500;   37,264;19159,830;48,27927
 575,69; 9325,363;   53,566;19268,680;48,25263
 576,27; 9274,336;   47,161;19391,381;47,69991
 576,85; 9402,521;   43,264;19549,668;47,98043
 577,44; 9467,779;   30,262;19814,158;47,70303
 578,02; 9460,281;   32,159;19753,887;47,80576
 578,60; 9596,855;   50,464;20073,791;47,67635
 579,18; 9651,634;   51,963;20160,752;47,73868
 579,76; 9706,877;   40,264;20300,129;47,71312
 580,35; 9692,494;   60,170;20436,707;47,27165
 580,93; 9834,707;   59,667;20641,557;47,49340
 581,51; 9801,550;   24,770;20697,168;47,29388
 582,09; 9901,156;   58,663;20755,756;47,55496
 582,67; 9966,785;   49,567;20971,318;47,40147
 583,26;10097,239;   28,568;21227,014;47,49721
 583,84;10123,366;   14,164;21413,709;47,24027
 584,42;10213,433;   48,064;21513,287;47,35739
 585,00;10313,164;   81,366;21772,180;47,17111
 585,58;10303,574;   25,167;21912,299;46,96096
 586,17;10375,980;   46,761;21948,521;47,16160
 586,75;10335,798;    6,666;22026,902;46,90745
 587,33;10448,440;   47,767;22191,678;46,96855
 587,91;10568,697;   74,866;22390,201;47,02520
 588,49;10531,379;   63,962;22349,758;46,96901
 589,07;10509,563;   45,468;22403,215;46,80299
 589,65;10531,319;   28,267;22444,439;46,85480
 590,24;10565,023;   42,562;22447,799;46,96430
 590,82;10549,002;   28,261;22484,160;46,85068
 591,40;10582,966;   41,464;22520,209;46,89542
 591,98;10574,226;   45,759;22558,227;46,76727
 592,56;10647,702;   61,161;22699,961;46,76282
 593,14;10601,526;   43,359;22728,928;46,54134
 593,72;10594,843;   29,765;22889,107;46,21777
 594,30;10597,781;   36,759;22797,486;46,40020
 594,89;10674,776;   41,364;22862,428;46,59473
 595,47;10675,780;   38,961;22922,623;46,48216
 596,05;10689,475;   30,267;23003,799;46,39778
 596,63;10723,175;   31,167;23056,199;46,43645
 597,21;10729,742;   36,766;23145,441;46,27256
 597,79;10753,219;   35,467;23166,039;46,33587
 598,37;10721,038;   36,669;23222,748;46,08096
 598,95;10760,397;   50,766;23305,301;46,05395
 599,53;10718,272;   46,757;23207,996;46,07489
 600,11;10818,588;   48,665;23341,947;46,23618
 600,70;10657,489;   57,363;23315,111;45,57675
 601,28;10668,566;   38,564;23424,809;45,45408
 601,86;10691,798;   61,766;23355,102;45,63551
 602,44;10733,102;   23,661;23449,660;45,71605
 603,02;10700,529;   38,656;23576,521;45,29669
 603,60;10790,872;   54,858;23663,232;45,47545
 604,18;10781,122;   69,263;23594,734;45,53303
 604,76;10791,856;   59,263;23642,154;45,51008
 605,34;10698,575;   27,565;23530,764;45,40237
 605,92;10711,457;   59,561;23453,719;45,53229
 606,50;10687,523;   17,662;23498,998;45,43976
 607,08;10640,264;   31,666;23394,881;45,40727
 607,66;10708,842;   39,266;23561,643;45,35926
 608,24;10665,430;   46,067;23522,059;45,23499
 608,82;10685,399;   26,164;23532,031;45,34713
 609,40;10615,008;   46,466;23471,021;45,11736
 609,98;10616,776;   18,864;23505,928;45,12234
 610,56;10583,225;   43,861;23497,662;44,93670
 611,14;10564,010;   30,765;23481,086;44,91727
 611,72;10529,599;   42,665;23572,467;44,56873
 612,30;10511,701;   24,962;23468,496;44,73190
 612,88;10521,648;   60,659;23517,730;44,59632
 613,46;10394,924;   21,862;23505,697;44,17107
 614,04;10258,195;   30,068;23461,873;43,65062
 614,62;10205,535;   41,561;23489,982;43,34609
 615,20;10122,063;   52,768;23402,416;43,12397
 615,78; 9968,628;   25,569;23463,430;42,42306
 616,36; 9932,410;   41,364;23400,150;42,34401
 616,94; 9736,942;    7,666;23272,242;41,82013
 617,52; 9541,007;   24,067;23373,656;40,75849
 618,10; 9533,015;   63,559;23336,107;40,68938
 618,68; 9314,986;   17,966;23253,184;40,01263
 619,26; 9183,273;   39,268;23398,834;39,14459
 619,84; 8986,522;   18,963;23277,133;38,55660
 620,42; 8826,243;   31,165;23313,506;37,77575
 621,00; 8701,743;   28,865;23209,607;37,41415
 621,58; 8613,192;   38,760;23216,406;36,99441
 622,16; 8588,526;   49,270;23335,164;36,67137
 622,74; 8556,442;   47,066;23327,742;36,55124
 623,32; 8454,231;   42,166;23291,223;36,18240
 623,90; 8423,138;   66,971;23311,484;35,94899
 624,48; 8352,523;   32,662;23196,598;35,91731
 625,05; 8372,023;   34,562;23105,098;36,13900
 625,63; 8328,023;   52,962;23188,799;35,76729
 626,21; 8302,400;   38,262;23117,596;35,80752
 626,79; 8398,686;   53,967;23219,719;36,02179
 627,37; 8334,635;   28,162;23090,717;36,01714
 627,95; 8348,862;   72,768;23200,215;35,78473
 628,53; 8308,843;   49,365;23176,607;35,71320
 629,11; 8315,359;   48,259;23043,449;35,95143
 629,69; 8293,551;   53,369;23256,932;35,51257
 630,27; 8282,522;   80,763;23105,434;35,62162
 630,84; 8203,724;   43,862;23021,197;35,51266
 631,42; 8254,007;   54,367;23319,656;35,24409
 632,00; 8237,570;   45,459;23125,768;35,49394
 632,58; 8289,344;   50,263;23105,172;35,73677
 633,16; 8304,971;   49,870;23096,906;35,81849
 633,74; 8274,632;   56,264;23018,488;35,79082
 634,32; 8299,591;   45,661;23007,842;35,94576
 634,90; 8375,516;   51,970;23195,746;35,96451
 635,47; 8373,914;   38,860;23035,645;36,24443
 636,05; 8413,191;   37,461;22989,342;36,49257
 636,63; 8433,243;   45,965;23104,807;36,37337
 637,21; 8534,377;   67,464;23150,529;36,68019
 637,79; 8554,420;   71,465;23192,904;36,68870
 638,37; 8494,808;   54,055;23070,883;36,67209
 638,94; 8539,310;   33,265;23100,686;36,87471
 639,52; 8539,810;   41,665;23195,285;36,70331
 640,10; 8615,931;   64,264;23215,900;36,93763
 640,68; 8573,782;   54,164;23175,334;36,84770
 641,26; 8523,834;   35,864;23250,268;36,56338
 641,84; 8457,386;   39,164;23235,002;36,29195
 642,41; 8364,537;   28,264;23192,936;35,98701
 642,99; 8307,688;   48,464;23145,568;35,75870
 643,57; 8217,940;   22,064;23158,402;35,42426
 644,15; 8116,692;   27,064;23178,035;34,94293
 644,73; 8021,644;   37,564;23277,568;34,35490
 645,30; 7954,596;   55,264;23230,303;34,08552
 645,88; 7876,747;   44,964;23362,635;33,58733
 646,46; 7777,499;   59,264;23447,568;33,00040
 647,04; 7667,551;   51,864;23367,902;32,66287
 647,61; 7557,702;   46,564;23396,336;32,16793
 648,19; 7504,154;   61,664;23433,369;31,84402
 648,77; 7475,605;   26,264;23442,002;31,81340
 649,35; 7383,257;   51,064;23590,137;31,14903
 649,92; 7415,909;   42,464;23596,070;31,30495
 650,50; 7367,561;   30,064;23551,104;31,19546
 651,08; 7363,913;   39,964;23450,537;31,28479
 651,66; 7438,864;   21,864;23534,770;31,54438
 652,23; 7507,416;   39,064;23561,004;31,75058
 652,81; 7541,467;   36,464;23644,137;31,79052
 653,39; 7631,319;   56,164;23647,170;32,11035
 653,97; 7736,871;   37,065;23882,504;32,29048
 654,54; 7800,223;   23,565;23823,137;32,67562
 655,12; 7858,574;   30,965;23831,971;32,88773
 655,70; 7919,926;   42,065;23962,805;32,93318
 656,28; 7972,478;   32,765;23947,037;33,20073
 656,85; 7971,329;   44,065;24051,070;33,02063
 657,43; 7962,381;   -1,035;23831,305;33,41433
 658,01; 7974,333;   21,465;24078,539;33,05833
 658,58; 8040,384;   55,165;24234,371;33,02515
 659,16; 7992,236;   51,965;24154,105;32,94426
 659,74; 7936,988;   59,465;24338,039;32,44640
 660,32; 7940,439;   71,665;24327,672;32,44052
 660,89; 7858,391;   34,265;24347,305;32,18078
 661,47; 7873,243;   51,665;24464,939;32,03822
 662,05; 7769,995;   25,365;24587,373;31,53093
 662,62; 7782,246;   59,665;24584,006;31,48945
 663,20; 7841,898;   80,665;24740,139;31,47364
 663,78; 7808,250;   47,965;24902,773;31,22247
 664,35; 7758,201;   52,465;24921,006;30,98588
 664,93; 7841,353;   64,465;25123,539;31,03422
 665,51; 7795,305;   49,565;25170,973;30,83322
 666,08; 7875,656;   30,165;25185,707;31,18792
 666,66; 7997,108;   47,465;25667,539;31,02896
 667,23; 8054,660;   51,765;25732,773;31,16270
 667,81; 8226,211;   65,865;25889,307;31,60054
 668,39; 8257,063;   43,265;26047,141;31,58682
 668,96; 8441,314;   54,665;26309,074;31,94377
 669,54; 8511,267;   38,765;26408,408;32,12975
 670,12; 8788,218;   51,165;26808,740;32,65263
 670,69; 8937,670;   64,165;26950,674;33,00356
 671,27; 9001,722;   25,565;27096,008;33,15851
 671,84; 9005,573;   40,665;27105,240;33,12414
 672,42; 9146,225;   66,265;27253,875;33,39742
 673,00; 9246,276;   57,165;27531,408;33,44628
 673,57; 9193,028;   59,965;27276,441;33,55711
 674,15; 9310,380;   64,065;27613,475;33,56266
 674,72; 9196,932;   58,565;27536,209;33,25746
 675,30; 9239,684;   69,466;27513,541;33,41420
 675,88; 9212,735;   36,266;27573,176;33,32425
 676,45; 9117,787;   59,466;27677,309;32,79880
 677,03; 9080,738;   67,866;27525,043;32,82520
 677,60; 9000,090;   41,466;27770,576;32,30765
 678,18; 8981,941;   59,466;27877,510;32,07442
 678,76; 8844,193;   40,766;27809,143;31,70307
 679,33; 8850,545;   57,666;27813,176;31,67976
 679,91; 8764,997;   44,266;27813,311;31,40451
 680,48; 8652,448;   28,766;27740,242;31,11953
 681,06; 8627,700;   50,866;27735,176;30,98085
 681,63; 8577,252;   37,566;27736,209;30,83070
 682,21; 8571,903;   67,966;27797,543;30,66739
 682,78; 8475,855;   20,566;27459,576;30,81485
 683,36; 8576,507;   46,966;27565,510;30,99561
 683,93; 8593,259;   30,466;27450,645;31,22807
 684,51; 8622,410;   26,166;27477,277;31,31474
 685,08; 8772,063;   38,966;27733,711;31,53341
 685,66; 8881,514;   53,066;27694,045;31,93971
 686,24; 8973,865;   33,766;27796,578;32,20171
 686,81; 9122,617;   57,666;27899,910;32,55826
 687,39; 9169,169;   38,866;27807,844;32,87951
 687,96; 9331,421;   54,166;27850,479;33,37585
 688,54; 9489,973;   30,866;27984,811;33,83818
 689,11; 9538,724;   26,966;28043,545;33,95046
 689,69; 9594,176;   29,666;28019,279;34,17164
 690,26; 9746,728;   59,466;28289,313;34,31567
 690,84; 9811,979;   50,066;28239,846;34,62926
 691,41; 9803,331;   35,966;28403,879;34,43103
 691,98; 9881,782;   31,466;28427,912;34,68855
 692,56; 9866,435;   32,866;28437,445;34,61966
 693,13; 9966,485;   64,866;28655,080;34,63290
 693,71; 9995,037;   24,466;28657,912;34,82141
 694,28;10013,989;   41,966;28715,945;34,77726
 694,86; 9996,440;   47,266;28928,879;34,44813
 695,43; 9941,793;   61,366;29100,912;34,02404
 696,01; 9920,744;   36,266;29145,547;33,95645
 696,58; 9907,496;   42,167;29083,879;33,96952
 697,16; 9882,548;   38,067;29126,414;33,84338
 697,73; 9966,199;   63,467;29338,246;33,82684
 698,30; 9937,751;   51,867;29223,980;33,88813
 698,88; 9956,603;   40,467;29558,613;33,59336
 699,45; 9973,754;   35,367;29765,848;33,42828
 700,03;10014,906;   56,067;29750,980;33,53719
 700,60;10063,058;   56,267;29850,613;33,58621
 701,18;10176,109;   61,867;29963,947;33,82454
 701,75;10294,761;   74,367;30094,682;34,04493
 702,32;10333,813;   50,367;29901,914;34,44862
 702,90;10462,465;   52,467;30254,148;34,46827
 703,47;10608,616;   51,367;30428,881;34,75350
 704,05;10719,368;   67,767;30546,715;34,94740
 704,62;10845,119;   39,867;30587,848;35,37141
 705,19;10879,171;   43,667;30586,982;35,47586
 705,77;11032,923;   29,967;30618,314;35,97107
 706,34;11168,274;   61,667;30627,049;36,33721
 706,91;11268,826;   46,367;30673,883;36,64175
 707,49;11407,878;   57,267;30976,316;36,71074
 708,06;11524,930;   66,367;31089,049;36,93608
 708,64;11618,382;   25,767;31093,582;37,31390
 709,21;11639,133;   58,167;31179,316;37,21253
 709,78;11656,484;   41,367;31281,150;37,18053
 710,36;11741,837;   61,667;31419,684;37,24780
 710,93;11774,688;   50,567;31562,416;37,20544
 711,50;11858,140;   44,467;31506,049;37,54952
 712,08;11947,892;   76,567;31925,383;37,27399
 712,65;11925,343;   73,667;31775,916;37,38434
 713,22;11932,695;   69,067;31900,250;37,27046
 713,80;11911,847;   84,167;31966,883;37,09747
 714,37;11785,798;   55,767;31827,018;36,92027
 714,94;11797,150;   53,967;31727,551;37,07564
 715,52;11837,202;   47,867;31732,984;37,20780
 716,09;11851,554;   65,467;31891,918;37,03236
 716,66;11856,505;   73,467;31935,051;36,98196
 717,23;11851,057;   66,867;31908,484;37,00876
 717,81;11848,608;   50,168;31812,018;37,14658
 718,38;11894,660;   47,468;31671,252;37,46292
 718,95;11892,712;   59,068;31618,984;37,49580
 719,53;11957,663;   56,568;31661,418;37,65591
 720,10;11979,615;   59,968;31481,252;37,93495
 720,67;11945,567;   35,768;31355,984;38,02592
 721,24;12016,318;   59,468;31256,020;38,32748
 721,82;12071,070;   49,968;31236,053;38,54637
 722,39;12230,822;   64,068;31235,885;39,03127
 722,96;12305,573;   64,968;31261,420;39,23717
 723,53;12362,926;   88,268;31151,953;39,51449
 724,11;12538,277;   61,568;31207,486;40,05889
 724,68;12551,729;   71,568;31242,020;40,03843
 725,25;12597,580;   72,768;31399,953;39,98065
 725,82;12751,132;   96,068;31564,387;40,21525
 726,40;12847,184;   62,668;31714,820;40,39067
 726,97;12833,735;   62,168;31875,354;40,14552
 727,54;12947,188;   46,968;31801,486;40,62483
 728,11;13009,339;   49,568;32045,820;40,50403
 728,69;12931,591;   39,568;31938,953;40,41464
 729,26;13009,842;   53,568;32105,088;40,42327
 729,83;13026,994;   53,268;32264,621;40,27687
 730,40;13087,046;   66,768;32291,754;40,40429
 730,97;13203,197;   44,268;32590,588;40,43139
 731,55;13216,949;   41,468;32755,820;40,27431
 732,12;13275,201;   86,268;32841,656;40,26493
 732,69;13205,952;   66,968;32889,988;40,02978
 733,26;13176,104;   55,168;32930,520;39,91117
 733,83;13226,355;   41,168;32979,055;40,03046
 734,41;13337,008;   65,468;32991,590;40,30702
 734,98;13419,859;   51,368;33155,621;40,38300
 735,55;13394,911;   43,168;33183,656;40,28831
 736,12;13538,563;   65,968;33377,289;40,44449
 736,69;13562,015;   76,968;33377,922;40,49447
 737,26;13656,566;   57,468;33552,254;40,60064
 737,84;13698,918;   70,768;33487,188;40,78279
 738,41;13814,169;   63,168;33492,422;41,13463
 738,98;13870,821;   63,569;33375,055;41,44892
 739,55;13995,173;   49,669;33377,789;41,84306
 740,12;14155,324;   62,969;33678,023;41,92275
 740,69;14208,276;   70,569;33575,656;42,19570
 741,26;14285,027;   56,269;33557,391;42,47248
 741,83;14330,880;   53,869;33719,523;42,40824
 742,41;14429,531;   56,169;33833,055;42,55384
 742,98;14592,583;   91,469;33874,590;42,92414
 743,55;14615,734;   53,569;33836,824;43,10468
 744,12;14691,386;   50,469;33859,855;43,30430
 744,69;14727,438;   59,569;33848,492;43,41029
 745,26;14749,890;   42,169;33677,723;43,72671
 745,83;14726,741;   58,769;33854,355;43,40204
 746,40;14858,993;   57,969;33844,789;43,80709
 746,97;14760,944;   44,769;33828,125;43,56043
 747,55;14834,496;   62,269;33966,957;43,56987
 748,12;14825,148;   57,869;33910,191;43,62265
 748,69;14744,600;   68,769;33877,625;43,40824
 749,26;14714,251;   65,069;33958,559;43,22123
 749,83;14792,403;   42,569;33911,992;43,54912
 750,40;14746,755;   89,669;34158,824;43,02157
 750,97;14772,007;   96,269;34144,160;43,10322
 751,54;14605,559;   40,569;33980,793;42,91365
 752,11;14522,810;   52,969;33874,727;42,78264
 752,68;14508,361;   87,869;33912,859;42,63266
 753,25;14501,514;   60,269;33774,594;42,83415
 753,82;14432,565;   65,069;33810,527;42,57609
 754,39;14529,116;   75,169;33727,160;42,95124
 754,96;14488,068;   60,069;33616,395;42,99636
 755,53;14549,820;   29,469;33796,527;43,00153
 756,10;14525,972;   64,169;33720,961;42,96845
 756,67;14636,623;   73,369;33813,395;43,16314
 757,24;14669,075;   72,769;33740,426;43,35409
 757,81;14621,627;   16,469;33677,762;43,38858
 758,38;14734,479;   54,569;33822,695;43,47268
 758,95;14744,530;   79,469;33743,426;43,56309
 759,52;14696,082;   57,469;33615,859;43,62132
 760,09;14687,834;   68,570;33306,992;43,98303
 760,66;14781,085;   59,570;33309,727;44,27503
 761,23;14762,837;   91,070;33353,961;44,10851
 761,80;14823,589;   56,270;33295,793;44,42699
 762,37;14847,340;   68,970;33167,727;44,64932
 762,94;14914,292;   70,970;33187,461;44,82154
 763,51;14823,943;   36,070;32949,793;44,92920
 764,08;14808,995;   66,270;32998,527;44,76682
 764,65;14687,347;   69,570;32798,961;44,66254
 765,22;14751,099;   54,670;32804,496;44,87483
 765,79;14646,150;   77,370;32691,928;44,66956
 766,36;14720,202;   73,170;32743,063;44,83343
 766,93;14726,054;   68,970;32551,295;45,12326
 767,50;14771,506;   89,470;32828,328;44,84590
 768,07;14725,058;   63,870;32699,262;44,92420
 768,64;14527,109;   86,470;32572,596;44,45171
 769,21;14465,860;   57,970;32359,729;44,60404
 769,78;14404,813;   78,770;32244,963;44,53758
 770,34;14342,064;   45,570;32031,195;44,69662
 770,91;14280,916;   58,470;31921,430;44,63630
 771,48;14226,968;   62,370;31836,863;44,57852
 772,05;14041,619;   66,470;31610,697;44,30335
 772,62;13954,371;   42,670;31443,029;44,30427
 773,19;14074,822;   59,370;31579,764;44,46471
 773,76;14048,674;   71,070;31506,297;44,46478
 774,33;13935,326;   74,170;31447,330;44,18157
 774,90;13875,077;   52,870;31206,064;44,36851
 775,47;13904,529;   59,970;30957,498;44,80798
 776,03;13795,081;   73,470;30984,330;44,39091
 776,60;13782,032;   55,970;30757,863;44,70754
 777,17;13773,685;   65,470;30698,098;44,75037
 777,74;13707,636;   30,870;30522,031;44,85485
 778,31;13830,288;   68,970;30582,064;45,09971
 778,88;13731,239;   30,470;30366,898;45,16276
 779,45;13764,591;   75,770;30358,131;45,20394
 780,01;13688,442;   58,370;30299,664;45,07106
 780,58;13683,994;   60,570;30177,998;45,23435
 781,15;13677,646;   38,771;29979,432;45,55302
 781,72;13688,198;   66,771;29962,266;45,56348
 782,29;13568,249;   51,771;29667,100;45,64014
 782,86;13504,901;   55,571;29617,732;45,49509
 783,42;13445,453;   56,171;29598,166;45,32288
 783,99;13469,604;   66,671;29482,100;45,56430
 784,56;13310,856;   55,171;29320,232;45,29526
 785,13;13229,808;   40,271;29247,266;45,15883
 785,70;13133,060;   49,071;29060,299;45,09974
 786,26;13054,711;   51,671;28910,732;45,05704
 786,83;13118,063;   84,371;28889,166;45,24834
 787,40;13049,415;   57,171;28783,500;45,22765
 787,97;12964,267;   43,971;28581,133;45,27534
 788,54;12863,218;   70,371;28515,268;44,97414
 789,10;12758,069;   57,971;28344,400;44,89820
 789,67;12723,922;   70,371;28245,334;44,91062
 790,24;12718,173;   51,071;28193,768;45,01026
 790,81;12535,125;   88,271;27914,400;44,73081
 791,37;12451,477;   73,671;27872,135;44,52694
 791,94;12358,128;   70,771;27886,367;44,17434
 792,51;12269,780;   46,271;27539,201;44,46055
 793,08;12283,432;   69,771;27555,234;44,43680
 793,64;12125,583;   71,271;27455,168;44,01971
 794,21;12198,735;   69,671;27250,602;44,62343
 794,78;12111,486;   53,071;27147,035;44,50591
 795,35;12142,139;   73,471;27007,969;44,80747
 795,91;11974,990;   48,071;26789,301;44,60124
 796,48;11901,342;   55,771;26710,734;44,44039
 797,05;11942,394;   57,671;26624,369;44,73541
 797,62;11916,445;   41,971;26600,701;44,71025
 798,18;11920,396;   57,471;26410,736;45,01501
 798,75;11770,648;   56,571;26279,770;44,67067
 799,32;11768,500;   60,771;26209,102;44,77429
 799,88;11764,852;   55,971;26051,535;45,04184
 800,45;11642,304;   33,971;25945,270;44,80027
 801,02;11714,355;   65,271;25880,104;45,12555
 801,58;11658,307;   90,872;25660,436;45,23908
 802,15;11562,959;   72,872;25615,270;44,98437
 802,72;11536,311;   66,172;25404,703;45,26758
 803,28;11434,862;   49,172;25288,938;45,11013
 803,85;11347,214;   41,972;25144,871;45,03560
 804,42;11296,665;   77,772;24948,004;45,10973
 804,98;11290,817;  100,672;24935,537;45,05821
 805,55;11197,769;   56,972;24702,371;45,20437
 806,12;11051,921;   83,572;24611,004;44,71870
 806,68;10993,072;   66,472;24493,738;44,73116
 807,25;11021,023;   74,972;24436,271;44,93213
 807,82;10958,575;   86,872;24407,805;44,70101
 808,38;10874,127;   73,672;24367,037;44,45846
 808,95;10800,379;   62,972;24166,971;44,54616
 809,52;10784,631;   50,272;24162,004;44,51924
 810,08;10746,882;   55,172;23994,938;44,66088
 810,65;10787,934;   77,172;24169,672;44,45683
 811,21;10743,985;   69,972;24123,404;44,37626
 811,78;10839,438;   92,472;24337,539;44,32640
 812,35;10693,689;   64,972;24173,871;44,08628
 812,91;10722,141;   90,072;24239,705;44,02580
 813,48;10691,593;   68,172;24202,738;44,01745
 814,04;10665,244;   64,172;24088,373;44,12664
 814,61;10643,896;   77,572;24176,006;43,84652
 815,18;10526,848;   67,772;23892,539;43,90001
 815,74;10645,899;   69,772;23709,172;44,73941
 816,31;10559,251;   83,372;23614,406;44,51942
 816,87;10474,202;   43,272;23489,641;44,48847
 817,44;10524,055;   76,972;23452,273;44,69282
 818,00;10416,306;   43,272;23159,506;44,87337
 818,57;10389,458;   71,872;23076,340;44,85036
 819,14;10338,510;   82,872;22924,273;44,89934
 819,70;10263,761;   72,672;22792,707;44,85507
 820,27;10242,413;   62,972;22691,941;44,98411
 820,83;10175,664;   70,072;22541,373;44,97110
 821,40;10115,616;   98,072;22431,908;44,85366
 821,96; 9966,567;   75,272;22315,541;44,47471
 822,53; 9992,920;   70,973;22257,574;44,72045
 823,09; 9977,771;   81,073;22073,309;45,00088
 823,66; 9885,423;   68,173;21862,541;45,04489
 824,22; 9797,074;   77,173;21851,674;44,63892
 824,79; 9841,526;   75,473;21561,408;45,45324
 825,35; 9757,578;   65,173;21648,041;44,90787
 825,92; 9602,830;   75,173;21398,875;44,68107
 826,48; 9601,881;   87,673;21501,309;44,43061
 827,05; 9478,533;   89,573;21448,242;43,95855
 827,61; 9369,085;   75,273;21249,076;43,89297
 828,18; 9305,336;   60,873;21191,209;43,74972
 828,74; 9280,888;   91,673;21053,543;43,83776
 829,31; 9304,340;   83,373;21002,176;44,07980
 829,87; 9291,191;   73,073;20733,709;44,61682
 830,44; 9229,743;   85,173;20631,443;44,50720
 831,00; 9168,795;   91,273;20673,977;44,10267
 831,57; 9178,446;  101,573;20631,609;44,21265
 832,13; 9018,099;   72,073;20323,344;44,17513
 832,69; 8951,250;   58,173;20309,477;43,91360
 833,26; 8984,102;   85,473;20322,711;43,97156
 833,82; 8926,253;   93,073;20197,744;43,93596
 834,39; 8888,805;   78,773;20137,477;43,92124
 834,95; 8810,356;   57,173;19959,410;43,98090
 835,52; 8852,108;   87,873;19851,744;44,34473
 836,08; 8773,260;   95,573;19951,877;43,70243
 836,64; 8770,012;   76,273;19800,711;44,07598
 837,21; 8764,464;   88,673;19552,443;44,57405
 837,77; 8755,715;   91,873;19491,777;44,65920
 838,34; 8684,767;   67,473;19470,012;44,41323
 838,90; 8683,019;   64,473;19306,045;44,79128
 839,46; 8676,271;   83,873;19312,479;44,68549
 840,03; 8656,622;   76,173;19300,811;44,63257
 840,59; 8588,273;   85,873;19175,645;44,53904
 841,16; 8538,625;  105,173;19156,578;44,26682
 841,72; 8414,377;   59,373;18965,512;44,19202
 842,28; 8395,629;   77,873;18857,246;44,29198
 842,85; 8406,681;   95,573;18812,578;44,40405
 843,41; 8396,732;  105,374;18740,813;44,49243
 843,97; 8321,384;   89,174;18686,846;44,26473
 844,54; 8269,735;  104,774;18624,979;44,08678
 845,10; 8260,487;   89,174;18523,713;44,32611
 845,67; 8128,939;   68,774;18413,445;43,93736
 846,23; 8077,690;   78,674;18361,080;43,75254
 846,79; 7989,342;   90,474;18265,613;43,45974
 847,36; 7981,894;   55,774;18179,047;43,73449
 847,92; 7977,545;   84,874;18034,680;43,97079
 848,48; 7941,397;   41,874;18039,213;43,89273
 849,04; 7873,049;   62,374;17949,447;43,66659
 849,61; 7870,201;   56,274;17918,580;43,74534
 850,17; 7889,952;   68,174;17819,514;44,06303
 850,73; 7775,104;   71,474;17764,848;43,53963
 851,30; 7719,156;   46,074;17669,881;43,53816
 851,86; 7670,808;   75,874;17597,914;43,34503
 852,42; 7671,759;   51,174;17568,348;43,50351
 852,99; 7676,211;   79,274;17583,082;43,40162
 853,55; 7709,962;   83,174;17542,514;43,68314
 854,11; 7606,414;   70,074;17432,049;43,40716
 854,67; 7633,266;   85,474;17420,881;43,53974
 855,24; 7538,018;   51,874;17213,414;43,62163
 855,80; 7582,169;   76,874;17244,848;43,71684
 856,36; 7554,421;   80,574;17175,881;43,71871
 856,92; 7516,172;   54,474;17027,215;43,96284
 857,49; 7502,724;   81,274;17048,248;43,74056
 858,05; 7441,976;   67,274;16968,482;43,63417
 858,61; 7473,028;   65,774;17003,316;43,73275
 859,17; 7423,979;   77,374;16904,250;43,65995
 859,74; 7351,131;   82,074;16836,883;43,38490
 860,30; 7267,083;   93,074;16663,016;43,29531
 860,86; 7251,334;   72,074;16692,350;43,19580
 861,42; 7161,886;   74,674;16545,883;43,02788
 861,99; 7156,038;   54,674;16506,717;43,16402
 862,55; 7067,990;   66,374;16393,051;42,88451
 863,11; 7123,541;   75,174;16437,283;43,07737
 863,67; 6995,893;   61,274;16290,117;42,73021
 864,23; 7001,044;   80,175;16199,351;42,93563
 864,80; 6931,696;   69,175;16081,384;42,85806
 865,36; 6908,948;   71,875;16120,817;42,60139
 865,92; 6911,100;   96,175;16088,751;42,61305
 866,48; 6856,251;   67,375;15987,384;42,64367
 867,04; 6797,703;   60,675;15891,418;42,55661
 867,60; 6750,955;   99,375;15884,451;42,13841
 868,17; 6704,906;   93,675;15884,685;41,86706
 868,73; 6665,558;   82,775;15672,618;42,22482
 869,29; 6638,010;   59,475;15470,151;42,68816
 869,85; 6681,262;  100,475;15369,685;43,09841
 870,41; 6582,313;   80,575;15293,418;42,73848
 870,97; 6563,465;   92,975;15232,252;42,73976
 871,54; 6464,517;   84,175;15178,686;42,26928
 872,10; 6466,068;   84,275;15055,419;42,62729
 872,66; 6356,420;   66,775;14910,652;42,37198
 873,22; 6371,372;   81,975;14890,586;42,47121
 873,78; 6302,423;   65,275;14742,419;42,49565
 874,34; 6283,475;   95,075;14662,652;42,48064
 874,90; 6267,175;  109,775;14536,053;42,68183
 875,46; 6139,575;   96,375;14412,952;42,21121
 876,03; 6086,175;   86,475;14363,353;42,02389
 876,59; 6028,575;   64,475;14153,253;42,33227
 877,15; 6041,675;  101,475;14166,853;42,23278
 877,71; 5998,775;   78,275;14064,652;42,33047
 878,27; 5840,575;   95,675;13910,553;41,58488
 878,83; 5878,675;  114,275;13971,753;41,59776
 879,39; 5831,475;   91,075;14082,753;41,02725
 879,95; 5749,575;   86,275;13964,253;40,80782
 880,51; 5693,375;   75,175;13927,253;40,55854
 881,07; 5815,575;   82,375;13978,753;41,25680
 881,63; 5774,975;   92,575;13971,253;40,94338
 882,19; 5748,875;   82,675;13921,553;40,94407
 882,75; 5774,275;   86,275;14019,553;40,82313
 883,31; 5828,975;   95,575;14187,853;40,68469
 883,88; 5768,575;   96,375;14174,353;40,29130
 884,44; 5765,475;   76,175;14175,753;40,35085
 885,00; 5846,075;  106,075;14266,952;40,53421
 885,56; 5835,575;  101,675;14299,452;40,38590
 886,12; 5837,075;  109,875;14421,152;40,01879
 886,68; 5845,375;   90,775;14436,753;40,11299
 887,24; 5921,775;  102,475;14574,952;40,20943
 887,80; 5896,175;   86,975;14671,753;39,83057
 888,36; 5926,575;  106,275;14715,652;39,83948
 888,92; 5898,875;   98,975;14773,353;39,52399
 889,48; 6003,775;   99,575;14973,853;39,69403
 890,04; 5970,475;   95,275;14803,053;39,94621
 890,60; 5984,675;  117,475;15014,652;39,38464
 891,16; 6020,875;   99,875;15075,853;39,53665
 891,72; 6012,575;  113,275;15058,452;39,47294
 892,28; 5998,675;  112,475;15126,053;39,20584
 892,84; 5939,575;   93,775;15039,853;39,11260
 893,39; 5962,375;  117,575;15112,952;38,97735
 893,95; 5863,075;  112,975;15044,753;38,50915
 894,51; 5812,575;   66,375;14891,253;38,76052
 895,07; 5802,975;  127,375;14906,353;38,40320
 895,63; 5665,875;   74,275;14689,952;38,25755
 896,19; 5635,175;   90,375;14601,952;38,20949
 896,75; 5543,075;  105,175;14460,152;37,88164
 897,31; 5482,975;   82,775;14295,853;37,99459
 897,87; 5399,675;   98,175;14146,853;37,73665
 898,43; 5377,075;   87,775;14075,753;37,81319
 898,99; 5290,775;  109,175;14002,753;37,29493
 899,55; 5230,475;  109,475;13940,652;37,02505
 900,11; 5181,375;  104,975;13747,553;37,20998
 900,67; 5086,475;   91,375;13658,652;36,81726
 901,22; 5027,375;  108,375;13601,952;36,45438
 901,78; 4939,475;   91,275;13560,053;35,99584
 902,34; 4927,975;  103,075;13451,152;36,14678
 902,90; 4781,675;   73,575;13350,652;35,46036
 903,46; 4753,575;   95,775;13236,353;35,44593
 904,02; 4734,175;   88,075;13091,553;35,72967
 904,58; 4668,875;   67,075;12918,152;35,80867
 905,14; 4604,975;   63,975;12874,553;35,44727
 905,70; 4557,875;   66,775;12696,053;35,56102
 906,25; 4579,475;   84,375;12708,452;35,60736
 906,81; 4497,275;   87,675;12732,152;34,87372
 907,37; 4512,475;   79,275;12616,152;35,36128
 907,93; 4424,875;   74,775;12588,152;34,76360
 908,49; 4427,875;  101,875;12497,652;34,89898
 909,05; 4356,575;   89,675;12425,553;34,58935
 909,60; 4319,975;   86,575;12340,452;34,54743
 910,16; 4197,175;   67,675;12291,853;33,78141
 910,72; 4150,075;  100,475;12207,753;33,44765
 911,28; 4137,475;   90,875;12156,053;33,53950
 911,84; 4129,675;   79,575;12106,753;33,67456
 912,39; 4037,175;   73,475;12049,353;33,09737
 912,95; 4056,975;  104,475;12001,452;33,22273
 913,51; 3978,775;   85,375;11945,253;32,82833
 914,07; 3903,575;   83,775;11813,452;32,56526
 914,63; 3866,375;   64,775;11748,053;32,53881
 915,18; 3799,175;   77,475;11617,853;32,24938
 915,74; 3758,975;   63,975;11632,652;31,93969
 916,30; 3712,875;   61,475;11588,553;31,67672
 916,86; 3658,675;   83,575;11514,652;31,27527
 917,42; 3603,075;   82,275;11425,152;31,03974
 917,97; 3579,775;   75,375;11265,452;31,31703
 918,53; 3510,675;   67,775;11196,253;30,93774
 919,09; 3493,775;   88,975;11223,753;30,57807
 919,65; 3427,475;   83,375;11083,452;30,40070
 920,20; 3342,275;   61,875;10983,053;30,03705
 920,76; 3311,475;   65,475;10849,452;30,10021
 921,32; 3312,975;   82,675;10770,952;30,22283
 921,87; 3294,175;   97,475;10670,253;30,23520
 922,43; 3209,575;   64,675;10561,353;29,96091
 922,99; 3201,975;   61,875;10406,753;30,35415
 923,55; 3091,975;   63,775;10357,353;29,41834
 924,10; 3055,775;   73,575;10282,853;29,21069
 924,66; 3042,175;   78,675;10170,152;29,36636
 925,22; 2919,975;   43,275;10093,952;28,62195
 925,77; 2897,175;   66,075; 9927,053;28,71014
 926,33; 2891,875;   90,375; 9903,253;28,54922
 926,89; 2826,475;   71,975; 9692,753;28,63074
 927,44; 2723,475;   52,175; 9580,553;28,03520
 928,00; 2711,075;   66,875; 9533,753;27,93107
 928,56; 2667,575;   80,375; 9372,253;27,84367
 929,12; 2601,575;   72,775; 9275,152;27,47985
 929,67; 2525,775;   67,575; 9091,053;27,24227
 930,23; 2476,375;   50,975; 8915,253;27,36151
 930,78; 2453,075;  100,675; 8842,553;26,90955
 931,34; 2383,575;   61,975; 8632,152;27,08929
 931,90; 2282,175;   61,675; 8494,353;26,33209
 932,45; 2221,475;   78,775; 8290,753;26,09238
 933,01; 2127,975;   52,975; 8024,453;26,03031
 933,57; 2043,575;   72,175; 7753,252;25,66567
 934,12; 1957,375;   70,475; 7399,553;25,74539
 934,68; 1811,375;   59,075; 7020,252;25,17247
 935,24; 1725,675;   67,875; 6614,752;25,32200
 935,79; 1601,475;   72,975; 6254,853;24,72550
 936,35; 1503,275;   91,375; 5812,252;24,67978
 936,90; 1408,475;   80,275; 5348,752;25,21032
 937,46; 1262,275;   72,775; 4956,953;24,35415
 938,02; 1173,875;   63,375; 4549,152;24,75602
 938,57; 1101,375;   73,175; 4265,053;24,52839
 939,13; 1033,175;   70,575; 3986,752;24,58009
 939,68;  939,975;   57,375; 3713,452;24,14063
 940,24;  904,075;   68,775; 3504,052;24,31536
 940,79;  886,775;   91,875; 3391,052;24,09388
 941,35;  861,575;   79,675; 3217,552;24,91812
 941,91;  811,775;   71,375; 3122,252;24,26843
 942,46;  764,675;   75,075; 3063,552;23,07529
 943,02;  759,775;   65,375; 3050,752;23,26004
 943,57;  738,475;   61,275; 2982,452;23,18243
 944,13;  751,675;   67,375; 2974,452;23,53910
 944,68;  745,475;   65,975; 3041,752;22,83437
 945,24;  772,075;   82,275; 3060,052;23,16493
 945,79;  746,275;   68,775; 3104,052;22,32086
 946,35;  745,775;   51,775; 3194,752;22,08097
 946,90;  796,875;   98,575; 3283,552;21,92480
 947,46;  749,175;   52,175; 3311,052;21,38773
 948,01;  754,175;   51,575; 3390,052;21,04552
 948,57;  815,375;   86,775; 3552,952;21,02027
 949,12;  788,475;   65,875; 3613,353;20,36940
 949,68;  824,675;   76,275; 3732,653;20,46835
 950,23;  823,675;   70,075; 3833,252;20,02563
 950,79;  838,975;   75,775; 3933,452;19,78392
 951,34;  858,975;   83,275; 4070,952;19,45243
 951,90;  844,975;   57,475; 4140,853;19,28550
 952,45;  870,775;   81,075; 4292,152;18,75292
 953,01;  886,475;   65,975; 4364,252;19,08904
 953,56;  889,075;   87,975; 4500,853;18,15369
 954,12;  849,975;   42,075; 4567,553;17,85226
 954,67;  881,775;   70,875; 4720,453;17,44029
 955,23;  897,475;   61,975; 4804,553;17,61700
 955,78;  916,775;   67,175; 4882,953;17,64201
 956,33;  899,275;   58,575; 4947,252;17,19688
 956,89;  911,975;   53,475; 5038,553;17,22140
 957,44;  923,275;   53,675; 5170,752;16,99408
 958,00;  948,875;   49,475; 5238,353;17,33323
 958,55;  935,175;   70,475; 5313,953;16,49096
 959,10;  943,675;   52,375; 5370,252;16,76045
 959,66;  964,175;   74,275; 5488,752;16,43557
 960,21;  956,275;   78,475; 5567,453;15,99205
 960,77;  933,375;   54,275; 5606,152;15,83428
 961,32;  943,775;   48,375; 5663,453;15,94635
 961,87;  971,175;   79,775; 5738,752;15,75196
 962,43;  955,575;   68,975; 5780,652;15,52259
 962,98;  974,575;   76,175; 5828,652;15,61762
 963,54;  924,775;   27,075; 5820,652;15,49474
 964,09;  942,975;   56,275; 5873,953;15,24148
 964,64;  943,875;   64,975; 5901,053;15,05977
 965,20;  930,775;   44,375; 5966,652;14,96722
 965,75;  927,775;   66,575; 5976,353;14,57246
 966,30;  933,675;   75,275; 6068,553;14,32271
 966,86;  929,975;   62,975; 6121,953;14,30934
 967,41;  910,675;   81,075; 6084,453;13,81889
 967,96;  939,475;   75,175; 6108,953;14,32436
 968,52;  912,975;   81,775; 6126,353;13,75117
 969,07;  885,975;   72,975; 6120,152;13,44429
 969,62;  886,375;   77,175; 6134,953;13,35803
 970,18;  866,275;   57,575; 6147,652;13,27898
 970,73;  863,075;   66,475; 6203,553;12,98012
 971,28;  867,475;   95,775; 6197,053;12,64817
 971,84;  832,975;   55,075; 6118,752;12,82885
 972,39;  860,575;   95,875; 6148,652;12,63387
 972,94;  819,975;   54,975; 6140,652;12,57050
 973,49;  813,275;   64,575; 6141,252;12,32088
 974,05;  789,775;   64,375; 6178,053;11,86520
 974,60;  810,475;   88,575; 6213,252;11,78674
 975,15;  801,275;   77,675; 6231,553;11,75844
 975,71;  767,675;   62,375; 6121,453;11,64039
 976,26;  803,675;   77,575; 6110,252;12,03611
 976,81;  792,375;   90,675; 6134,152;11,61087
 977,36;  776,875;   84,775; 6156,953;11,39789
 977,92;  777,875;   90,175; 6209,353;11,23844
 978,47;  777,875;   77,175; 6060,252;11,71136
 979,02;  771,875;   95,475; 6085,652;11,29182
 979,57;  757,375;   86,775; 6058,453;11,22968
 980,13;  741,075;   76,175; 6038,752;11,15122
 980,68;  740,675;   77,075; 6010,553;11,18400
 981,23;  740,575;   89,175; 6054,652;10,91950
 981,78;  740,775;   82,075; 5974,152;11,17942
 982,33;  720,175;   79,275; 5893,252;11,02343
 982,89;  716,175;   94,375; 5938,152;10,64038
 983,44;  701,175;   65,675; 5935,853;10,82591
 983,99;  734,975;  104,775; 5949,453;10,78246
 984,54;  697,975;   81,475; 5900,053;10,59537
 985,09;  705,175;   87,275; 5873,752;10,67834
 985,65;  675,575;   69,375; 5811,853;10,55642
 986,20;  699,075;  106,575; 5791,152;10,42294
 986,75;  700,575;   95,875; 5823,953;10,55677
 987,30;  691,675;   97,175; 5726,053;10,56161
 987,85;  659,175;   92,475; 5721,353;10,06773
 988,40;  645,075;   96,675; 5693,953; 9,79762
 988,96;  645,375;  114,875; 5666,553; 9,55567
 989,51;  640,075;  108,875; 5644,053; 9,59680
 990,06;  662,475;  128,275; 5680,853; 9,62076
 990,61;  618,775;   93,575; 5569,053; 9,59186
 991,16;  624,475;  104,375; 5558,053; 9,53668
 991,71;  591,375;   79,875; 5505,853; 9,42687
 992,26;  599,875;   93,475; 5457,252; 9,44111
 992,81;  565,875;   75,075; 5427,053; 9,17044
 993,37;  591,475;  113,475; 5390,553; 9,05804
 993,92;  570,575;  108,375; 5368,953; 8,78611
 994,47;  574,775;  117,475; 5329,652; 8,77369
 995,02;  586,075;  118,475; 5313,252; 9,00135
 995,57;  552,675;   90,875; 5274,652; 8,90856
 996,12;  586,275;  133,575; 5247,553; 8,85221
 996,67;  576,675;  132,375; 5191,652; 8,78189
 997,22;  532,075;   99,875; 5128,652; 8,59453
 997,77;  563,275;  115,275; 5110,553; 8,96847
 998,32;  534,575;  103,775; 5015,652; 8,77058
 998,87;  555,675;  114,275; 5018,752; 8,99994
 999,42;  534,575;  101,675; 4972,553; 8,88752
 999,97;  528,575;  109,975; 4956,353; 8,63738
1000,53;  547,775;  123,475; 4993,752; 8,71203
1001,08;  519,775;   98,375; 4879,053; 8,81465
1001,63;  551,575;  144,475; 4878,053; 8,60026
1002,18;  472,475;   85,075; 4777,453; 8,25594
1002,73;  547,275;  131,375; 4813,853; 8,88205
1003,28;  509,875;  103,575; 4811,953; 8,62930
1003,83;  503,975;  119,075; 4691,752; 8,41739
1004,38;  540,775;  137,775; 4703,152; 8,82731
1004,93;  494,075;  114,375; 4680,953; 8,31476
1005,48;  484,975;  104,075; 4573,053; 8,52320
1006,03;  477,375;  112,775; 4525,652; 8,26218
1006,58;  474,975;  111,475; 4486,553; 8,30842
1007,13;  446,675;   94,475; 4466,252; 8,05622
1007,68;  455,775;  104,975; 4462,453; 8,05053
1008,23;  462,175;  114,575; 4425,853; 8,06258
1008,78;  455,475;  107,375; 4384,152; 8,13931
1009,33;  456,675;  121,875; 4307,752; 7,99832
1009,88;  422,075;   84,775; 4329,553; 7,94623
1010,43;  444,375;  118,875; 4320,752; 7,74654
1010,98;  425,675;  100,675; 4310,053; 7,72086
1011,52;  427,175;   97,075; 4264,953; 7,92010
1012,07;  456,075;  144,475; 4319,252; 7,46387
1012,62;  401,375;  103,875; 4259,152; 7,15957
1013,17;  408,475;   97,175; 4172,053; 7,63949
1013,72;  396,275;   94,575; 4143,453; 7,45145
1014,27;  410,975;  100,275; 4105,853; 7,75668
1014,82;  393,175;   86,875; 4042,952; 7,74252
1015,37;  377,975;   84,375; 3964,853; 7,56608
1015,92;  388,175;  109,475; 3894,252; 7,36371
1016,47;  357,175;   90,275; 3819,452; 7,15707
1017,02;  356,075;   81,075; 3732,153; 7,53202
1017,57;  382,475;   96,475; 3718,853; 7,89537
1018,11;  345,475;   77,275; 3656,252; 7,49376
1018,66;  377,375;  120,175; 3636,552; 7,31435
1019,21;  356,575;  109,675; 3579,552; 7,11553
1019,76;  330,675;   77,675; 3497,353; 7,39836
1020,31;  344,475;   71,975; 3446,452; 8,07532
1020,86;  329,075;   96,175; 3448,052; 6,94834
1021,41;  329,775;   80,175; 3387,052; 7,54791
1021,96;  336,175;   83,675; 3385,853; 7,64647
1022,50;  352,975;  105,975; 3332,952; 7,65422
1023,05;  329,275;   94,675; 3288,052; 7,34645
1023,60;  329,575;   97,975; 3251,353; 7,34451
1024,15;  313,975;   81,075; 3184,853; 7,50376
1024,70;  328,575;   95,075; 3176,252; 7,57827
1025,25;  316,775;   81,175; 3127,452; 7,73403
1025,79;  331,275;  101,175; 3110,752; 7,64559
1026,34;  323,275;   83,475; 3044,653; 8,09813
1026,89;  324,575;  102,175; 3039,052; 7,57267
1027,44;  314,375;   95,875; 2952,952; 7,64768
1027,99;  314,275;   93,475; 2944,552; 7,74444
1028,53;  298,475;   89,675; 2900,052; 7,42961
1029,08;  318,975;  114,775; 2876,653; 7,39352
1029,63;  313,175;  114,875; 2854,952; 7,23702
1030,18;  300,975;   92,075; 2788,552; 7,74714
1030,73;  273,175;   91,175; 2739,552; 6,87213
1031,27;  274,375;   85,875; 2715,252; 7,16900
1031,82;  273,675;   81,875; 2686,452; 7,36396
1032,37;  281,775;   98,875; 2688,853; 7,06184
1032,92;  284,975;  100,575; 2675,452; 7,16151
1033,46;  273,975;   99,775; 2599,252; 6,96946
1034,01;  256,575;   78,375; 2582,952; 7,11497
1034,56;  269,175;   98,875; 2559,252; 6,92170
1035,11;  263,975;   92,375; 2523,552; 7,05831
1035,65;  255,275;   87,575; 2478,052; 7,01533
1036,20;  265,675;   99,375; 2454,452; 7,06134
1036,75;  287,375;  118,675; 2446,353; 7,24757
1037,29;  257,275;   90,275; 2398,252; 7,23577
1037,84;  236,175;   78,375; 2347,252; 6,95498
1038,39;  249,975;   91,075; 2329,952; 7,09731
1038,94;  218,275;   73,075; 2277,153; 6,58779
1039,48;  245,975;   83,575; 2278,552; 7,39871
1040,03;  251,475;  102,875; 2245,252; 6,93622
1040,58;  240,175;  101,175; 2194,552; 6,63999
1041,12;  231,875;   91,375; 2191,653; 6,68959
1041,67;  237,575;  101,075; 2166,752; 6,60800
1042,22;  258,775;  118,475; 2145,252; 6,92232
1042,76;  237,475;   99,275; 2118,452; 6,84437
1043,31;  242,875;   90,675; 2060,653; 7,72598
1043,86;  249,375;   98,875; 2044,252; 7,73629
1044,40;  240,075;   92,975; 2018,052; 7,64125
1044,95;  231,275;   94,175; 1988,552; 7,23721
1045,50;  210,375;   75,375; 1934,353; 7,26206
1046,04;  247,875;  114,375; 1930,453; 7,35101
1046,59;  212,275;   96,175; 1878,353; 6,51450
1047,13;  238,475;  121,075; 1879,453; 6,67661
1047,68;  243,375;  115,675; 1860,052; 7,32066
1048,23;  229,975;  118,775; 1866,752; 6,36164
1048,77;  212,475;   90,175; 1784,953; 7,21629
1049,32;  225,875;  104,175; 1785,953; 7,23639
1049,86;  206,775;   92,675; 1760,552; 6,84103
1050,41;  198,475;   82,475; 1735,552; 7,01722
1050,96;  210,275;  100,875; 1698,652; 6,84701
1051,50;  221,275;  101,675; 1663,252; 7,65892
1052,05;  210,975;   94,675; 1664,052; 7,41058
1052,59;  201,575;   82,975; 1624,152; 7,69541
1053,14;  186,975;   84,475; 1582,652; 6,84165
1053,69;  208,975;   98,475; 1571,453; 7,50181
1054,23;  220,075;  104,575; 1569,052; 7,88677
1054,78;  212,075;  100,775; 1550,152; 7,67916
1055,32;  222,375;  123,075; 1550,453; 6,95681
1055,87;  175,275;   68,875; 1491,752; 7,47780
1056,41;  166,875;   78,775; 1469,552; 6,33459
1056,96;  184,675;   96,775; 1451,052; 6,49055
1057,50;  227,675;  113,375; 1470,853; 8,42003
1058,05;  178,675;   82,075; 1401,953; 7,31886
1058,59;  201,475;   95,875; 1396,552; 8,11885
1059,14;  194,975;  103,575; 1370,453; 7,21459
1059,68;  166,375;   75,975; 1329,353; 7,21251
1060,23;  216,575;  126,875; 1383,752; 7,13673
1060,77;  190,275;   97,375; 1317,052; 7,61677
1061,32;  196,375;  108,575; 1320,652; 7,24376
1061,86;  191,675;  111,175; 1289,752; 6,83027
1062,41;  193,075;   93,975; 1242,953; 8,62506
1062,95;  186,275;  109,575; 1230,853; 6,84041
1063,50;  191,975;  111,075; 1230,052; 7,22982
1064,04;  176,775;   90,475; 1197,453; 7,79600
1064,59;  176,175;  114,775; 1210,052; 5,60589
1065,13;  185,575;  103,475; 1170,552; 7,69391
1065,68;  187,875;  107,275; 1161,353; 7,64650
1066,22;  209,175;  115,875; 1166,453; 8,88083
1066,76;  201,375;  130,175; 1145,252; 7,01424
1067,31;  167,875;   99,875; 1110,552; 6,72816
1067,85;  169,275;  100,975; 1090,252; 6,90403
1068,40;  180,875;  110,275; 1095,353; 7,16695
1068,94;  175,375;   99,175; 1079,353; 7,77410
1069,49;  158,675;   98,175; 1041,652; 6,41245
1070,03;  164,875;  111,175; 1034,353; 5,81687
1070,57;  161,875;   88,775; 1012,852; 7,91059
1071,12;  142,575;   75,875;  987,153; 7,31939
1071,66;  202,175;  131,775; 1039,953; 7,75179
1072,21;  179,375;  112,475; 1011,352; 7,44262
1072,75;  163,375;  104,475;  978,552; 6,73853
1073,29;  142,675;   77,075;  942,453; 7,58051
1073,84;  172,375;   95,975;  941,153; 9,03952
1074,38;  164,875;   93,875;  928,253; 8,50934
1074,92;  177,175;  107,275;  940,153; 8,39259
1075,47;  177,175;  112,775;  938,852; 7,79588
1076,01;  185,775;  121,775;  926,253; 7,95547
1076,56;  160,575;   97,275;  891,953; 7,96549
1077,10;  151,675;   86,075;  865,253; 8,41914
1077,64;  157,975;   97,875;  884,453; 7,64070
1078,19;  177,675;  123,175;  887,753; 7,12812
1078,73;  159,475;   98,775;  853,852; 8,03891
1079,27;  186,875;  121,075;  875,552; 8,72127
1079,81;  187,375;  121,375;  860,953; 8,92401
1080,36;  159,175;  105,975;  836,052; 7,28690
1080,90;  154,375;   96,375;  819,753; 8,01794
1081,44;  145,475;   82,475;  789,552; 8,90992
1081,99;  126,475;   70,375;  771,753; 7,99855
1082,53;  170,575;  113,075;  798,653; 8,38709
1083,07;  156,775;  104,175;  791,453; 7,65338
1083,62;  163,975;  101,275;  772,552; 9,34040
1084,16;  156,175;   98,975;  782,453; 8,36897
1084,70;  163,475;  107,475;  767,153; 8,48900
1085,24;  167,175;  108,775;  750,653; 9,09831
1085,79;  148,275;  109,175;  747,552; 6,12490
1086,33;  140,975;   99,075;  711,453; 6,84219
1086,87;  152,175;  102,075;  714,852; 8,17589
1087,41;  149,675;   84,475;  686,852;10,82378
1087,96;  169,575;  124,575;  732,552; 7,40159
1088,50;  154,075;  112,075;  696,953; 7,18099
1089,04;  179,975;  121,775;  715,153; 9,80826
1089,58;  121,075;   82,375;  655,953; 6,74713
1090,13;  143,575;  102,975;  653,153; 7,37944
1090,67;  140,275;  101,775;  678,753; 6,67270
1091,21;  149,175;   92,075;  651,852;10,20048
1091,75;  154,975;  106,875;  647,153; 8,90283
1092,29;  164,375;  105,875;  642,552;10,90040
1092,84;  148,775;  105,975;  628,352; 8,19331
1093,38;  169,375;  128,175;  662,753; 7,70702
1093,92;  167,975;  113,475;  640,052;10,34986
1094,46;  161,675;  128,175;  638,852; 6,55991
1095,00;  146,175;   93,975;  602,052;10,27402
1095,54;  132,775;   89,975;  591,352; 8,53648
1096,09;  158,475;  114,975;  597,352; 9,01784
1096,63;  149,775;  117,175;  598,453; 6,77364
1097,17;  147,475;  102,575;  573,052; 9,54350
1097,71;  168,775;  122,875;  582,453; 9,98743
1098,25;  126,175;  103,275;  553,653; 5,08462
1098,79;  156,675;  104,775;  568,753;11,18589
1099,33;  149,075;  111,975;  572,052; 8,06386
1099,88;  142,275;  110,775;  562,253; 6,97709
1100,42;  118,175;   83,275;  521,253; 7,96845

