0107 ELITRO
Integration time [ms]:   8,000
Averaging Nr. [scans]: 10
Smoothing Nr. [pixels]: 0
Data measured with spectrometer [name]: 7314920SP
Wave   ;Sample   ;Dark     ;Reference;Reflectance
[nm]   ;[counts] ;[counts] ;[counts] ;[%]

 199,42;  115,398;   63,873;  150,055;59,78627
 200,02;  125,363;   92,669;  145,732;61,61386
 200,62;   72,821;   67,563;   88,793;24,76666
 201,22;  112,366;   86,969;  138,011;49,75777
 201,82;  110,307;   66,174;  141,790;58,36448
 202,42;  121,262;  101,668;  154,973;36,75809
 203,03;   82,257;   60,168;   91,775;69,88598
 203,63;   78,853;   69,967;  109,037;22,74271
 204,23;  110,181;   70,671;  129,903;66,70475
 204,83;   97,851;   74,567;  123,718;47,37171
 205,43;   95,998;   56,673;  123,555;58,79757
 206,03;   74,450;   50,167;   90,459;60,26745
 206,63;   78,333;   68,865;  100,007;30,40454
 207,24;  125,015;   74,675;  162,566;57,27561
 207,84;   64,849;   39,967;   83,699;56,89586
 208,44;   74,666;   50,669;   95,011;54,11885
 209,04;   61,034;   47,365;   85,066;36,25720
 209,64;   98,592;   69,972;  127,998;49,32217
 210,24;   70,851;   45,367;   97,218;49,14788
 210,84;   69,667;   51,469;  101,970;36,03506
 211,44;  118,371;   86,470;  122,908;87,54947
 212,05;   77,834;   60,865;   99,266;44,18970
 212,65;  104,757;   66,368;  112,975;82,36706
 213,25;  112,862;   93,768;  142,073;39,52785
 213,85;  107,138;   84,465;  114,904;74,48707
 214,45;   66,251;   53,367;  100,418;27,38245
 215,05;   55,567;   39,369;  100,070;26,68500
 215,65;   72,268;   55,169;  105,630;33,88592
 216,25;   66,351;   40,267;   82,518;61,73495
 216,85;   56,865;   34,069;   89,651;41,01358
 217,45;   75,757;   49,068;   97,375;55,24856
 218,05;   93,474;   58,270;  112,886;64,45730
 218,66;   59,564;   28,769;   75,692;65,62976
 219,26;   51,153;   26,567;   79,337;46,59009
 219,86;   63,979;   36,771;   81,584;60,71587
 220,46;   83,673;   54,270;  104,127;58,97535
 221,06;   89,081;   51,871;  115,903;58,11244
 221,66;   84,585;   43,471;  103,481;68,51056
 222,26;   78,192;   39,772;  102,398;61,34790
 222,86;   96,160;   67,268;  118,954;55,89930
 223,46;   66,251;   51,767;   88,918;38,98600
 224,06;  101,080;   64,971;  120,343;65,21210
 224,66;  104,876;   57,570;  105,805;98,07383
 225,26;   77,870;   48,169;  113,748;45,28997
 225,86;   85,395;   42,173;  112,376;61,56683
 226,46;   83,161;   49,968;  102,913;62,69303
 227,06;   61,176;   27,670;   87,705;55,81074
 227,66;   81,337;   37,665;   74,845;117,46277
 228,27;   63,773;   29,270;   96,227;51,53061
 228,87;  122,175;   89,170;  143,046;61,26160
 229,47;   83,393;   29,172;   92,357;85,81221
 230,07;   42,570;   11,169;   59,648;64,77177
 230,67;   71,565;   38,169;   84,651;71,84737
 231,27;   58,373;   27,670;   76,327;63,10159
 231,87;   74,965;   43,169;  100,751;55,21887
 232,47;  102,513;   43,775;  132,047;66,54223
 233,07;   60,732;   42,965;   75,547;54,53101
 233,67;   77,357;   53,768;   94,275;58,23415
 234,27;   33,150;    0,567;   53,259;61,83665
 234,87;   68,879;   34,771;  106,084;47,82947
 235,47;   44,970;   16,169;   74,148;49,67438
 236,07;   47,743;   30,266;   72,042;41,83380
 236,67;   76,147;   49,966;   85,180;74,34644
 237,27;   70,400;   28,873;  109,074;51,77853
 237,87;   68,376;   25,370;   99,805;57,77655
 238,47;   61,263;   14,269;   68,032;87,40960
 239,07;   68,191;   33,272;   95,738;55,89996
 239,67;  105,027;   43,477;  131,421;69,98771
 240,27;   74,595;   46,773;  119,176;38,42644
 240,87;   94,301;   50,773;  119,533;63,30372
 241,47;   57,625;   39,164;   76,131;49,94005
 242,07;   68,059;   39,968;   92,894;53,07574
 242,67;   31,299;  -11,027;   77,914;47,58849
 243,27;   36,451;    7,767;   46,418;74,21181
 243,87;   76,680;   48,671;  108,343;46,93887
 244,47;   72,281;   22,371;   99,703;64,54063
 245,07;   37,867;    2,669;   55,770;66,28515
 245,67;   62,957;   31,068;   85,575;58,50425
 246,27;   57,033;   34,965;   69,007;64,82732
 246,87;   39,260;   26,668;   63,154;34,51186
 247,46;   21,121;   19,663;   23,793;35,30199
 248,06;   54,374;   20,470;   69,786;68,74843
 248,66;   68,292;   31,072;  105,898;49,74164
 249,26;   49,243;   32,366;   70,742;43,97665
 249,86;   80,395;   42,873;  102,176;63,27125
 250,46;   50,514;   16,775;   93,507;43,97036
 251,06;   52,057;   22,168;   65,375;69,17598
 251,66;   41,978;   20,771;   64,724;48,25025
 252,26;   43,645;   38,866;   70,261;15,22034
 252,86;   61,267;   35,969;   89,070;47,64142
 253,46;    0,751;   -8,033;   22,118;29,13241
 254,06;   50,541;   31,766;   79,483;39,34815
 254,66;   56,798;   34,973;  100,155;33,48303
 255,26;   81,796;   39,073;  118,836;53,56248
 255,86;   41,825;   37,464;   55,631;24,00740
 256,46;   42,471;   19,870;   70,208;44,89937
 257,05;   52,077;   23,570;   59,565;79,19806
 257,65;   78,679;   38,071;   97,684;68,12036
 258,25;   81,093;   37,372;  101,457;68,22255
 258,85;   40,767;   15,669;   51,770;69,52184
 259,45;   24,865;    6,869;   42,951;49,87569
 260,05;   67,251;   46,667;   85,818;52,57504
 260,65;   65,845;   45,066;   83,561;53,97682
 261,25;   56,580;   29,371;   85,943;48,09686
 261,85;   29,884;   -0,129;   47,622;62,85214
 262,45;   76,967;   46,169;  109,270;48,80759
 263,04;   92,897;   53,073;  116,295;62,99027
 263,64;   57,854;   33,767;   77,097;55,58930
 264,24;   65,483;   37,671;   89,062;54,11698
 264,84;  103,505;   58,974;  138,671;55,87531
 265,44;   42,256;   26,368;   67,716;38,42564
 266,04;   62,239;   48,865;   71,464;59,18131
 266,64;   62,247;   39,866;   86,780;47,70497
 267,24;   48,547;   40,166;   68,980;29,08403
 267,84;   40,962;   24,668;   76,573;31,39168
 268,43;   69,258;   48,368;   95,935;43,91730
 269,03;   59,764;   46,969;   87,892;31,26704
 269,63;   77,344;   58,566;   92,402;55,49618
 270,23;   23,937;   10,765;   39,045;46,57844
 270,83;   70,245;   55,266;   83,161;53,69558
 271,43;   48,455;   23,967;   58,856;70,18711
 272,03;   82,756;   64,168;   99,116;53,18824
 272,62;   54,868;   23,269;   68,730;69,50885
 273,22;   41,675;   11,970;   61,046;60,52917
 273,82;   23,100;   17,460;   26,403;63,06896
 274,42;   27,926;   25,164;   46,890;12,71427
 275,02;   45,631;   34,864;   60,388;42,18413
 275,62;   78,593;   31,972;  100,457;68,07391
 276,21;   42,372;   22,770;   69,267;42,15798
 276,81;   68,849;   46,767;   71,099;90,75095
 277,41;   64,986;   22,971;   96,341;57,26381
 278,01;   30,231;   21,364;   42,788;41,38850
 278,61;   65,266;   38,869;   83,811;58,73659
 279,20;   90,295;   65,473;  119,076;46,30683
 279,80;   13,210;    6,762;   11,539;134,98342
 280,40;   58,743;   36,866;   79,742;51,02261
 281,00;   21,366;   -4,331;   33,311;68,26798
 281,60;   61,504;   20,774;   74,812;75,37343
 282,20;   64,271;   36,670;   70,108;82,54470
 282,79;   53,058;   29,568;   70,135;57,90464
 283,39;   33,744;   17,466;   44,702;59,76537
 283,99;   37,532;   23,165;   34,347;128,48049
 284,59;   32,969;   16,869;   45,289;56,65032
 285,19;   39,050;   27,067;   57,759;39,04255
 285,78;   44,471;   23,270;   63,808;52,30010
 286,38;   55,833;   39,665;   59,207;82,73710
 286,98;   54,858;   35,168;   73,535;51,32057
 287,58;   34,581;    4,771;   61,403;52,63907
 288,17;   50,696;    8,973;   80,336;58,46593
 288,77;   59,319;   19,976;   92,504;54,24585
 289,37;   36,667;   11,269;   57,670;54,73605
 289,97;   54,232;   48,965;   66,647;29,79015
 290,57;   65,688;   46,672;   93,260;40,81705
 291,16;   82,756;   63,868;  102,616;48,74633
 291,76;   21,275;    5,570;   47,346;37,59396
 292,36;   52,553;   34,367;   58,137;76,50650
 292,96;   34,294;   -3,127;   60,117;59,16939
 293,55;   44,949;   24,267;   65,399;50,28138
 294,15;   44,572;   26,870;   62,567;49,59000
 294,75;   45,033;   42,065;   66,207;12,29647
 295,35;   22,156;   21,068;   52,016; 3,51636
 295,94;   48,548;   42,967;   66,740;23,47652
 296,54;   38,561;   30,768;   70,613;19,55763
 297,14;   61,385;   29,971;   76,881;66,96481
 297,73;   19,536;   12,165;   40,085;26,40129
 298,33;   47,741;   28,066;   57,583;66,65901
 298,93;   49,760;   41,968;   82,554;19,19853
 299,53;   54,590;   24,872;   69,079;67,22418
 300,12;   28,085;  -12,229;   59,481;56,21698
 300,72;   75,354;   41,567;   91,197;68,07763
 301,32;   68,079;   25,771;   99,584;57,31865
 301,92;   22,827;    3,664;   33,050;65,21220
 302,51;   41,552;   11,567;   49,978;78,06354
 303,11;   24,850;   14,667;   48,759;29,86898
 303,71;   36,463;   21,369;   82,132;24,84136
 304,30;   29,740;    5,466;   38,423;73,65468
 304,90;   33,241;   19,666;   44,283;55,14784
 305,50;   47,337;   18,565;   64,345;62,84938
 306,09;   42,743;   15,466;   49,042;81,23759
 306,69;   71,183;   34,171;   90,262;65,98424
 307,29;   18,799;   18,760;   33,144; 0,27265
 307,88;   67,669;   43,269;   72,489;83,50482
 308,48;   36,273;    0,070;   49,727;72,90680
 309,08;    2,019;   -4,437;   11,774;39,82530
 309,68;   33,136;   22,365;   39,585;62,55021
 310,27;   32,868;   20,169;   49,830;42,81459
 310,87;   45,661;   23,468;   54,813;70,80183
 311,47;   64,051;   54,967;   92,918;23,93540
 312,06;   53,035;   47,865;   68,426;25,14682
 312,66;   73,056;   51,168;  100,016;44,80886
 313,26;   75,178;   48,571;   96,224;55,83565
 313,85;   68,050;   38,267;   65,959;107,55099
 314,45;   62,966;   42,969;   86,611;45,82132
 315,04;   63,235;   52,165;   81,826;37,32326
 315,64;   47,654;   21,267;   47,897;99,08803
 316,24;   68,473;   40,770;   85,627;61,75924
 316,83;   71,443;   40,366;   76,742;85,43084
 317,43;   63,455;   35,167;   68,156;85,74867
 318,03;   62,423;   39,063;   70,012;75,47904
 318,62;   90,708;   73,061;   94,820;81,10182
 319,22;   51,062;    7,668;   66,973;73,17123
 319,82;   64,156;   40,768;   93,516;44,33956
 320,41;   82,963;   59,069;   98,732;60,24296
 321,01;  103,537;   80,465;  115,945;65,02947
 321,60;   85,126;   81,164;  102,790;18,32179
 322,20;  109,698;   67,673;  132,855;64,47335
 322,80;   88,354;   54,567;   91,797;90,75232
 323,39;   68,430;   65,764;   94,828; 9,17270
 323,99;   82,045;   61,766;  102,661;49,58648
 324,59;   70,323;   73,063;   97,512;-11,20836
 325,18;   82,252;   40,967;   92,178;80,61744
 325,78;   89,436;   76,365;  108,885;40,19437
 326,37;   91,357;   74,868;  108,075;49,65502
 326,97;   94,454;   63,267;  111,497;64,66287
 327,57;   61,121;   42,263;   76,493;55,09200
 328,16;   79,325;   60,864;   93,631;56,34117
 328,76;   91,848;   50,467;  110,140;69,34626
 329,35;  106,979;   56,871;  137,484;62,15945
 329,95;   69,471;   27,470;   91,308;65,79368
 330,54;   76,251;   52,167;   94,018;57,54615
 331,14;   59,649;   26,967;   82,599;58,74622
 331,74;   87,537;   54,165;   96,145;79,49621
 332,33;   73,673;   35,370;  108,127;52,64558
 332,93;   59,727;   43,764;   79,250;44,98469
 333,52;   73,244;   42,466;   93,102;60,78226
 334,12;  109,364;   72,069;  140,392;54,58694
 334,71;   63,643;   50,666;   87,942;34,81199
 335,31;   98,150;   63,267;  119,859;61,63940
 335,90;   47,815;   32,362;   53,836;71,96033
 336,50;   49,733;   30,665;   77,207;40,97065
 337,10;   88,468;   38,769;  121,530;60,05165
 337,69;   75,233;   51,765;   93,707;55,95472
 338,29;   58,453;   30,467;  101,037;39,65649
 338,88;   58,460;   22,468;   99,854;46,50979
 339,48;   77,414;   57,862;  111,677;36,33172
 340,07;   68,046;   48,566;  107,321;33,15380
 340,67;   84,979;   31,171;  124,784;57,47985
 341,26;   79,843;   48,466;   98,942;62,16105
 341,86;  100,470;   61,469;  138,348;50,73000
 342,45;   88,069;   45,669;  142,689;43,70230
 343,05;   74,969;   27,269;  115,689;53,94708
 343,64;   85,247;   47,366;  122,480;50,43043
 344,24;   58,533;   28,765;   92,107;46,99654
 344,83;   87,932;   71,365;  121,747;32,88371
 345,43;   60,448;   29,667;  114,240;36,39584
 346,02;   59,765;   41,469;  124,351;22,07502
 346,62;   86,978;   40,971;  140,424;46,26049
 347,21;   79,336;   42,165;  131,985;41,38411
 347,81;   76,788;   26,172;  140,560;44,24926
 348,40;   47,325;   29,064;  100,731;25,48093
 349,00;   78,123;   49,163;  137,712;32,70488
 349,59;  110,775;   65,870;  177,846;40,10257
 350,19;   81,378;   32,571;  139,424;45,67719
 350,78;   59,250;   55,467;  140,759; 4,43524
 351,38;   60,965;   15,869;  140,951;36,05329
 351,97;   68,248;   26,767;  136,040;37,96093
 352,57;   73,873;   42,570;  155,827;27,63924
 353,16;   56,230;   30,564;  134,328;24,73491
 353,76;   85,175;   38,770;  169,846;35,40332
 354,35;   66,470;   27,669;  160,148;29,28820
 354,95;   79,072;   43,970;  182,067;25,41860
 355,54;   82,162;   38,368;  163,973;34,86635
 356,14;   72,170;   40,069;  164,749;25,74669
 356,73;   57,014;   29,162;  145,176;24,00710
 357,32;   64,963;   13,769;  164,432;33,97935
 357,92;   74,089;   17,772;  181,419;34,41347
 358,51;   96,490;   43,372;  214,179;31,09809
 359,11;   90,488;   36,772;  212,360;30,59198
 359,70;   68,277;   28,470;  189,965;24,64911
 360,30;   96,110;   54,562;  188,039;31,12757
 360,89;   62,460;   31,168;  188,054;19,94564
 361,48;  110,672;   55,570;  216,467;34,24692
 362,08;   75,655;   19,867;  187,156;33,34795
 362,67;   69,221;   39,763;  192,693;19,26238
 363,27;  108,652;   60,767;  247,678;25,61903
 363,86;  102,337;   35,765;  215,745;36,98875
 364,46;  111,425;   44,664;  257,231;31,40723
 365,05;  122,688;   64,659;  254,989;30,48876
 365,64;  124,595;   50,960;  269,706;33,66263
 366,24;  129,682;   38,558;  309,432;33,64071
 366,83;  165,860;   43,255;  335,383;41,96976
 367,43;  181,480;   51,545;  352,843;43,12534
 368,02;  195,893;   34,646;  399,757;44,16378
 368,61;  254,035;   62,239;  475,425;46,41891
 369,21;  228,587;   32,419;  445,299;47,51199
 369,80;  288,989;   43,007;  526,947;50,82908
 370,39;  335,381;   62,006;  604,971;50,34857
 370,99;  354,151;   42,089;  615,416;54,43003
 371,58;  350,736;   22,974;  630,953;53,91011
 372,18;  396,376;   37,166;  701,603;54,06244
 372,77;  389,150;   42,449;  679,385;54,43265
 373,36;  402,829;   42,747;  690,836;55,56060
 373,96;  388,044;   35,135;  639,498;58,39347
 374,55;  342,709;   29,844;  621,406;52,88805
 375,14;  326,849;   42,849;  573,826;53,48639
 375,74;  317,009;   69,157;  543,276;52,27627
 376,33;  253,064;   45,964;  464,589;49,47154
 376,92;  214,268;   33,278;  447,997;43,64156
 377,52;  313,364;   86,103;  548,460;49,15259
 378,11;  255,058;   46,703;  457,203;50,75632
 378,71;  284,924;   73,011;  514,270;48,02463
 379,30;  297,968;   59,517;  553,928;48,22935
 379,89;  299,638;   59,813;  556,103;48,32367
 380,49;  303,874;   31,018;  568,185;50,79546
 381,08;  333,883;   70,306;  570,990;52,64338
 381,67;  344,098;   55,008;  555,483;57,76326
 382,26;  310,883;   41,706;  539,390;54,08593
 382,86;  302,762;   54,003;  516,041;53,83941
 383,45;  334,033;   50,412;  562,105;55,42796
 384,04;  341,831;   38,712;  553,886;58,83818
 384,64;  336,045;   49,014;  566,760;55,43854
 385,23;  340,685;   64,406;  560,509;55,68983
 385,82;  365,957;   59,615;  592,774;57,45789
 386,42;  417,222;   61,024;  659,022;59,56505
 387,01;  386,943;   55,414;  580,541;63,13309
 387,60;  410,405;   69,009;  590,140;65,51059
 388,20;  385,833;   37,712;  590,805;62,94076
 388,79;  453,877;   72,418;  665,563;64,31127
 389,38;  390,983;   32,106;  564,890;67,35881
 389,97;  433,255;   45,415;  640,955;65,12409
 390,57;  466,848;   71,114;  654,038;67,88766
 391,16;  480,148;   62,514;  655,838;70,38877
 391,75;  472,240;   52,713;  638,562;71,60995
 392,34;  521,197;   60,821;  696,694;72,40064
 392,94;  527,979;   44,718;  689,683;74,92836
 393,53;  521,961;   41,016;  666,612;76,87794
 394,12;  551,314;   53,023;  719,105;74,80929
 394,72;  564,341;   54,213;  706,122;78,25135
 395,31;  595,157;   42,115;  694,874;84,72379
 395,90;  617,023;   42,924;  732,881;83,20786
 396,49;  645,650;   58,028;  779,187;81,48300
 397,09;  649,569;   47,417;  749,188;85,80471
 397,68;  687,927;   44,025;  800,719;85,09406
 398,27;  731,441;   54,626;  809,652;89,64129
 398,86;  726,431;   43,125;  807,657;89,37569
 399,45;  773,472;   56,630;  844,037;91,03831
 400,05;  755,689;   23,820;  799,518;94,34972
 400,64;  803,781;   56,419;  831,001;96,48586
 401,23;  818,393;   53,920;  859,956;94,84353
 401,82;  843,793;   67,220;  868,256;96,94607
 402,42;  863,298;   62,921;  873,953;98,68620
 403,01;  912,527;   81,525;  912,919;99,95280
 403,60;  942,180;   68,532;  940,513;100,19122
 404,19;  963,425;   76,024;  931,900;103,68331
 404,78;  959,306;   57,522;  909,929;105,79265
 405,38; 1023,085;   68,332;  984,210;104,24457
 405,97; 1012,139;   63,226;  953,933;106,53482
 406,56; 1082,053;   71,528; 1004,366;108,32809
 407,15; 1053,661;   68,829;  989,442;106,97577
 407,74; 1129,169;   80,730; 1026,758;110,82530
 408,34; 1105,587;   50,933; 1018,629;108,98610
 408,93; 1144,677;   59,531; 1016,234;113,42557
 409,52; 1150,607;   51,435; 1041,359;111,03593
 410,11; 1212,379;   84,931; 1090,453;112,12564
 410,70; 1200,044;   54,727; 1027,230;117,76999
 411,29; 1227,751;   58,628; 1030,847;120,25309
 411,89; 1251,010;   60,535; 1093,938;115,19950
 412,48; 1257,652;   48,228; 1051,606;120,53523
 413,07; 1293,894;   65,033; 1101,446;118,56876
 413,66; 1330,208;   78,135; 1102,119;122,27466
 414,25; 1333,423;   63,337; 1142,311;117,71238
 414,84; 1345,077;   69,431; 1102,434;123,48906
 415,44; 1367,267;   91,530; 1155,939;119,85397
 416,03; 1377,319;   76,637; 1161,173;119,92978
 416,62; 1421,131;   76,138; 1168,687;123,10598
 417,21; 1418,900;   75,334; 1158,843;124,00133
 417,80; 1425,224;   65,037; 1162,871;123,89738
 418,39; 1453,144;   78,440; 1179,201;124,88664
 418,98; 1428,895;   55,634; 1143,405;126,24544
 419,58; 1457,691;   64,033; 1142,067;129,27777
 420,17; 1437,205;   52,735; 1164,540;124,52446
 420,76; 1492,219;   72,537; 1192,873;126,71928
 421,35; 1469,511;   60,236; 1155,197;128,70543
 421,94; 1513,244;   88,340; 1223,501;125,52435
 422,53; 1517,446;   61,540; 1195,320;128,41166
 423,12; 1518,234;   64,039; 1190,766;129,06372
 423,71; 1498,610;   60,835; 1162,138;130,55218
 424,30; 1531,416;   85,236; 1210,695;128,49692
 424,90; 1489,228;   39,438; 1163,809;128,94237
 425,49; 1549,043;   70,140; 1216,242;129,03765
 426,08; 1545,543;   80,240; 1209,641;129,74151
 426,67; 1509,612;   57,436; 1168,257;130,72997
 427,26; 1566,564;   60,343; 1230,391;128,73157
 427,85; 1567,229;   63,238; 1209,968;131,15477
 428,44; 1586,559;   68,442; 1218,093;132,05020
 429,03; 1612,155;   85,341; 1233,155;133,01924
 429,62; 1597,254;   78,941; 1240,296;130,73634
 430,21; 1606,671;   81,443; 1277,807;127,48863
 430,80; 1602,585;   70,445; 1235,381;131,52140
 431,39; 1605,473;   53,344; 1246,926;130,03957
 431,99; 1596,410;   78,535; 1206,838;134,52726
 432,58; 1613,734;   82,639; 1251,166;131,02784
 433,17; 1613,508;   69,735; 1238,319;132,10629
 433,76; 1676,999;   71,347; 1288,314;131,93888
 434,35; 1698,083;   88,245; 1292,462;133,68338
 434,94; 1664,712;   70,849; 1318,887;127,70952
 435,53; 1672,267;   78,643; 1278,669;132,79909
 436,12; 1649,172;   70,044; 1294,267;128,99026
 436,71; 1669,848;   87,740; 1303,239;130,16117
 437,30; 1662,652;   76,941; 1299,177;129,73852
 437,89; 1716,682;   76,245; 1320,802;131,80885
 438,48; 1684,863;   65,942; 1305,731;130,58034
 439,07; 1707,732;   95,238; 1347,147;128,80289
 439,66; 1736,704;   83,648; 1375,711;127,93928
 440,25; 1695,172;   85,844; 1390,567;123,34637
 440,84; 1724,417;   79,850; 1387,984;125,71852
 441,43; 1750,055;   78,054; 1440,985;122,67685
 442,02; 1740,521;   79,650; 1411,022;124,74884
 442,61; 1732,873;   93,344; 1397,226;125,74212
 443,20; 1766,416;   94,249; 1446,625;123,64665
 443,79; 1759,693;   74,546; 1412,957;125,90657
 444,38; 1784,907;   84,248; 1461,789;123,45612
 444,97; 1816,088;   84,146; 1466,359;125,30206
 445,56; 1839,691;  101,846; 1477,038;126,37110
 446,15; 1867,429;   81,651; 1522,539;123,93593
 446,74; 1839,774;   58,644; 1462,286;126,89352
 447,33; 1922,593;   82,646; 1538,357;126,39510
 447,92; 1955,427;   78,151; 1570,720;125,77482
 448,51; 1960,389;   89,746; 1586,019;125,02017
 449,10; 2024,386;   92,045; 1608,840;127,39628
 449,69; 2039,924;   73,950; 1627,741;126,52752
 450,28; 2091,703;   66,948; 1608,251;131,36641
 450,87; 2135,201;   78,647; 1656,333;130,35260
 451,46; 2199,709;   96,048; 1702,208;130,97454
 452,05; 2223,417;   70,950; 1715,384;130,89408
 452,64; 2317,723;   70,850; 1725,182;135,81753
 453,23; 2397,834;  113,752; 1794,936;135,86148
 453,82; 2431,326;   83,451; 1800,660;136,72617
 454,40; 2458,022;   65,450; 1786,682;139,00350
 454,99; 2591,845;  101,253; 1871,891;140,66076
 455,58; 2565,997;   69,747; 1832,095;141,64344
 456,17; 2657,339;   63,852; 1873,634;143,30386
 456,76; 2702,527;   67,751; 1918,820;142,33806
 457,35; 2767,707;   78,348; 1930,490;145,20269
 457,94; 2868,649;   66,954; 1978,929;146,53411
 458,53; 2917,725;   67,350; 2010,101;146,71850
 459,12; 3010,075;   82,657; 2111,116;144,31734
 459,71; 3016,805;   58,148; 2060,071;147,79079
 460,30; 3067,004;   84,448; 2087,511;148,89976
 460,89; 3126,527;   57,551; 2129,920;148,09023
 461,48; 3177,949;   75,954; 2173,829;147,86370
 462,06; 3263,119;   68,050; 2187,303;150,76390
 462,65; 3271,411;   48,249; 2176,527;151,44458
 463,24; 3390,466;   87,456; 2288,680;150,05328
 463,83; 3366,119;   54,450; 2229,803;152,23592
 464,42; 3480,712;   88,349; 2333,687;151,08475
 465,01; 3488,223;   73,050; 2336,482;150,88471
 465,60; 3530,622;   64,050; 2384,322;149,40366
 466,19; 3612,249;   73,354; 2462,829;148,10348
 466,77; 3661,029;   81,551; 2462,939;150,31058
 467,36; 3648,474;   69,457; 2459,256;149,76223
 467,95; 3682,330;   79,551; 2466,098;150,96197
 468,54; 3700,853;   71,954; 2513,866;148,60891
 469,13; 3724,833;   69,452; 2535,977;148,19963
 469,72; 3782,260;   67,555; 2582,723;147,69208
 470,31; 3799,261;   87,855; 2629,242;146,03860
 470,90; 3772,219;   76,750; 2652,044;143,49695
 471,48; 3767,576;   32,057; 2671,875;141,50667
 472,07; 3851,798;  125,747; 2686,454;145,50867
 472,66; 3811,742;   67,853; 2748,412;139,66821
 473,25; 3784,629;   68,351; 2723,339;139,97343
 473,84; 3799,856;   55,955; 2766,545;138,12127
 474,43; 3832,889;   55,459; 2843,049;135,50882
 475,01; 3846,054;   69,254; 2885,926;134,08734
 475,60; 3808,458;   49,755; 2882,364;132,69404
 476,19; 3871,882;   74,158; 2956,932;131,73851
 476,78; 3859,374;   71,057; 2964,456;130,92962
 477,37; 3872,858;   59,355; 2945,364;132,13761
 477,95; 3884,364;   75,656; 3018,661;129,41558
 478,54; 3888,045;   63,253; 3023,691;129,19685
 479,13; 3896,445;   56,253; 3070,291;127,41023
 479,72; 3979,551;   81,154; 3090,147;129,55818
 480,31; 4034,791;   63,459; 3167,468;127,94205
 480,89; 4028,854;   60,254; 3171,026;127,57605
 481,48; 4037,398;   46,260; 3214,084;125,98990
 482,07; 4145,753;   61,654; 3233,866;128,74609
 482,66; 4127,046;   52,853; 3253,650;127,28682
 483,25; 4228,398;   78,960; 3319,884;128,03257
 483,83; 4259,155;   59,954; 3325,385;128,59561
 484,42; 4354,649;   54,354; 3355,129;130,28140
 485,01; 4402,180;   65,958; 3400,413;130,04289
 485,60; 4458,326;   73,764; 3490,590;128,32265
 486,18; 4480,864;   66,956; 3490,761;128,91818
 486,77; 4548,534;   67,252; 3519,736;129,79875
 487,36; 4627,327;   58,464; 3561,750;130,41650
 487,95; 4690,804;   59,161; 3640,781;129,31696
 488,53; 4720,203;   54,461; 3642,522;130,03517
 489,12; 4768,422;   50,563; 3722,252;128,49286
 489,71; 4745,712;   38,062; 3680,357;129,24953
 490,30; 4786,601;   61,460; 3742,503;128,36417
 490,88; 4847,504;   87,561; 3859,141;126,20555
 491,47; 4878,123;   60,663; 3867,512;126,54718
 492,06; 4880,018;   62,563; 3920,615;124,86757
 492,65; 4838,407;   59,161; 3947,060;122,92618
 493,23; 4882,498;   54,860; 3982,825;122,90430
 493,82; 4841,344;   65,853; 4018,031;120,83189
 494,41; 4856,809;   51,361; 4066,179;119,69279
 494,99; 4827,957;   73,655; 4126,945;117,29488
 495,58; 4860,000;   86,060; 4224,403;115,35874
 496,17; 4778,565;   56,356; 4198,681;113,99902
 496,76; 4790,963;   65,356; 4276,761;112,20975
 497,34; 4779,577;   54,557; 4305,235;111,15920
 497,93; 4740,776;   66,057; 4350,675;109,10468
 498,52; 4671,693;   60,059; 4454,387;104,94516
 499,10; 4677,813;   75,862; 4533,217;103,24399
 499,69; 4610,595;   55,360; 4537,006;101,64202
 500,28; 4558,991;   37,959; 4592,068;99,27370
 500,86; 4544,910;   62,862; 4698,539;96,68594
 501,45; 4492,010;   53,462; 4730,438;94,90208
 502,04; 4440,512;   53,362; 4813,958;92,15548
 502,62; 4438,266;   70,956; 4856,181;91,26655
 503,21; 4395,968;   57,856; 4939,699;88,86217
 503,80; 4422,514;   69,662; 5015,577;88,00903
 504,38; 4405,597;   58,460; 5081,425;86,54524
 504,97; 4367,614;   49,962; 5122,776;85,11354
 505,56; 4440,888;   70,859; 5194,989;85,28334
 506,14; 4405,028;   64,064; 5263,709;83,48578
 506,73; 4373,033;   23,565; 5292,507;82,54918
 507,32; 4456,237;   62,865; 5376,045;82,68819
 507,90; 4457,499;   70,860; 5443,284;81,65101
 508,49; 4456,234;   58,865; 5500,366;80,81170
 509,08; 4489,225;   67,264; 5571,931;80,33113
 509,66; 4522,600;   69,960; 5677,644;79,40248
 510,25; 4598,406;   63,561; 5737,400;79,92550
 510,83; 4657,633;   45,165; 5855,607;79,38240
 511,42; 4651,361;   61,968; 5895,913;78,66705
 512,01; 4676,230;   59,164; 5980,328;77,97565
 512,59; 4768,414;   46,562; 6041,676;78,76166
 513,18; 4750,109;   59,961; 6114,379;77,46654
 513,77; 4771,673;   42,257; 6171,797;77,15776
 514,35; 4785,217;   37,763; 6190,255;77,16311
 514,94; 4858,313;   58,662; 6323,517;76,61232
 515,52; 4892,842;   48,166; 6358,342;76,77561
 516,11; 4964,632;   80,665; 6474,047;76,39098
 516,69; 4891,792;   41,959; 6446,727;75,72223
 517,28; 4892,881;   83,358; 6541,973;74,46679
 517,87; 4909,579;   45,558; 6604,054;74,16367
 518,45; 4923,783;   74,858; 6626,192;74,01432
 519,04; 4927,586;   54,258; 6707,970;73,24224
 519,62; 4948,818;   55,863; 6774,114;72,83078
 520,21; 4925,543;   24,466; 6828,002;72,03721
 520,79; 4938,557;   52,068; 7000,875;70,32126
 521,38; 4908,401;   52,960; 6995,363;69,93892
 521,97; 4920,260;   43,068; 7141,554;68,70750
 522,55; 4882,487;   67,759; 7195,230;67,55171
 523,14; 4848,188;   26,759; 7180,289;67,39930
 523,72; 4886,002;   77,561; 7383,422;65,81622
 524,31; 4784,933;   71,665; 7406,107;64,26212
 524,89; 4793,056;   48,468; 7526,815;63,44434
 525,48; 4802,847;   21,666; 7603,580;63,06034
 526,06; 4786,630;   56,264; 7633,128;62,43171
 526,65; 4887,977;   72,370; 7803,105;62,29170
 527,23; 4971,616;   46,262; 7840,596;63,19146
 527,82; 5141,652;   37,967; 7905,978;64,86627
 528,41; 5345,946;   67,366; 8041,021;66,20026
 528,99; 5501,434;   66,365; 8108,167;67,58522
 529,58; 5720,915;   42,562; 8168,736;69,87733
 530,16; 5993,309;   49,461; 8315,379;71,90789
 530,75; 6303,229;   73,964; 8417,069;74,66363
 531,33; 6475,046;   45,566; 8440,980;76,58324
 531,92; 6709,899;   48,560; 8567,344;78,19590
 532,50; 7007,072;   87,770; 8706,468;80,28246
 533,09; 7134,938;   65,665; 8807,204;80,86989
 533,67; 7287,285;   63,458; 8952,011;81,27113
 534,26; 7406,396;   65,760; 9007,665;82,09253
 534,84; 7561,307;   68,461; 9127,061;82,71528
 535,42; 7665,029;   61,564; 9205,969;83,14883
 536,01; 7797,018;   79,263; 9330,215;83,42661
 536,59; 7879,043;   43,366; 9482,202;83,01529
 537,18; 7988,396;   77,360; 9568,605;83,35087
 537,76; 8101,887;   56,972; 9764,700;82,87124
 538,35; 8233,659;   59,368; 9892,694;83,12844
 538,93; 8335,931;   72,664; 9941,828;83,72813
 539,52; 8372,177;   57,370;10111,405;82,70119
 540,10; 8513,468;   63,269;10309,029;82,47508
 540,69; 8607,424;   68,763;10444,071;82,29790
 541,27; 8670,413;   58,262;10514,917;82,36048
 541,85; 8800,842;   47,366;10658,783;82,49111
 542,44; 8873,898;   56,460;10765,484;82,33652
 543,02; 9029,468;   80,369;10952,729;82,31054
 543,61; 9108,051;   77,067;11102,218;81,91256
 544,19; 9168,141;   55,066;11264,023;81,30172
 544,78; 9197,444;   62,766;11296,562;81,31427
 545,36; 9391,066;   77,469;11521,011;81,38737
 545,94; 9436,929;   54,564;11563,069;81,52548
 546,53; 9543,085;   52,771;11724,882;81,30761
 547,11; 9575,462;   90,668;11879,873;80,45321
 547,70; 9635,795;   75,860;11954,706;80,47865
 548,28; 9727,935;   47,965;12093,066;80,36437
 548,86; 9860,234;   81,365;12327,767;79,85096
 549,45; 9945,360;   33,768;12364,953;80,37826
 550,03;10036,853;   76,467;12507,537;80,12492
 550,62;10116,643;   63,566;12662,842;79,79091
 551,20;10291,251;   61,467;12808,418;80,25279
 551,78;10281,728;   61,164;12952,850;79,28027
 552,37;10390,329;   55,864;13112,469;79,15124
 552,95;10438,433;   56,765;13214,547;78,90135
 553,54;10523,333;   49,965;13393,207;78,49193
 554,12;10572,954;   67,167;13498,797;78,21677
 554,70;10754,862;   67,568;13736,973;78,18405
 555,29;10845,336;   61,965;13856,285;78,17254
 555,87;10869,074;   60,170;13987,786;77,60771
 556,45;10975,611;   57,162;14154,058;77,45286
 557,04;11110,049;   43,667;14376,600;77,20947
 557,62;11207,249;   68,867;14525,499;77,04687
 558,20;11285,485;   42,671;14799,940;76,18492
 558,79;11389,057;  100,368;14905,875;76,24655
 559,37;11418,650;   49,867;15000,418;76,04257
 559,95;11561,464;   46,669;15169,691;76,14083
 560,54;11652,561;   71,768;15324,613;75,92546
 561,12;11781,545;   50,866;15485,562;76,00201
 561,70;11877,665;   50,369;15679,551;75,67444
 562,29;12003,159;   61,768;15810,994;75,82208
 562,87;12120,960;   73,168;16023,953;75,53103
 563,45;12295,060;   71,068;16194,754;75,81388
 564,04;12369,315;   54,362;16227,195;76,14592
 564,62;12502,363;   37,769;16438,332;76,00102
 565,20;12569,910;   59,962;16715,838;75,10832
 565,78;12780,636;   70,765;16797,326;75,98616
 566,37;12880,842;   71,066;17011,283;75,61754
 566,95;12972,068;   52,969;17124,330;75,67703
 567,53;13237,012;   67,262;17308,857;76,38359
 568,12;13120,234;   62,265;17367,766;75,45560
 568,70;13421,531;   85,264;17565,889;76,29171
 569,28;13502,465;   61,069;17745,252;76,00801
 569,86;13644,949;   67,767;17910,758;76,09253
 570,45;13831,270;   78,569;18124,689;76,20863
 571,03;13766,411;   53,962;18259,898;75,31856
 571,61;13950,878;   46,571;18424,824;75,65630
 572,19;13933,019;   54,263;18395,773;75,66855
 572,78;14175,057;   70,668;18668,975;75,83695
 573,36;14233,329;   84,264;18797,668;75,60925
 573,94;14321,127;   44,064;18892,750;75,74567
 574,52;14358,191;   54,559;19030,768;75,37666
 575,11;14411,025;   37,264;19159,830;75,16649
 575,69;14552,247;   53,566;19268,680;75,45457
 576,27;14584,004;   47,161;19391,381;75,14825
 576,85;14688,229;   43,264;19549,668;75,07773
 577,44;14755,212;   30,262;19814,158;74,42897
 578,02;14755,293;   32,159;19753,887;74,65438
 578,60;14852,126;   50,464;20073,791;73,92209
 579,18;14895,722;   51,963;20160,752;73,81727
 579,76;14977,330;   40,264;20300,129;73,72737
 580,35;14906,871;   60,170;20436,707;72,86175
 580,93;15151,455;   59,667;20641,557;73,32557
 581,51;15194,372;   24,770;20697,168;73,38095
 582,09;15199,417;   58,663;20755,756;73,15401
 582,67;15354,150;   49,567;20971,318;73,15154
 583,26;15488,161;   28,568;21227,014;72,92796
 583,84;15555,828;   14,164;21413,709;72,62614
 584,42;15655,932;   48,064;21513,287;72,71235
 585,00;15858,446;   81,366;21772,180;72,73623
 585,58;15923,049;   25,167;21912,299;72,63575
 586,17;15892,702;   46,761;21948,521;72,35008
 586,75;15987,144;    6,666;22026,902;72,57178
 587,33;16138,651;   47,767;22191,678;72,66505
 587,91;16194,943;   74,866;22390,201;72,23767
 588,49;16304,912;   63,962;22349,758;72,87579
 589,07;16375,256;   45,468;22403,215;73,03861
 589,65;16277,447;   28,267;22444,439;72,48865
 590,24;16371,211;   42,562;22447,799;72,87872
 590,82;16370,106;   28,261;22484,160;72,77306
 591,40;16378,528;   41,464;22520,209;72,67783
 591,98;16335,292;   45,759;22558,227;72,35783
 592,56;16314,606;   61,161;22699,961;71,79464
 593,14;16194,492;   43,359;22728,928;71,19563
 593,72;16268,934;   29,765;22889,107;71,03953
 594,30;16025,993;   36,759;22797,486;70,24922
 594,89;15833,030;   41,364;22862,428;69,19777
 595,47;15621,303;   38,961;22922,623;68,09374
 596,05;15218,448;   30,267;23003,799;66,11165
 596,63;14837,448;   31,167;23056,199;64,30515
 597,21;14467,442;   36,766;23145,441;62,44701
 597,79;13904,548;   35,467;23166,039;59,95996
 598,37;13393,271;   36,669;23222,748;57,60612
 598,95;12943,243;   50,766;23305,301;55,44070
 599,53;12393,673;   46,757;23207,996;53,30853
 600,11;12246,032;   48,665;23341,947;52,36431
 600,70;11857,823;   57,363;23315,111;50,73776
 601,28;11775,628;   38,564;23424,809;50,18790
 601,86;11792,644;   61,766;23355,102;50,36152
 602,44;11990,906;   23,661;23449,660;51,08531
 603,02;12238,265;   38,656;23576,521;51,82972
 603,60;12572,282;   54,858;23663,232;53,02112
 604,18;12781,920;   69,263;23594,734;54,03784
 604,76;13115,117;   59,263;23642,154;55,36155
 605,34;13209,340;   27,565;23530,764;56,08502
 605,92;13415,407;   59,561;23453,719;57,09052
 606,50;13696,011;   17,662;23498,998;58,25200
 607,08;13893,047;   31,666;23394,881;59,32994
 607,66;14123,143;   39,266;23561,643;59,87438
 608,24;14257,250;   46,067;23522,059;60,53496
 608,82;14316,025;   26,164;23532,031;60,79274
 609,40;14303,046;   46,466;23471,021;60,86169
 609,98;14253,530;   18,864;23505,928;60,60641
 610,56;14367,502;   43,861;23497,662;61,07173
 611,14;14321,036;   30,765;23481,086;60,93849
 611,72;14286,234;   42,665;23572,467;60,53417
 612,30;14236,416;   24,962;23468,496;60,61993
 612,88;14285,987;   60,659;23517,730;60,64409
 613,46;14076,411;   21,862;23505,697;59,84776
 614,04;14013,762;   30,068;23461,873;59,67826
 614,62;13784,004;   41,561;23489,982;58,60711
 615,20;13672,355;   52,768;23402,416;58,32888
 615,78;13483,769;   25,569;23463,430;57,42077
 616,36;13327,728;   41,364;23400,150;56,87951
 616,94;13084,843;    7,666;23272,242;56,21068
 617,52;12846,055;   24,067;23373,656;54,91312
 618,10;12667,590;   63,559;23336,107;54,15836
 618,68;12411,142;   17,966;23253,184;53,33789
 619,26;12160,357;   39,268;23398,834;51,88919
 619,84;11860,920;   18,963;23277,133;50,91526
 620,42;11756,133;   31,165;23313,506;50,35992
 621,00;11667,434;   28,865;23209,607;50,20792
 621,58;11641,596;   38,760;23216,406;50,06046
 622,16;11642,978;   49,270;23335,164;49,78854
 622,74;11628,543;   47,066;23327,742;49,74717
 623,32;11638,940;   42,166;23291,223;49,88062
 623,90;11790,479;   66,971;23311,484;50,43560
 624,48;11843,911;   32,662;23196,598;50,98982
 625,05;12002,511;   34,562;23105,098;51,87547
 625,63;12149,211;   52,962;23188,799;52,28360
 626,21;12236,416;   38,262;23117,596;52,85315
 626,79;12429,150;   53,967;23219,719;53,42017
 627,37;12443,213;   28,162;23090,717;53,83207
 627,95;12591,355;   72,768;23200,215;54,12871
 628,53;12630,434;   49,365;23176,607;54,39935
 629,11;12560,089;   48,259;23043,449;54,41064
 629,69;12653,763;   53,369;23256,932;54,30370
 630,27;12646,320;   80,763;23105,434;54,57432
 630,84;12530,110;   43,862;23021,197;54,34159
 631,42;12556,354;   54,367;23319,656;53,73665
 632,00;12503,691;   45,459;23125,768;53,97775
 632,58;12413,924;   50,263;23105,172;53,62702
 633,16;12406,477;   49,870;23096,906;53,61473
 633,74;12259,131;   56,264;23018,488;53,14323
 634,32;12173,904;   45,661;23007,842;52,81834
 634,90;12226,275;   51,970;23195,746;52,60293
 635,47;12106,499;   38,860;23035,645;52,47533
 636,05;12066,104;   37,461;22989,342;52,40810
 636,63;12076,533;   45,965;23104,807;52,17334
 637,21;12013,830;   67,464;23150,529;51,75381
 637,79;12075,038;   71,465;23192,904;51,91534
 638,37;11907,961;   54,055;23070,883;51,50104
 638,94;11961,736;   33,265;23100,686;51,71134
 639,52;12014,437;   41,665;23195,285;51,71015
 640,10;12024,658;   64,264;23215,900;51,66112
 640,68;12034,839;   54,164;23175,334;51,81691
 641,26;12067,521;   35,864;23250,268;51,82841
 641,84;12023,802;   39,164;23235,002;51,66719
 642,41;12009,583;   28,264;23192,936;51,72238
 642,99;12016,563;   48,464;23145,568;51,81645
 643,57;11962,345;   22,064;23158,402;51,60834
 644,15;11981,826;   27,064;23178,035;51,63827
 644,73;11947,308;   37,564;23277,568;51,24674
 645,30;11950,988;   55,264;23230,303;51,32990
 645,88;11950,170;   44,964;23362,635;51,05658
 646,46;11980,751;   59,264;23447,568;50,97200
 647,04;11945,432;   51,864;23367,902;51,01024
 647,61;12010,313;   46,564;23396,336;51,23711
 648,19;12002,395;   61,664;23433,369;51,09054
 648,77;12038,476;   26,264;23442,002;51,29973
 649,35;12043,057;   51,064;23590,137;50,94505
 649,92;12118,938;   42,464;23596,070;51,27229
 650,50;12165,219;   30,064;23551,104;51,59276
 651,08;12174,100;   39,964;23450,537;51,83186
 651,66;12297,381;   21,864;23534,770;52,20757
 652,23;12338,563;   39,064;23561,004;52,28947
 652,81;12432,844;   36,464;23644,137;52,50996
 653,39;12517,925;   56,164;23647,170;52,82420
 653,97;12615,306;   37,065;23882,504;52,74904
 654,54;12678,387;   23,565;23823,137;53,17248
 655,12;12776,269;   30,965;23831,971;53,54943
 655,70;12889,850;   42,065;23962,805;53,70981
 656,28;12911,631;   32,765;23947,037;53,85431
 656,85;12922,611;   44,065;24051,070;53,64495
 657,43;12866,793;   -1,035;23831,305;53,99314
 658,01;13010,774;   21,465;24078,539;53,99372
 658,58;13140,955;   55,165;24234,371;54,12002
 659,16;13134,736;   51,965;24154,105;54,28054
 659,74;13155,018;   59,465;24338,039;53,93872
 660,32;13190,198;   71,665;24327,672;54,08365
 660,89;13137,180;   34,265;24347,305;53,89254
 661,47;13169,861;   51,665;24464,939;53,73387
 662,05;13207,242;   25,365;24587,373;53,66775
 662,62;13288,123;   59,665;24584,006;53,94012
 663,20;13293,604;   80,665;24740,139;53,58160
 663,78;13464,186;   47,965;24902,773;53,97837
 664,35;13476,467;   52,465;24921,006;53,97985
 664,93;13539,848;   64,465;25123,539;53,77446
 665,51;13586,529;   49,565;25170,973;53,88617
 666,08;13592,210;   30,165;25185,707;53,91275
 666,66;13829,491;   47,465;25667,539;53,79386
 667,23;13874,173;   51,765;25732,773;53,82346
 667,81;14080,054;   65,865;25889,307;54,26925
 668,39;14162,135;   43,265;26047,141;54,29525
 668,96;14352,516;   54,665;26309,074;54,45885
 669,54;14459,497;   38,765;26408,408;54,68687
 670,12;14714,178;   51,165;26808,740;54,79948
 670,69;14933,859;   64,165;26950,674;55,30541
 671,27;15019,341;   25,565;27096,008;55,38800
 671,84;15162,422;   40,665;27105,240;55,87288
 672,42;15340,803;   66,265;27253,875;56,18198
 673,00;15458,884;   57,165;27531,408;56,05875
 673,57;15488,965;   59,965;27276,441;56,68992
 674,15;15632,646;   64,065;27613,475;56,51149
 674,72;15511,127;   58,565;27536,209;56,23685
 675,30;15659,309;   69,466;27513,541;56,80586
 675,88;15738,790;   36,266;27573,176;57,02355
 676,45;15699,871;   59,466;27677,309;56,63152
 677,03;15672,952;   67,866;27525,043;56,83427
 677,60;15830,733;   41,466;27770,576;56,94113
 678,18;15868,714;   59,466;27877,510;56,83091
 678,76;15773,396;   40,766;27809,143;56,65664
 679,33;15826,776;   57,666;27813,176;56,81434
 679,91;15805,458;   44,266;27813,311;56,75814
 680,48;15856,739;   28,766;27740,242;57,11703
 681,06;15821,021;   50,866;27735,176;56,96423
 681,63;15741,001;   37,566;27736,209;56,69388
 682,21;15759,183;   67,966;27797,543;56,58657
 682,78;15642,863;   20,566;27459,576;56,93462
 683,36;15768,045;   46,966;27565,510;57,12904
 683,93;15859,826;   30,466;27450,645;57,72887
 684,51;15849,907;   26,166;27477,277;57,64335
 685,08;16058,088;   38,966;27733,711;57,84174
 685,66;16062,169;   53,066;27694,045;57,91800
 686,24;16113,051;   33,766;27796,578;57,91663
 686,81;16232,832;   57,666;27899,910;58,09577
 687,39;16292,913;   38,866;27807,844;58,53311
 687,96;16399,693;   54,166;27850,479;58,80466
 688,54;16530,975;   30,866;27984,811;59,02605
 689,11;16561,256;   26,966;28043,545;59,01609
 689,69;16662,438;   29,666;28019,279;59,42480
 690,26;16867,818;   59,466;28289,313;59,54107
 690,84;16806,400;   50,066;28239,846;59,44117
 691,41;16883,881;   35,966;28403,879;59,39074
 691,98;16970,563;   31,466;28427,912;59,65217
 692,56;16982,543;   32,866;28437,445;59,67234
 693,13;17118,824;   64,866;28655,080;59,64963
 693,71;17078,406;   24,466;28657,912;59,55951
 694,28;17148,787;   41,966;28715,945;59,65974
 694,86;17347,969;   47,266;28928,879;59,90213
 695,43;17307,850;   61,366;29100,912;59,38965
 696,01;17413,529;   36,266;29145,547;59,69664
 696,58;17539,012;   42,167;29083,879;60,24729
 697,16;17594,092;   38,067;29126,414;60,35415
 697,73;17760,574;   63,467;29338,246;60,45172
 698,30;17675,955;   51,867;29223,980;60,41416
 698,88;17730,236;   40,467;29558,613;59,92846
 699,45;17910,316;   35,367;29765,848;60,12331
 700,03;18111,799;   56,067;29750,980;60,80412
 700,60;18224,180;   56,267;29850,613;60,97772
 701,18;18386,561;   61,867;29963,947;61,28234
 701,75;18596,242;   74,367;30094,682;61,69781
 702,32;18549,523;   50,367;29901,914;61,97051
 702,90;18754,305;   52,467;30254,148;61,92317
 703,47;18824,086;   51,367;30428,881;61,79808
 704,05;18991,266;   67,767;30546,715;62,08711
 704,62;19056,447;   39,867;30587,848;62,25151
 705,19;19175,328;   43,667;30586,982;62,63780
 705,77;19230,410;   29,967;30618,314;62,77045
 706,34;19314,791;   61,667;30627,049;62,98997
 706,91;19447,271;   46,367;30673,883;63,34469
 707,49;19490,053;   57,267;30976,316;62,85053
 708,06;19674,834;   66,367;31089,049;63,20687
 708,64;19522,016;   25,767;31093,582;62,75385
 709,21;19686,596;   58,167;31179,316;63,07103
 709,78;19697,078;   41,367;31281,150;62,91885
 710,36;19832,760;   61,667;31419,684;63,04956
 710,93;19876,939;   50,567;31562,416;62,91720
 711,50;19980,621;   44,467;31506,049;63,36666
 712,08;20178,102;   76,567;31925,383;63,11548
 712,65;20152,484;   73,667;31775,916;63,33562
 713,22;20236,865;   69,067;31900,250;63,35862
 713,80;20369,045;   84,167;31966,883;63,62343
 714,37;20337,727;   55,767;31827,018;63,83746
 714,94;20391,908;   53,967;31727,551;64,21105
 715,52;20614,590;   47,867;31732,984;64,90973
 716,09;20758,570;   65,467;31891,918;65,01857
 716,66;20736,352;   73,467;31935,051;64,85203
 717,23;20773,434;   66,867;31908,484;65,02988
 717,81;20863,414;   50,168;31812,018;65,52907
 718,38;20807,195;   47,468;31671,252;65,64593
 718,95;20867,477;   59,068;31618,984;65,93303
 719,53;20937,158;   56,568;31661,418;66,06768
 720,10;21054,139;   59,968;31481,252;66,81513
 720,67;20919,619;   35,768;31355,984;66,67850
 721,24;20918,000;   59,468;31256,020;66,86166
 721,82;20786,482;   49,968;31236,053;66,49284
 722,39;20931,863;   64,068;31235,885;66,94443
 722,96;20875,244;   64,968;31261,420;66,70719
 723,53;20777,326;   88,268;31151,953;66,60207
 724,11;20978,207;   61,568;31207,486;67,15692
 724,68;20894,287;   71,568;31242,020;66,80275
 725,25;20718,369;   72,768;31399,953;65,90315
 725,82;20932,551;   96,068;31564,387;66,21416
 726,40;20939,932;   62,668;31714,820;65,95843
 726,97;20966,113;   62,168;31875,354;65,70843
 727,54;21026,395;   46,968;31801,486;66,06753
 728,11;21172,174;   49,568;32045,820;66,01587
 728,69;21085,557;   39,568;31938,953;65,97616
 729,26;21177,236;   53,568;32105,088;65,90536
 729,83;21460,318;   53,268;32264,621;66,45809
 730,40;21507,000;   66,768;32291,754;66,53294
 730,97;21703,680;   44,268;32590,588;66,54950
 731,55;21827,361;   41,468;32755,820;66,59430
 732,12;21967,344;   86,268;32841,656;66,80145
 732,69;22154,424;   66,968;32889,988;67,29258
 733,26;22212,705;   55,168;32930,520;67,39863
 733,83;22353,686;   41,168;32979,055;67,74119
 734,41;22585,467;   65,468;32991,590;68,39554
 734,98;22692,049;   51,368;33155,621;68,39206
 735,55;22893,529;   43,168;33183,656;68,94998
 736,12;23011,012;   65,968;33377,289;68,88062
 736,69;23240,992;   76,968;33377,922;69,55964
 737,26;23242,973;   57,468;33552,254;69,22124
 737,84;23119,854;   70,768;33487,188;68,97533
 738,41;23226,035;   63,168;33492,422;69,28921
 738,98;23286,217;   63,569;33375,055;69,71364
 739,55;23269,398;   49,669;33377,789;69,67008
 740,12;23241,779;   62,969;33678,023;68,95366
 740,69;23236,660;   70,569;33575,656;69,14201
 741,26;23141,541;   56,269;33557,391;68,90895
 741,83;23145,822;   53,869;33719,523;68,59202
 742,41;23298,604;   56,169;33833,055;68,81166
 742,98;23375,186;   91,469;33874,590;68,92115
 743,55;23360,865;   53,569;33836,824;68,99068
 744,12;23304,746;   50,469;33859,855;68,78054
 744,69;23348,129;   59,569;33848,492;68,92365
 745,26;23313,209;   42,169;33677,723;69,18584
 745,83;23351,490;   58,769;33854,355;68,92238
 746,40;23262,371;   57,969;33844,789;68,67886
 746,97;23307,752;   44,769;33828,125;68,85930
 747,55;23348,533;   62,269;33966,957;68,68155
 748,12;23394,314;   57,869;33910,191;68,93603
 748,69;23567,297;   68,769;33877,625;69,50406
 749,26;23708,977;   65,069;33958,559;69,75944
 749,83;23728,959;   42,569;33911,992;69,93444
 750,40;23857,039;   89,669;34158,824;69,76213
 750,97;23875,721;   96,269;34144,160;69,84119
 751,54;23794,803;   40,569;33980,793;69,98844
 752,11;23916,184;   52,969;33874,727;70,55581
 752,68;23844,664;   87,869;33912,859;70,23445
 753,25;23830,445;   60,269;33774,594;70,50468
 753,82;23861,027;   65,069;33810,527;70,51603
 754,39;24007,207;   75,169;33727,160;71,11626
 754,96;23832,988;   60,069;33616,395;70,84482
 755,53;23894,570;   29,469;33796,527;70,67569
 756,10;23818,051;   64,169;33720,961;70,57678
 756,67;23828,832;   73,369;33813,395;70,40736
 757,24;23739,713;   72,769;33740,426;70,29579
 757,81;23673,994;   16,469;33677,762;70,28109
 758,38;23559,676;   54,569;33822,695;69,60738
 758,95;23577,258;   79,469;33743,426;69,80103
 759,52;23433,639;   57,469;33615,859;69,65820
 760,09;23531,619;   68,570;33306,992;70,59014
 760,66;23276,000;   59,570;33309,727;69,82352
 761,23;23212,082;   91,070;33353,961;69,50993
 761,80;23204,463;   56,270;33295,793;69,64057
 762,37;23147,145;   68,970;33167,727;69,72520
 762,94;23141,525;   70,970;33187,461;69,66486
 763,51;23241,006;   36,070;32949,793;70,50231
 764,08;23106,588;   66,270;32998,527;69,96277
 764,65;23208,770;   69,570;32798,961;70,69853
 765,22;23246,449;   54,670;32804,496;70,81497
 765,79;23260,830;   77,370;32691,928;71,08317
 766,36;23355,313;   73,170;32743,063;71,26483
 766,93;23379,693;   68,970;32551,295;71,76433
 767,50;23426,574;   89,470;32828,328;71,28258
 768,07;23503,455;   63,870;32699,262;71,82259
 768,64;23381,236;   86,470;32572,596;71,70682
 769,21;23198,318;   57,970;32359,729;71,63805
 769,78;23151,699;   78,770;32244,963;71,73037
 770,34;22984,580;   45,570;32031,195;71,71662
 770,91;23066,162;   58,470;31921,430;72,20827
 771,48;23000,143;   62,370;31836,863;72,18926
 772,05;22738,523;   66,470;31610,697;71,87386
 772,62;22522,504;   42,670;31443,029;71,59101
 773,19;22775,785;   59,370;31579,764;72,06894
 773,76;22596,367;   71,070;31506,297;71,65623
 774,33;22437,447;   74,170;31447,330;71,28156
 774,90;22102,629;   52,870;31206,064;70,77848
 775,47;22084,211;   59,970;30957,498;71,28156
 776,03;21884,393;   73,470;30984,330;70,56071
 776,60;21852,773;   55,970;30757,863;70,99498
 777,17;21841,055;   65,470;30698,098;71,08624
 777,74;21552,135;   30,870;30522,031;70,58198
 778,31;21538,617;   68,970;30582,064;70,36208
 778,88;21351,598;   30,470;30366,898;70,28226
 779,45;21358,979;   75,770;30358,131;70,28253
 780,01;21379,359;   58,370;30299,664;70,50290
 780,58;21378,842;   60,570;30177,998;70,78384
 781,15;21153,922;   38,771;29979,432;70,52333
 781,72;21148,203;   66,771;29962,266;70,51709
 782,29;21121,984;   51,771;29667,100;71,14631
 782,86;21122,365;   55,571;29617,732;71,26270
 783,42;21043,146;   56,171;29598,166;71,04116
 783,99;20971,229;   66,671;29482,100;71,06664
 784,56;20982,809;   55,171;29320,232;71,51066
 785,13;20842,490;   40,271;29247,266;71,22342
 785,70;20715,072;   49,071;29060,299;71,23449
 786,26;20600,152;   51,671;28910,732;71,20287
 786,83;20552,334;   84,371;28889,166;71,05749
 787,40;20442,314;   57,171;28783,500;70,96327
 787,97;20237,596;   43,971;28581,133;70,76255
 788,54;20201,777;   70,371;28515,268;70,77335
 789,10;20112,459;   57,971;28344,400;70,89791
 789,67;19853,639;   70,371;28245,334;70,21577
 790,24;19729,221;   51,071;28193,768;69,92276
 790,81;19396,201;   88,271;27914,400;69,38777
 791,37;19378,982;   73,671;27872,135;69,44740
 791,94;19329,764;   70,771;27886,367;69,23811
 792,51;19072,145;   46,271;27539,201;69,20279
 793,08;19010,926;   69,771;27555,234;68,91335
 793,64;18861,508;   71,271;27455,168;68,61783
 794,21;18810,488;   69,671;27250,602;68,94840
 794,78;18735,270;   53,071;27147,035;68,95336
 795,35;18684,852;   73,471;27007,969;69,09867
 795,91;18478,832;   48,071;26789,301;68,92264
 796,48;18397,014;   55,771;26710,734;68,80986
 797,05;18475,094;   57,671;26624,369;69,32522
 797,62;18420,275;   41,971;26600,701;69,19873
 798,18;18258,857;   57,471;26410,736;69,06691
 798,75;18320,037;   56,571;26279,770;69,64622
 799,32;18319,020;   60,771;26209,102;69,82568
 799,88;18259,100;   55,971;26051,535;70,02398
 800,45;18192,980;   33,971;25945,270;70,08143
 801,02;18182,863;   65,271;25880,104;70,18288
 801,58;18151,443;   90,872;25660,436;70,63308
 802,15;17957,225;   72,872;25615,270;70,01830
 802,72;17905,105;   66,172;25404,703;70,40240
 803,28;17749,088;   49,172;25288,938;70,12710
 803,85;17668,168;   41,972;25144,871;70,21578
 804,42;17619,449;   77,772;24948,004;70,53283
 804,98;17519,330;  100,672;24935,537;70,13792
 805,55;17295,611;   56,972;24702,371;69,94668
 806,12;17158,693;   83,572;24611,004;69,61643
 806,68;17058,773;   66,472;24493,738;69,56285
 807,25;17013,855;   74,972;24436,271;69,53194
 807,82;16916,137;   86,872;24407,805;69,19663
 808,38;16742,418;   73,672;24367,037;68,61440
 808,95;16695,299;   62,972;24166,971;69,00236
 809,52;16678,080;   50,272;24162,004;68,96148
 810,08;16624,961;   55,172;23994,938;69,21450
 810,65;16652,842;   77,172;24169,672;68,80012
 811,21;16602,623;   69,972;24123,404;68,73302
 811,78;16709,504;   92,472;24337,539;68,53778
 812,35;16754,885;   64,972;24173,871;69,22719
 812,91;16880,066;   90,072;24239,705;69,52484
 813,48;16824,848;   68,172;24202,738;69,43019
 814,04;16864,430;   64,172;24088,373;69,93056
 814,61;16748,010;   77,572;24176,006;69,17644
 815,18;16682,092;   67,772;23892,539;69,73550
 815,74;16734,373;   69,772;23709,172;70,49503
 816,31;16696,754;   83,372;23614,406;70,60200
 816,87;16520,234;   43,272;23489,641;70,27511
 817,44;16553,615;   76,972;23452,273;70,48740
 818,00;16350,297;   43,272;23159,506;70,54361
 818,57;16349,979;   71,872;23076,340;70,76063
 819,14;16333,859;   82,872;22924,273;71,14707
 819,70;16115,940;   72,672;22792,707;70,61287
 820,27;15900,422;   62,972;22691,941;69,98750
 820,83;15853,903;   70,072;22541,373;70,23995
 821,40;15778,584;   98,072;22431,908;70,20967
 821,96;15641,766;   75,272;22315,541;69,99238
 822,53;15507,847;   70,973;22257,574;69,57746
 823,09;15447,728;   81,073;22073,309;69,87309
 823,66;15175,009;   68,173;21862,541;69,31532
 824,22;15115,090;   77,173;21851,674;69,06205
 824,79;15057,471;   75,473;21561,408;69,72933
 825,35;14976,353;   65,173;21648,041;69,08804
 825,92;14857,133;   75,173;21398,875;69,32173
 826,48;14834,215;   87,673;21501,309;68,86520
 827,05;14693,296;   89,573;21448,242;68,37375
 827,61;14562,677;   75,273;21249,076;68,42136
 828,18;14617,658;   60,873;21191,209;68,89046
 828,74;14620,739;   91,673;21053,543;69,31188
 829,31;14535,620;   83,373;21002,176;69,08735
 829,87;14540,001;   73,073;20733,709;70,02170
 830,44;14405,782;   85,173;20631,443;69,69931
 831,00;14333,464;   91,273;20673,977;69,19495
 831,57;14307,245;  101,573;20631,609;69,19458
 832,13;14247,326;   72,073;20323,344;69,99686
 832,69;14191,807;   58,173;20309,477;69,79123
 833,26;14235,088;   85,473;20322,711;69,91871
 833,82;14187,369;   93,073;20197,744;70,10458
 834,39;14083,150;   78,773;20137,477;69,81696
 834,95;14004,031;   57,173;19959,410;70,07684
 835,52;13886,313;   87,873;19851,744;69,81648
 836,08;13896,094;   95,573;19951,877;69,50196
 836,64;13777,575;   76,273;19800,711;69,46359
 837,21;13605,557;   88,673;19552,443;69,44638
 837,77;13537,638;   91,873;19491,777;69,30841
 838,34;13444,219;   67,473;19470,012;68,94328
 838,90;13277,000;   64,473;19306,045;68,66657
 839,46;13210,681;   83,873;19312,479;68,26708
 840,03;13179,962;   76,173;19300,811;68,16143
 840,59;13107,343;   85,873;19175,645;68,21176
 841,16;13013,624;  105,173;19156,578;67,75590
 841,72;12985,405;   59,373;18965,512;68,36950
 842,28;12894,087;   77,873;18857,246;68,24623
 842,85;12880,268;   95,573;18812,578;68,30524
 843,41;12857,949;  105,374;18740,813;68,43185
 843,97;12775,431;   89,174;18686,846;68,21422
 844,54;12723,812;  104,774;18624,979;68,13660
 845,10;12663,293;   89,174;18523,713;68,20957
 845,67;12701,874;   68,774;18413,445;68,86523
 846,23;12631,755;   78,674;18361,080;68,66208
 846,79;12644,136;   90,474;18265,613;69,07051
 847,36;12417,617;   55,774;18179,047;68,20977
 847,92;12492,898;   84,874;18034,680;69,12623
 848,48;12479,779;   41,874;18039,213;69,10969
 849,04;12362,660;   62,374;17949,447;68,76634
 849,61;12287,242;   56,274;17918,580;68,47362
 850,17;12304,623;   68,174;17819,514;68,93254
 850,73;12176,404;   71,474;17764,848;68,41505
 851,30;12024,085;   46,074;17669,881;67,96495
 851,86;11854,166;   75,874;17597,914;67,21987
 852,42;11866,947;   51,174;17568,348;67,45251
 852,99;11886,028;   79,274;17583,082;67,45249
 853,55;11810,710;   83,174;17542,514;67,17056
 854,11;11624,891;   70,074;17432,049;66,55243
 854,67;11634,472;   85,474;17420,881;66,62086
 855,24;11546,453;   51,874;17213,414;66,97872
 855,80;11434,435;   76,874;17244,848;66,15551
 856,36;11306,516;   80,574;17175,881;65,66680
 856,92;11197,196;   54,474;17027,215;65,65069
 857,49;11246,878;   81,274;17048,248;65,80787
 858,05;11193,659;   67,274;16968,482;65,83189
 858,61;11126,240;   65,774;17003,316;65,30148
 859,17;11077,621;   77,374;16904,250;65,37308
 859,74;10981,402;   82,074;16836,883;65,05194
 860,30;11017,283;   93,074;16663,016;65,92787
 860,86;10933,465;   72,074;16692,350;65,35024
 861,42;10945,146;   74,674;16545,883;65,99680
 861,99;10836,728;   54,674;16506,717;65,53626
 862,55;10773,508;   66,374;16393,051;65,58061
 863,11;10809,289;   75,174;16437,283;65,60349
 863,67;10727,671;   61,274;16290,117;65,72494
 864,23;10711,252;   80,175;16199,351;65,95298
 864,80;10677,933;   69,175;16081,384;66,25418
 865,36;10663,014;   71,875;16120,817;65,99275
 865,92;10605,295;   96,175;16088,751;65,71249
 866,48;10510,576;   67,375;15987,384;65,59796
 867,04;10282,558;   60,675;15891,418;64,56982
 867,60;10311,539;   99,375;15884,451;64,69506
 868,17;10230,020;   93,675;15884,685;64,19061
 868,73;10170,601;   82,775;15672,618;64,70768
 869,29;10044,182;   59,475;15470,151;64,79084
 869,85; 9904,363;  100,475;15369,685;64,20691
 870,41; 9824,145;   80,575;15293,418;64,04832
 870,97; 9765,325;   92,975;15232,252;63,88912
 871,54; 9596,707;   84,175;15178,686;63,01981
 872,10; 9552,188;   84,275;15055,419;63,24108
 872,66; 9426,369;   66,775;14910,652;63,05357
 873,22; 9369,050;   81,975;14890,586;62,71402
 873,78; 9232,231;   65,275;14742,419;62,45736
 874,34; 9187,013;   95,075;14662,652;62,41215
 874,90; 9173,612;  109,775;14536,053;62,82866
 875,46; 9120,713;   96,375;14412,952;63,03419
 876,03; 9092,513;   86,475;14363,353;63,08128
 876,59; 8970,112;   64,475;14153,253;63,21086
 877,15; 8985,213;  101,475;14166,853;63,16032
 877,71; 8916,713;   78,275;14064,652;63,19319
 878,27; 8844,213;   95,675;13910,553;63,32693
 878,83; 8835,213;  114,275;13971,753;62,93308
 879,39; 8800,713;   91,075;14082,753;62,24870
 879,95; 8753,813;   86,275;13964,253;62,45533
 880,51; 8704,612;   75,175;13927,253;62,29706
 881,07; 8788,013;   82,375;13978,753;62,64681
 881,63; 8818,013;   92,575;13971,253;62,86937
 882,19; 8731,313;   82,675;13921,553;62,49522
 882,75; 8763,313;   86,275;14019,553;62,27564
 883,31; 8773,713;   95,575;14187,853;61,58080
 883,88; 8731,912;   96,375;14174,353;61,34075
 884,44; 8683,612;   76,175;14175,753;61,04748
 885,00; 8735,013;  106,075;14266,952;60,93505
 885,56; 8671,713;  101,675;14299,452;60,36183
 886,12; 8697,412;  109,875;14421,152;60,00539
 886,68; 8670,813;   90,775;14436,753;59,80797
 887,24; 8706,213;  102,475;14574,952;59,44897
 887,80; 8677,013;   86,975;14671,753;58,89728
 888,36; 8691,912;  106,275;14715,652;58,76799
 888,92; 8715,513;   98,975;14773,353;58,71825
 889,48; 8841,713;   99,575;14973,853;58,77353
 890,04; 8749,813;   95,275;14803,053;58,84327
 890,60; 8917,112;  117,475;15014,652;59,06916
 891,16; 8888,612;   99,875;15075,853;58,68557
 891,72; 8904,013;  113,275;15058,452;58,81990
 892,28; 8919,013;  112,475;15126,053;58,65716
 892,84; 8877,013;   93,775;15039,853;58,76617
 893,39; 8915,713;  117,575;15112,952;58,67233
 893,95; 8782,013;  112,975;15044,753;58,05764
 894,51; 8737,112;   66,375;14891,253;58,48775
 895,07; 8657,112;  127,375;14906,353;57,71534
 895,63; 8476,912;   74,275;14689,952;57,49058
 896,19; 8419,412;   90,375;14601,952;57,39581
 896,75; 8360,713;  105,175;14460,152;57,50993
 897,31; 8195,912;   82,775;14295,853;57,08220
 897,87; 8152,612;   98,175;14146,853;57,33235
 898,43; 7989,013;   87,775;14075,753;56,48592
 898,99; 7823,813;  109,175;14002,753;55,52664
 899,55; 7779,712;  109,475;13940,652;55,45614
 900,11; 7688,612;  104,975;13747,553;55,58801
 900,67; 7469,513;   91,375;13658,652;54,38186
 901,22; 7418,712;  108,375;13601,952;54,17642
 901,78; 7218,913;   91,275;13560,053;52,91971
 902,34; 7141,513;  103,075;13451,152;52,72997
 902,90; 6994,813;   73,575;13350,652;52,12922
 903,46; 6871,112;   95,775;13236,353;51,56042
 904,02; 6770,212;   88,075;13091,553;51,38731
 904,58; 6641,313;   67,075;12918,152;51,15709
 905,14; 6594,413;   63,975;12874,553;50,97692
 905,70; 6533,712;   66,775;12696,053;51,20592
 906,25; 6471,013;   84,375;12708,452;50,59093
 906,81; 6410,112;   87,675;12732,152;50,00157
 907,37; 6329,813;   79,275;12616,152;49,85721
 907,93; 6283,112;   74,775;12588,152;49,61360
 908,49; 6263,112;  101,875;12497,652;49,70432
 909,05; 6155,813;   89,675;12425,553;49,17475
 909,60; 6059,813;   86,575;12340,452;48,74569
 910,16; 6001,413;   67,675;12291,853;48,54100
 910,72; 5991,712;  100,475;12207,753;48,65865
 911,28; 5896,712;   90,875;12156,053;48,12061
 911,84; 5827,313;   79,575;12106,753;47,78958
 912,39; 5734,212;   73,475;12049,353;47,26783
 912,95; 5706,712;  104,475;12001,452;47,08959
 913,51; 5576,212;   85,375;11945,253;46,29759
 914,07; 5441,712;   83,775;11813,452;45,67847
 914,63; 5365,013;   64,775;11748,053;45,36602
 915,18; 5253,313;   77,475;11617,853;44,84981
 915,74; 5146,612;   63,975;11632,652;43,93447
 916,30; 5052,112;   61,475;11588,553;43,29490
 916,86; 4948,513;   83,575;11514,652;42,55887
 917,42; 4848,712;   82,275;11425,152;42,02141
 917,97; 4758,913;   75,375;11265,452;41,85438
 918,53; 4696,112;   67,775;11196,253;41,59003
 919,09; 4624,313;   88,975;11223,753;40,73128
 919,65; 4512,913;   83,375;11083,452;40,26824
 920,20; 4422,112;   61,875;10983,053;39,92461
 920,76; 4349,413;   65,475;10849,452;39,72502
 921,32; 4287,212;   82,675;10770,952;39,33784
 921,87; 4222,313;   97,475;10670,253;39,01375
 922,43; 4057,512;   64,675;10561,353;38,03906
 922,99; 3971,512;   61,875;10406,753;37,79298
 923,55; 3974,712;   63,775;10357,353;37,99396
 924,10; 3910,313;   73,575;10282,853;37,58089
 924,66; 3854,113;   78,675;10170,152;37,41214
 925,22; 3700,212;   43,275;10093,952;36,38499
 925,77; 3660,913;   66,075; 9927,053;36,45518
 926,33; 3619,512;   90,375; 9903,253;35,96435
 926,89; 3528,913;   71,975; 9692,753;35,93200
 927,44; 3438,313;   52,175; 9580,553;35,53740
 928,00; 3395,113;   66,875; 9533,753;35,15665
 928,56; 3318,712;   80,375; 9372,253;34,85127
 929,12; 3252,212;   72,775; 9275,152;34,55017
 929,67; 3077,512;   67,575; 9091,053;33,35673
 930,23; 2975,413;   50,975; 8915,253;32,99127
 930,78; 3004,813;  100,675; 8842,553;33,22098
 931,34; 2836,413;   61,975; 8632,152;32,37316
 931,90; 2740,012;   61,675; 8494,353;31,76141
 932,45; 2635,413;   78,775; 8290,753;31,13303
 933,01; 2510,512;   52,975; 8024,453;30,82913
 933,57; 2407,913;   72,175; 7753,252;30,40898
 934,12; 2281,012;   70,475; 7399,553;30,16120
 934,68; 2126,113;   59,075; 7020,252;29,69379
 935,24; 1974,912;   67,875; 6614,752;29,12896
 935,79; 1846,012;   72,975; 6254,853;28,68121
 936,35; 1743,412;   91,375; 5812,252;28,87734
 936,90; 1585,813;   80,275; 5348,752;28,57633
 937,46; 1445,113;   72,775; 4956,953;28,09762
 938,02; 1322,012;   63,375; 4549,152;28,05840
 938,57; 1260,213;   73,175; 4265,053;28,31756
 939,13; 1170,113;   70,575; 3986,752;28,07681
 939,68; 1056,412;   57,375; 3713,452;27,32539
 940,24;  990,813;   68,775; 3504,052;26,84026
 940,79;  984,213;   91,875; 3391,052;27,04727
 941,35;  947,713;   79,675; 3217,552;27,66321
 941,91;  884,013;   71,375; 3122,252;26,63619
 942,46;  864,112;   75,075; 3063,552;26,40266
 943,02;  846,013;   65,375; 3050,752;26,14870
 943,57;  797,313;   61,275; 2982,452;25,19660
 944,13;  812,813;   67,375; 2974,452;25,64216
 944,68;  798,612;   65,975; 3041,752;24,62004
 945,24;  817,112;   82,275; 3060,052;24,67738
 945,79;  793,112;   68,775; 3104,052;23,86396
 946,35;  798,813;   51,775; 3194,752;23,76847
 946,90;  829,612;   98,575; 3283,552;22,95267
 947,46;  799,412;   52,175; 3311,052;22,92929
 948,01;  790,412;   51,575; 3390,052;22,13097
 948,57;  826,513;   86,775; 3552,952;21,34159
 949,12;  801,912;   65,875; 3613,353;20,74819
 949,68;  827,713;   76,275; 3732,653;20,55142
 950,23;  844,013;   70,075; 3833,252;20,56606
 950,79;  815,813;   75,775; 3933,452;19,18350
 951,34;  853,813;   83,275; 4070,952;19,32296
 951,90;  833,013;   57,475; 4140,853;18,99255
 952,45;  871,213;   81,075; 4292,152;18,76331
 953,01;  844,713;   65,975; 4364,252;18,11743
 953,56;  857,112;   87,975; 4500,853;17,42939
 954,12;  828,612;   42,075; 4567,553;17,38021
 954,67;  852,313;   70,875; 4720,453;16,80663
 955,23;  861,513;   61,975; 4804,553;16,85871
 955,78;  870,513;   67,175; 4882,953;16,68137
 956,33;  848,912;   58,575; 4947,252;16,16669
 956,89;  866,412;   53,475; 5038,553;16,30742
 957,44;  848,612;   53,675; 5170,752;15,53499
 958,00;  871,513;   49,475; 5238,353;15,84230
 958,55;  870,013;   70,475; 5313,953;15,24823
 959,10;  845,912;   52,375; 5370,252;14,92207
 959,66;  860,513;   74,275; 5488,752;14,52102
 960,21;  862,013;   78,475; 5567,453;14,27474
 960,77;  828,112;   54,275; 5606,152;13,93830
 961,32;  833,112;   48,375; 5663,453;13,97554
 961,87;  847,713;   79,775; 5738,752;13,57025
 962,43;  836,112;   68,975; 5780,652;13,43104
 962,98;  822,313;   76,175; 5828,652;12,97072
 963,54;  776,313;   27,075; 5820,652;12,93221
 964,09;  787,213;   56,275; 5873,953;12,56408
 964,64;  788,412;   64,975; 5901,053;12,39595
 965,20;  760,912;   44,375; 5966,652;12,09902
 965,75;  776,313;   66,575; 5976,353;12,00955
 966,30;  770,412;   75,275; 6068,553;11,59862
 966,86;  742,412;   62,975; 6121,953;11,21373
 967,41;  745,813;   81,075; 6084,453;11,07273
 967,96;  751,912;   75,175; 6108,953;11,21582
 968,52;  753,813;   81,775; 6126,353;11,11802
 969,07;  721,513;   72,975; 6120,152;10,72463
 969,62;  716,112;   77,175; 6134,953;10,54739
 970,18;  694,013;   57,575; 6147,652;10,45040
 970,73;  697,813;   66,475; 6203,553;10,28727
 971,28;  701,112;   95,775; 6197,053; 9,92149
 971,84;  680,412;   55,075; 6118,752;10,31284
 972,39;  696,412;   95,875; 6148,652; 9,92168
 972,94;  664,813;   54,975; 6140,652;10,02086
 973,49;  655,813;   64,575; 6141,252; 9,72962
 974,05;  652,313;   64,375; 6178,053; 9,61676
 974,60;  668,612;   88,575; 6213,252; 9,47050
 975,15;  652,612;   77,675; 6231,553; 9,34269
 975,71;  614,813;   62,375; 6121,453; 9,11752
 976,26;  640,112;   77,575; 6110,252; 9,32484
 976,81;  631,713;   90,675; 6134,152; 8,95242
 977,36;  636,013;   84,775; 6156,953; 9,07809
 977,92;  642,112;   90,175; 6209,353; 9,01980
 978,47;  607,013;   77,175; 6060,252; 8,85560
 979,02;  612,912;   95,475; 6085,652; 8,63810
 979,57;  600,513;   86,775; 6058,453; 8,60290
 980,13;  593,713;   76,175; 6038,752; 8,67976
 980,68;  576,013;   77,075; 6010,553; 8,40885
 981,23;  582,513;   89,175; 6054,652; 8,26987
 981,78;  566,813;   82,075; 5974,152; 8,22694
 982,33;  568,612;   79,275; 5893,252; 8,41657
 982,89;  551,513;   94,375; 5938,152; 7,82264
 983,44;  518,412;   65,675; 5935,853; 7,71250
 983,99;  558,213;  104,775; 5949,453; 7,75813
 984,54;  517,612;   81,475; 5900,053; 7,49560
 985,09;  543,313;   87,275; 5873,752; 7,88109
 985,65;  500,013;   69,375; 5811,853; 7,49916
 986,20;  536,112;  106,575; 5791,152; 7,55619
 986,75;  526,412;   95,875; 5823,953; 7,51626
 987,30;  520,412;   97,175; 5726,053; 7,51904
 987,85;  491,913;   92,475; 5721,353; 7,09622
 988,40;  507,112;   96,675; 5693,953; 7,33281
 988,96;  505,313;  114,875; 5666,553; 7,03278
 989,51;  504,612;  108,875; 5644,053; 7,14950
 990,06;  520,813;  128,275; 5680,853; 7,06946
 990,61;  491,513;   93,575; 5569,053; 7,26763
 991,16;  501,913;  104,375; 5558,053; 7,28935
 991,71;  468,413;   79,875; 5505,853; 7,16069
 992,26;  471,513;   93,475; 5457,252; 7,04797
 992,81;  471,112;   75,075; 5427,053; 7,39983
 993,37;  480,813;  113,475; 5390,553; 6,96100
 993,92;  466,913;  108,375; 5368,953; 6,81555
 994,47;  479,612;  117,475; 5329,652; 6,94791
 995,02;  490,612;  118,475; 5313,252; 7,16368
 995,57;  452,212;   90,875; 5274,652; 6,97054
 996,12;  491,013;  133,575; 5247,553; 6,98942
 996,67;  461,513;  132,375; 5191,652; 6,50562
 997,22;  445,712;   99,875; 5128,652; 6,87717
 997,77;  469,013;  115,275; 5110,553; 7,08144
 998,32;  442,913;  103,775; 5015,652; 6,90444
 998,87;  443,313;  114,275; 5018,752; 6,70892
 999,42;  439,013;  101,675; 4972,553; 6,92560
 999,97;  438,013;  109,975; 4956,353; 6,76872
1000,53;  452,712;  123,475; 4993,752; 6,76014
1001,08;  437,913;   98,375; 4879,053; 7,10229
1001,63;  456,313;  144,475; 4878,053; 6,58778
1002,18;  374,913;   85,075; 4777,453; 6,17677
1002,73;  445,212;  131,375; 4813,853; 6,70238
1003,28;  407,913;  103,575; 4811,953; 6,46374
1003,83;  418,212;  119,075; 4691,752; 6,54185
1004,38;  445,612;  137,775; 4703,152; 6,74287
1004,93;  424,813;  114,375; 4680,953; 6,79803
1005,48;  415,612;  104,075; 4573,053; 6,97111
1006,03;  400,013;  112,775; 4525,652; 6,50908
1006,58;  395,913;  111,475; 4486,553; 6,50131
1007,13;  365,612;   94,475; 4466,252; 6,20200
1007,68;  385,112;  104,975; 4462,453; 6,42889
1008,23;  403,212;  114,575; 4425,853; 6,69494
1008,78;  384,712;  107,375; 4384,152; 6,48473
1009,33;  398,313;  121,875; 4307,752; 6,60405
1009,88;  360,212;   84,775; 4329,553; 6,48886
1010,43;  380,813;  118,875; 4320,752; 6,23382
1010,98;  362,612;  100,675; 4310,053; 6,22271
1011,52;  365,013;   97,075; 4264,953; 6,42863
1012,07;  419,712;  144,475; 4319,252; 6,59287
1012,62;  363,212;  103,875; 4259,152; 6,24116
1013,17;  362,712;   97,175; 4172,053; 6,51645
1013,72;  350,513;   94,575; 4143,453; 6,32120
1014,27;  362,212;  100,275; 4105,853; 6,53932
1014,82;  345,913;   86,875; 4042,952; 6,54784
1015,37;  328,413;   84,375; 3964,853; 6,28885
1015,92;  355,913;  109,475; 3894,252; 6,51128
1016,47;  318,813;   90,275; 3819,452; 6,12836
1017,02;  312,112;   81,075; 3732,153; 6,32793
1017,57;  336,212;   96,475; 3718,853; 6,61824
1018,11;  306,212;   77,275; 3656,252; 6,39673
1018,66;  336,712;  120,175; 3636,552; 6,15797
1019,21;  317,013;  109,675; 3579,552; 5,97536
1019,76;  294,513;   77,675; 3497,353; 6,34088
1020,31;  299,313;   71,975; 3446,452; 6,73697
1020,86;  295,712;   96,175; 3448,052; 5,95301
1021,41;  286,813;   80,175; 3387,052; 6,24872
1021,96;  296,813;   83,675; 3385,853; 6,45445
1022,50;  324,913;  105,975; 3332,952; 6,78460
1023,05;  292,513;   94,675; 3288,052; 6,19524
1023,60;  292,612;   97,975; 3251,353; 6,17235
1024,15;  291,112;   81,075; 3184,853; 6,76716
1024,70;  297,212;   95,075; 3176,252; 6,56040
1025,25;  260,913;   81,175; 3127,452; 5,90023
1025,79;  295,612;  101,175; 3110,752; 6,46062
1026,34;  283,612;   83,475; 3044,653; 6,75871
1026,89;  304,612;  102,175; 3039,052; 6,89295
1027,44;  280,513;   95,875; 2952,952; 6,46246
1027,99;  281,913;   93,475; 2944,552; 6,60934
1028,53;  274,513;   89,675; 2900,052; 6,57696
1029,08;  291,513;  114,775; 2876,653; 6,39918
1029,63;  284,513;  114,875; 2854,952; 6,19098
1030,18;  270,413;   92,075; 2788,552; 6,61372
1030,73;  262,013;   91,175; 2739,552; 6,45065
1031,27;  247,413;   85,875; 2715,252; 6,14356
1031,82;  245,113;   81,875; 2686,452; 6,26733
1032,37;  272,212;   98,875; 2688,853; 6,69263
1032,92;  282,112;  100,575; 2675,452; 7,05034
1033,46;  268,513;   99,775; 2599,252; 6,75091
1034,01;  248,913;   78,375; 2582,952; 6,80903
1034,56;  249,613;   98,875; 2559,252; 6,12660
1035,11;  262,913;   92,375; 2523,552; 7,01461
1035,65;  245,413;   87,575; 2478,052; 6,60276
1036,20;  247,613;   99,375; 2454,452; 6,29438
1036,75;  265,313;  118,675; 2446,353; 6,29973
1037,29;  257,712;   90,275; 2398,252; 7,25473
1037,84;  225,113;   78,375; 2347,252; 6,46741
1038,39;  248,012;   91,075; 2329,952; 7,00965
1038,94;  211,512;   73,075; 2277,153; 6,28097
1039,48;  232,113;   83,575; 2278,552; 6,76715
1040,03;  237,913;  102,875; 2245,252; 6,30316
1040,58;  228,113;  101,175; 2194,552; 6,06377
1041,12;  236,012;   91,375; 2191,653; 6,88659
1041,67;  224,212;  101,075; 2166,752; 5,96112
1042,22;  247,712;  118,475; 2145,252; 6,37650
1042,76;  221,712;   99,275; 2118,452; 6,06373
1043,31;  234,712;   90,675; 2060,653; 7,31163
1043,86;  235,512;   98,875; 2044,252; 7,02370
1044,40;  233,413;   92,975; 2018,052; 7,29516
1044,95;  229,512;   94,175; 1988,552; 7,14417
1045,50;  210,813;   75,375; 1934,353; 7,28559
1046,04;  245,313;  114,375; 1930,453; 7,20991
1046,59;  217,913;   96,175; 1878,353; 6,83083
1047,13;  234,613;  121,075; 1879,453; 6,45695
1047,68;  218,512;  115,675; 1860,052; 5,89537
1048,23;  236,813;  118,775; 1866,752; 6,75280
1048,77;  199,413;   90,175; 1784,953; 6,44554
1049,32;  220,512;  104,175; 1785,953; 6,91753
1049,86;  215,313;   92,675; 1760,552; 7,35291
1050,41;  195,512;   82,475; 1735,552; 6,83800
1050,96;  213,613;  100,875; 1698,652; 7,05590
1051,50;  215,613;  101,675; 1663,252; 7,29631
1052,05;  222,512;   94,675; 1664,052; 8,14575
1052,59;  198,813;   82,975; 1624,152; 7,51617
1053,14;  189,712;   84,475; 1582,652; 7,02437
1053,69;  203,512;   98,475; 1571,453; 7,13096
1054,23;  204,613;  104,575; 1569,052; 6,83094
1054,78;  208,113;  100,775; 1550,152; 7,40577
1055,32;  218,512;  123,075; 1550,453; 6,68621
1055,87;  181,813;   68,875; 1491,752; 7,93726
1056,41;  183,512;   78,775; 1469,552; 7,53086
1056,96;  183,012;   96,775; 1451,052; 6,36779
1057,50;  218,512;  113,375; 1470,853; 7,74506
1058,05;  174,113;   82,075; 1401,953; 6,97319
1058,59;  190,613;   95,875; 1396,552; 7,28370
1059,14;  199,413;  103,575; 1370,453; 7,56486
1059,68;  181,212;   75,975; 1329,353; 8,39631
1060,23;  204,512;  126,875; 1383,752; 6,17701
1060,77;  186,413;   97,375; 1317,052; 7,30009
1061,32;  209,613;  108,575; 1320,652; 8,33590
1061,86;  191,113;  111,175; 1289,752; 6,78254
1062,41;  194,113;   93,975; 1242,953; 8,71536
1062,95;  187,913;  109,575; 1230,853; 6,98645
1063,50;  196,512;  111,075; 1230,052; 7,63532
1064,04;  162,413;   90,475; 1197,453; 6,49855
1064,59;  188,212;  114,775; 1210,052; 6,70492
1065,13;  191,113;  103,475; 1170,552; 8,21285
1065,68;  187,212;  107,275; 1161,353; 7,58364
1066,22;  197,413;  115,875; 1166,453; 7,76121
1066,76;  189,813;  130,175; 1145,252; 5,87517
1067,31;  189,212;   99,875; 1110,552; 8,83937
1067,85;  174,613;  100,975; 1090,252; 7,44356
1068,40;  180,212;  110,275; 1095,353; 7,09969
1068,94;  176,712;   99,175; 1079,353; 7,91056
1069,49;  171,113;   98,175; 1041,652; 7,73071
1070,03;  170,813;  111,175; 1034,353; 6,46002
1070,57;  165,613;   88,775; 1012,852; 8,31505
1071,12;  160,113;   75,875;  987,153; 9,24389
1071,66;  205,712;  131,775; 1039,953; 8,14130
1072,21;  170,313;  112,475; 1011,352; 6,43441
1072,75;  170,613;  104,475;  978,552; 7,56655
1073,29;  162,012;   77,075;  942,453; 9,81508
1073,84;  167,613;   95,975;  941,153; 8,47603
1074,38;  163,113;   93,875;  928,253; 8,29810
1074,92;  173,113;  107,275;  940,153; 7,90482
1075,47;  171,813;  112,775;  938,852; 7,14673
1076,01;  190,512;  121,775;  926,253; 8,54437
1076,56;  159,512;   97,275;  891,953; 7,83179
1077,10;  150,613;   86,075;  865,253; 8,28277
1077,64;  163,413;   97,875;  884,453; 8,33198
1078,19;  186,613;  123,175;  887,753; 8,29707
1078,73;  168,113;   98,775;  853,852; 9,18283
1079,27;  187,012;  121,075;  875,552; 8,73949
1079,81;  182,613;  121,375;  860,953; 8,28007
1080,36;  179,012;  105,975;  836,052;10,00407
1080,90;  154,712;   96,375;  819,753; 8,06460
1081,44;  151,113;   82,475;  789,552; 9,70721
1081,99;  141,212;   70,375;  771,753;10,09977
1082,53;  174,313;  113,075;  798,653; 8,93225
1083,07;  162,212;  104,175;  791,453; 8,44455
1083,62;  163,313;  101,275;  772,552; 9,24171
1084,16;  141,913;   98,975;  782,453; 6,28221
1084,70;  167,113;  107,475;  767,153; 9,04040
1085,24;  168,913;  108,775;  750,653; 9,36900
1085,79;  150,913;  109,175;  747,552; 6,53806
1086,33;  138,712;   99,075;  711,453; 6,47272
1086,87;  157,113;  102,075;  714,852; 8,98165
1087,41;  145,212;   84,475;  686,852;10,08296
1087,96;  180,813;  124,575;  732,552; 9,24993
1088,50;  155,413;  112,075;  696,953; 7,40967
1089,04;  169,413;  121,775;  715,153; 8,02819
1089,58;  133,113;   82,375;  655,953; 8,84580
1090,13;  158,113;  102,975;  653,153;10,02177
1090,67;  157,512;  101,775;  678,753; 9,66025
1091,21;  143,012;   92,075;  651,852; 9,09960
1091,75;  143,813;  106,875;  647,153; 6,83676
1092,29;  156,712;  105,875;  642,552; 9,47263
1092,84;  166,313;  105,975;  628,352;11,55056
1093,38;  170,913;  128,175;  662,753; 7,99463
1093,92;  171,813;  113,475;  640,052;11,07862
1094,46;  169,813;  128,175;  638,852; 8,15338
1095,00;  148,712;   93,975;  602,052;10,77345
1095,54;  136,113;   89,975;  591,352; 9,20215
1096,09;  151,813;  114,975;  597,352; 7,63665
1096,63;  173,313;  117,175;  598,453;11,66427
1097,17;  136,212;  102,575;  573,052; 7,14965
1097,71;  165,613;  122,875;  582,453; 9,29930
1098,25;  152,613;  103,275;  553,653;10,95470
1098,79;  169,813;  104,775;  568,753;14,01738
1099,33;  157,712;  111,975;  572,052; 9,94126
1099,88;  152,113;  110,775;  562,253; 9,15605
1100,42;  129,512;   83,275;  521,253;10,55705

