0148 ELITRO
Integration time [ms]:   8,000
Averaging Nr. [scans]: 10
Smoothing Nr. [pixels]: 0
Data measured with spectrometer [name]: 7314920SP
Wave   ;Sample   ;Dark     ;Reference;Reflectance
[nm]   ;[counts] ;[counts] ;[counts] ;[%]

 199,42;   86,607;   63,873;  150,055;26,37853
 200,02;  113,953;   92,669;  145,732;40,11069
 200,62;   62,194;   67,563;   88,793;-25,29181
 201,22;  105,169;   86,969;  138,011;35,65772
 201,82;   92,956;   66,174;  141,790;35,41822
 202,42;  107,381;  101,668;  154,973;10,71607
 203,03;   66,620;   60,168;   91,775;20,41271
 203,63;   73,831;   69,967;  109,037; 9,88936
 204,23;   79,252;   70,671;  129,903;14,48684
 204,83;   90,987;   74,567;  123,718;33,40645
 205,43;   90,007;   56,673;  123,555;49,83945
 206,03;   57,314;   50,167;   90,459;17,73969
 206,63;   71,160;   68,865;  100,007; 7,36957
 207,24;  100,433;   74,675;  162,566;29,30696
 207,84;   54,242;   39,967;   83,699;32,64301
 208,44;   55,769;   50,669;   95,011;11,50222
 209,04;   42,532;   47,365;   85,066;-12,81888
 209,64;   90,974;   69,972;  127,998;36,19308
 210,24;   64,087;   45,367;   97,218;36,10268
 210,84;   71,641;   51,469;  101,970;39,94441
 211,44;   98,030;   86,470;  122,908;31,72604
 212,05;   65,532;   60,865;   99,266;12,15337
 212,65;   85,920;   66,368;  112,975;41,95027
 213,25;  104,481;   93,768;  142,073;22,17637
 213,85;   94,021;   84,465;  114,904;31,39145
 214,45;   70,787;   53,367;  100,418;37,02281
 215,05;   49,641;   39,369;  100,070;16,92281
 215,65;   54,514;   55,169;  105,630;-1,29936
 216,25;   53,487;   40,267;   82,518;31,28828
 216,85;   43,297;   34,069;   89,651;16,60284
 217,45;   64,120;   49,068;   97,375;31,15864
 218,05;   75,247;   58,270;  112,886;31,08325
 218,66;   33,925;   28,769;   75,692;10,98865
 219,26;   46,031;   26,567;   79,337;36,88418
 219,86;   54,607;   36,771;   81,584;39,80244
 220,46;   61,974;   54,270;  104,127;15,45323
 221,06;   83,952;   51,871;  115,903;50,10130
 221,66;   73,468;   43,471;  103,481;49,98657
 222,26;   59,274;   39,772;  102,398;31,13942
 222,86;   76,936;   67,268;  118,954;18,70552
 223,46;   61,187;   51,767;   88,918;25,35498
 224,06;   86,880;   64,971;  120,343;39,56614
 224,66;   76,691;   57,570;  105,805;39,64047
 225,26;   72,758;   48,169;  113,748;37,49434
 225,86;   62,490;   42,173;  112,376;28,94060
 226,46;   75,408;   49,968;  102,913;48,05017
 227,06;   38,591;   27,670;   87,705;18,19042
 227,66;   57,948;   37,665;   74,845;54,55462
 228,27;   42,774;   29,270;   96,227;20,16894
 228,87;  110,719;   89,170;  143,046;39,99682
 229,47;   51,246;   29,172;   92,357;34,93441
 230,07;   19,158;   11,169;   59,648;16,47809
 230,67;   59,997;   38,169;   84,651;46,96037
 231,27;   38,074;   27,670;   76,327;21,38338
 231,87;   57,497;   43,169;  100,751;24,88307
 232,47;   90,989;   43,775;  132,047;53,48697
 233,07;   64,088;   42,965;   75,547;64,82865
 233,67;   62,220;   53,768;   94,275;20,86514
 234,27;   25,614;    0,567;   53,259;47,53607
 234,87;   51,107;   34,771;  106,084;22,90846
 235,47;   37,558;   16,169;   74,148;36,88992
 236,07;   36,509;   30,266;   72,042;14,94477
 236,67;   57,798;   49,966;   85,180;22,23997
 237,27;   45,251;   28,873;  109,074;20,42076
 237,87;   49,591;   25,370;   99,805;32,53926
 238,47;   34,653;   14,269;   68,032;37,91446
 239,07;   45,001;   33,272;   95,738;18,77686
 239,67;   81,127;   43,477;  131,421;42,81210
 240,27;   73,290;   46,773;  119,176;36,62434
 240,87;   82,623;   50,773;  119,533;46,32009
 241,47;   48,482;   39,164;   76,131;25,20803
 242,07;   59,364;   39,968;   92,894;36,64732
 242,67;   24,379;  -11,027;   77,914;39,80783
 243,27;   26,587;    7,767;   46,418;48,69104
 243,87;   63,080;   48,671;  108,343;24,14643
 244,47;   59,952;   22,371;   99,703;48,59678
 245,07;   16,041;    2,669;   55,770;25,18279
 245,67;   49,020;   31,068;   85,575;32,93485
 246,27;   42,860;   34,965;   69,007;23,19194
 246,87;   35,936;   26,668;   63,154;25,40201
 247,46;   12,194;   19,663;   23,793;-180,86214
 248,06;   39,147;   20,470;   69,786;37,87087
 248,66;   58,074;   31,072;  105,898;36,08558
 249,26;   37,609;   32,366;   70,742;13,66305
 249,86;   52,490;   42,873;  102,176;16,21713
 250,46;   28,661;   16,775;   93,507;15,49049
 251,06;   28,520;   22,168;   65,375;14,70101
 251,66;   32,035;   20,771;   64,724;25,62851
 252,26;   42,154;   38,866;   70,261;10,47127
 252,86;   40,941;   35,969;   89,070; 9,36387
 253,46;    4,587;   -8,033;   22,118;41,85463
 254,06;   28,237;   31,766;   79,483;-7,39494
 254,66;   47,807;   34,973;  100,155;19,68875
 255,26;   58,762;   39,073;  118,836;24,68487
 255,86;   43,082;   37,464;   55,631;30,92771
 256,46;   29,330;   19,870;   70,208;18,79373
 257,05;   35,463;   23,570;   59,565;33,04027
 257,65;   61,207;   38,071;   97,684;38,81146
 258,25;   55,846;   37,372;  101,457;28,82624
 258,85;   33,541;   15,669;   51,770;49,50646
 259,45;   19,697;    6,869;   42,951;35,55275
 260,05;   44,387;   46,667;   85,818;-5,82437
 260,65;   54,654;   45,066;   83,561;24,90567
 261,25;   40,480;   29,371;   85,943;19,63637
 261,85;   15,996;   -0,129;   47,622;33,76899
 262,45;   60,241;   46,169;  109,270;22,30126
 263,04;   63,934;   53,073;  116,295;17,17972
 263,64;   45,203;   33,767;   77,097;26,39277
 264,24;   54,724;   37,671;   89,062;33,18242
 264,84;   87,312;   58,974;  138,671;35,55675
 265,44;   21,347;   26,368;   67,716;-12,14112
 266,04;   53,693;   48,865;   71,464;21,36120
 266,64;   52,198;   39,866;   86,780;26,28552
 267,24;   46,598;   40,166;   68,980;22,32103
 267,84;   33,481;   24,668;   76,573;16,97766
 268,43;   58,692;   48,368;   95,935;21,70415
 269,03;   61,125;   46,969;   87,892;34,59235
 269,63;   67,881;   58,566;   92,402;27,53131
 270,23;   17,848;   10,765;   39,045;25,04701
 270,83;   54,254;   55,266;   83,161;-3,62978
 271,43;   29,275;   23,967;   58,856;15,21366
 272,03;   54,547;   64,168;   99,116;-27,52692
 272,62;   32,514;   23,269;   68,730;20,33497
 273,22;   27,619;   11,970;   61,046;31,88661
 273,82;   14,150;   17,460;   26,403;-37,01529
 274,42;   15,354;   25,164;   46,890;-45,14831
 275,02;   32,115;   34,864;   60,388;-10,77060
 275,62;   69,346;   31,972;  100,457;54,57156
 276,21;   37,402;   22,770;   69,267;31,46926
 276,81;   48,742;   46,767;   71,099; 8,11924
 277,41;   40,040;   22,971;   96,341;23,26447
 278,01;   21,215;   21,364;   42,788;-0,69565
 278,61;   64,469;   38,869;   83,811;56,96340
 279,20;   71,890;   65,473;  119,076;11,97185
 279,80;   -8,300;    6,762;   11,539;-315,30019
 280,40;   44,909;   36,866;   79,742;18,75947
 281,00;   13,269;   -4,331;   33,311;46,75749
 281,60;   38,840;   20,774;   74,812;33,43157
 282,20;   47,530;   36,670;   70,108;32,47902
 282,79;   45,592;   29,568;   70,135;39,50024
 283,39;   22,081;   17,466;   44,702;16,94620
 283,99;   14,988;   23,165;   34,347;-73,12109
 284,59;   24,486;   16,869;   45,289;26,79969
 285,19;   28,314;   27,067;   57,759; 4,06511
 285,78;   31,030;   23,270;   63,808;19,14348
 286,38;   40,060;   39,665;   59,207; 2,02149
 286,98;   37,592;   35,168;   73,535; 6,31787
 287,58;   19,552;    4,771;   61,403;26,09983
 288,17;   28,162;    8,973;   80,336;26,88983
 288,77;   44,322;   19,976;   92,504;33,56801
 289,37;   25,341;   11,269;   57,670;30,32762
 289,97;   47,488;   48,965;   66,647;-8,35273
 290,57;   67,585;   46,672;   93,260;44,88930
 291,16;   79,047;   63,868;  102,616;39,17589
 291,76;   26,819;    5,570;   47,346;50,86343
 292,36;   37,531;   34,367;   58,137;13,30994
 292,96;   17,818;   -3,127;   60,117;33,11812
 293,55;   40,542;   24,267;   65,399;39,56872
 294,15;   39,902;   26,870;   62,567;36,50790
 294,75;   54,060;   42,065;   66,207;49,68501
 295,35;   12,547;   21,068;   52,016;-27,53040
 295,94;   42,870;   42,967;   66,740;-0,40558
 296,54;   41,008;   30,768;   70,613;25,69989
 297,14;   37,568;   29,971;   76,881;16,19474
 297,73;   16,876;   12,165;   40,085;16,87362
 298,33;   40,537;   28,066;   57,583;42,25135
 298,93;   49,336;   41,968;   82,554;18,15438
 299,53;   51,029;   24,872;   69,079;59,16995
 300,12;   13,068;  -12,229;   59,481;35,27674
 300,72;   58,203;   41,567;   91,197;33,52012
 301,32;   46,107;   25,771;   99,584;27,55165
 301,92;   17,927;    3,664;   33,050;48,53601
 302,51;   26,859;   11,567;   49,978;39,81122
 303,11;   25,714;   14,667;   48,759;32,40552
 303,71;   48,153;   21,369;   82,132;44,07932
 304,30;    9,965;    5,466;   38,423;13,65178
 304,90;   18,837;   19,666;   44,283;-3,36615
 305,50;   38,848;   18,565;   64,345;44,30618
 306,09;   36,909;   15,466;   49,042;63,86447
 306,69;   55,624;   34,171;   90,262;38,24635
 307,29;   17,978;   18,760;   33,144;-5,43834
 307,88;   54,786;   43,269;   72,489;39,41311
 308,48;   18,074;    0,070;   49,727;36,25773
 309,08;    9,849;   -4,437;   11,774;88,12746
 309,68;   30,176;   22,365;   39,585;45,36029
 310,27;   25,614;   20,169;   49,830;18,35565
 310,87;   26,108;   23,468;   54,813; 8,42268
 311,47;   61,687;   54,967;   92,918;17,70611
 312,06;   40,004;   47,865;   68,426;-38,23222
 312,66;   68,747;   51,168;  100,016;35,98893
 313,26;   56,835;   48,571;   96,224;17,34324
 313,85;   46,414;   38,267;   65,959;29,42253
 314,45;   56,869;   42,969;   86,611;31,85095
 315,04;   63,004;   52,165;   81,826;36,54346
 315,64;   34,803;   21,267;   47,897;50,83047
 316,24;   56,474;   40,770;   85,627;35,01015
 316,83;   56,709;   40,366;   76,742;44,92855
 317,43;   37,575;   35,167;   68,156; 7,29900
 318,03;   50,338;   39,063;   70,012;36,43025
 318,62;   78,455;   73,061;   94,820;24,79099
 319,22;   41,581;    7,668;   66,973;57,18335
 319,82;   55,447;   40,768;   93,516;27,83020
 320,41;   57,053;   59,069;   98,732;-5,08237
 321,01;   91,648;   80,465;  115,945;31,52006
 321,60;   77,754;   81,164;  102,790;-15,76398
 322,20;   81,207;   67,673;  132,855;20,76267
 322,80;   63,303;   54,567;   91,797;23,46485
 323,39;   61,643;   65,764;   94,828;-14,17926
 323,99;   74,854;   61,766;  102,661;32,00252
 324,59;   71,338;   73,063;   97,512;-7,05701
 325,18;   62,159;   40,967;   92,178;41,38153
 325,78;   76,576;   76,365;  108,885; 0,64931
 326,37;   87,020;   74,868;  108,075;36,59404
 326,97;   85,203;   63,267;  111,497;45,48232
 327,57;   47,494;   42,263;   76,493;15,28074
 328,16;   68,582;   60,864;   93,631;23,55620
 328,76;   66,070;   50,467;  110,140;26,14840
 329,35;   83,907;   56,871;  137,484;33,53886
 329,95;   59,230;   27,470;   91,308;49,75135
 330,54;   72,687;   52,167;   94,018;49,03007
 331,14;   42,642;   26,967;   82,599;28,17707
 331,74;   62,848;   54,165;   96,145;20,68433
 332,33;   52,874;   35,370;  108,127;24,05887
 332,93;   50,327;   43,764;   79,250;18,49407
 333,52;   61,981;   42,466;   93,102;38,54080
 334,12;   95,925;   72,069;  140,392;34,91683
 334,71;   58,409;   50,666;   87,942;20,77289
 335,31;   85,814;   63,267;  119,859;39,84256
 335,90;   33,961;   32,362;   53,836; 7,44327
 336,50;   36,960;   30,665;   77,207;13,52545
 337,10;   76,614;   38,769;  121,530;45,72764
 337,69;   68,160;   51,765;   93,707;39,08964
 338,29;   42,731;   30,467;  101,037;17,37817
 338,88;   40,136;   22,468;   99,854;22,83121
 339,48;   74,688;   57,862;  111,677;31,26731
 340,07;   55,126;   48,566;  107,321;11,16426
 340,67;   72,207;   31,171;  124,784;43,83650
 341,26;   66,009;   48,466;   98,942;34,75563
 341,86;   84,058;   61,469;  138,348;29,38177
 342,45;   78,586;   45,669;  142,689;33,92753
 343,05;   65,686;   27,269;  115,689;43,44777
 343,64;   72,098;   47,366;  122,480;32,92542
 344,24;   46,060;   28,765;   92,107;27,30415
 344,83;   89,488;   71,365;  121,747;35,97060
 345,43;   44,170;   29,667;  114,240;17,14915
 346,02;   62,997;   41,469;  124,351;25,97448
 346,62;   81,235;   40,971;  140,424;40,48582
 347,21;   74,476;   42,165;  131,985;35,97313
 347,81;   61,785;   26,172;  140,560;31,13355
 348,40;   51,182;   29,064;  100,731;30,86307
 349,00;   69,738;   49,163;  137,712;23,23543
 349,59;   93,119;   65,870;  177,846;24,33437
 350,19;   57,835;   32,571;  139,424;23,64418
 350,78;   68,614;   55,467;  140,759;15,41490
 351,38;   40,197;   15,869;  140,951;19,44979
 351,97;   57,670;   26,767;  136,040;28,28103
 352,57;   62,674;   42,570;  155,827;17,75123
 353,16;   39,043;   30,564;  134,328; 8,17135
 353,76;   64,419;   38,770;  169,846;19,56777
 354,35;   47,258;   27,669;  160,148;14,78605
 354,95;   83,902;   43,970;  182,067;28,91611
 355,54;   60,281;   38,368;  163,973;17,44537
 356,14;   63,358;   40,069;  164,749;18,67870
 356,73;   56,288;   29,162;  145,176;23,38185
 357,32;   49,653;   13,769;  164,432;23,81741
 357,92;   59,057;   17,772;  181,419;25,22808
 358,51;   79,729;   43,372;  214,179;21,28553
 359,11;   68,285;   36,772;  212,360;17,94716
 359,70;   57,563;   28,470;  189,965;18,01466
 360,30;   75,000;   54,562;  188,039;15,31213
 360,89;   49,636;   31,168;  188,054;11,77167
 361,48;   84,202;   55,570;  216,467;17,79546
 362,08;   53,475;   19,867;  187,156;20,08973
 362,67;   58,094;   39,763;  192,693;11,98626
 363,27;   87,359;   60,767;  247,678;14,22698
 363,86;   74,448;   35,765;  215,745;21,49310
 364,46;   87,182;   44,664;  257,231;20,00248
 365,05;   94,584;   64,659;  254,989;15,72284
 365,64;   93,289;   50,960;  269,706;19,35104
 366,24;  107,251;   38,558;  309,432;25,35978
 366,83;  133,435;   43,255;  335,383;30,87016
 367,43;  130,406;   51,545;  352,843;26,17386
 368,02;  137,372;   34,646;  399,757;28,13555
 368,61;  189,630;   62,239;  475,425;30,83153
 369,21;  154,865;   32,419;  445,299;29,65661
 369,80;  203,209;   43,007;  526,947;33,10374
 370,39;  246,632;   62,006;  604,971;34,00327
 370,99;  222,766;   42,089;  615,416;31,51380
 371,58;  224,583;   22,974;  630,953;33,16049
 372,18;  244,797;   37,166;  701,603;31,24914
 372,77;  256,519;   42,449;  679,385;33,60936
 373,36;  283,604;   42,747;  690,836;37,16420
 373,96;  259,413;   35,135;  639,498;37,10984
 374,55;  247,933;   29,844;  621,406;36,86658
 375,14;  215,247;   42,849;  573,826;32,46811
 375,74;  237,933;   69,157;  543,276;35,59785
 376,33;  185,031;   45,964;  464,589;33,21982
 376,92;  148,720;   33,278;  447,997;27,83621
 377,52;  228,105;   86,103;  548,460;30,71254
 378,11;  161,972;   46,703;  457,203;28,08017
 378,71;  186,163;   73,011;  514,270;25,64295
 379,30;  195,366;   59,517;  553,928;27,47701
 379,89;  197,973;   59,813;  556,103;27,83863
 380,49;  185,499;   31,018;  568,185;28,75857
 381,08;  232,276;   70,306;  570,990;32,34976
 381,67;  225,359;   55,008;  555,483;34,03783
 382,26;  209,176;   41,706;  539,390;33,64988
 382,86;  198,760;   54,003;  516,041;31,33020
 383,45;  222,513;   50,412;  562,105;33,63347
 384,04;  205,168;   38,712;  553,886;32,31063
 384,64;  216,206;   49,014;  566,760;32,29239
 385,23;  219,420;   64,406;  560,509;31,24638
 385,82;  239,972;   59,615;  592,774;33,82804
 386,42;  273,219;   61,024;  659,022;35,48431
 387,01;  250,862;   55,414;  580,541;37,21926
 387,60;  264,292;   69,009;  590,140;37,47293
 388,20;  238,413;   37,712;  590,805;36,28687
 388,79;  286,616;   72,418;  665,563;36,11219
 389,38;  244,076;   32,106;  564,890;39,78536
 389,97;  289,228;   45,415;  640,955;40,93984
 390,57;  298,223;   71,114;  654,038;38,96025
 391,16;  298,123;   62,514;  655,838;39,70995
 391,75;  287,046;   52,713;  638,562;39,99875
 392,34;  317,587;   60,821;  696,694;40,38014
 392,94;  314,960;   44,718;  689,683;41,90029
 393,53;  306,361;   41,016;  666,612;42,41480
 394,12;  343,814;   53,023;  719,105;43,65694
 394,72;  368,318;   54,213;  706,122;48,18228
 395,31;  356,572;   42,115;  694,874;48,17358
 395,90;  377,691;   42,924;  732,881;48,52004
 396,49;  426,940;   58,028;  779,187;51,15545
 397,09;  404,139;   47,417;  749,188;50,83164
 397,68;  443,980;   44,025;  800,719;52,85563
 398,27;  472,691;   54,626;  809,652;55,37086
 398,86;  452,069;   43,125;  807,657;53,48943
 399,45;  515,356;   56,630;  844,037;58,25777
 400,05;  487,110;   23,820;  799,518;59,72556
 400,64;  525,405;   56,419;  831,001;60,54691
 401,23;  530,599;   53,920;  859,956;59,13861
 401,82;  566,699;   67,220;  868,256;62,35407
 402,42;  596,659;   62,921;  873,953;65,80976
 403,01;  635,880;   81,525;  912,919;66,67781
 403,60;  664,433;   68,532;  940,513;68,33883
 404,19;  659,136;   76,024;  931,900;68,13039
 404,78;  650,837;   57,522;  909,929;69,60462
 405,38;  730,994;   68,332;  984,210;72,35264
 405,97;  693,846;   63,226;  953,933;70,79997
 406,56;  740,657;   71,528; 1004,366;71,73044
 407,15;  747,634;   68,829;  989,442;73,73405
 407,74;  797,639;   80,730; 1026,758;75,78095
 408,34;  778,938;   50,933; 1018,629;75,23080
 408,93;  825,017;   59,531; 1016,234;80,01287
 409,52;  821,510;   51,435; 1041,359;77,79126
 410,11;  885,761;   84,931; 1090,453;79,64320
 410,70;  861,007;   54,727; 1027,230;82,90769
 411,29;  877,112;   58,628; 1030,847;84,18725
 411,89;  934,426;   60,535; 1093,938;84,56442
 412,48;  914,784;   48,228; 1051,606;86,36388
 413,07;  957,644;   65,033; 1101,446;86,12502
 413,66;  970,682;   78,135; 1102,119;87,16414
 414,25;  996,364;   63,337; 1142,311;86,47356
 414,84; 1006,217;   69,431; 1102,434;90,68565
 415,44; 1027,895;   91,530; 1155,939;87,97039
 416,03; 1019,976;   76,637; 1161,173;86,98084
 416,62; 1051,542;   76,138; 1168,687;89,27779
 417,21; 1067,104;   75,334; 1158,843;91,53320
 417,80; 1069,036;   65,037; 1162,871;91,45278
 418,39; 1080,208;   78,440; 1179,201;91,00684
 418,98; 1073,116;   55,634; 1143,405;93,53823
 419,58; 1077,227;   64,033; 1142,067;93,98535
 420,17; 1073,565;   52,735; 1164,540;91,81736
 420,76; 1126,976;   72,537; 1192,873;94,11807
 421,35; 1095,398;   60,236; 1155,197;94,53872
 421,94; 1156,908;   88,340; 1223,501;94,13359
 422,53; 1132,752;   61,540; 1195,320;94,48149
 423,12; 1163,358;   64,039; 1190,766;97,56753
 423,71; 1127,526;   60,835; 1162,138;96,85720
 424,30; 1150,559;   85,236; 1210,695;94,65679
 424,90; 1133,825;   39,438; 1163,809;97,33332
 425,49; 1179,136;   70,140; 1216,242;96,76242
 426,08; 1180,636;   80,240; 1209,641;97,43175
 426,67; 1144,570;   57,436; 1168,257;97,86767
 427,26; 1202,451;   60,343; 1230,391;97,61210
 427,85; 1178,397;   63,238; 1209,968;97,24690
 428,44; 1184,990;   68,442; 1218,093;97,12060
 429,03; 1233,702;   85,341; 1233,155;100,04759
 429,62; 1210,030;   78,941; 1240,296;97,39387
 430,21; 1245,856;   81,443; 1277,807;97,32934
 430,80; 1223,195;   70,445; 1235,381;98,95394
 431,39; 1218,701;   53,344; 1246,926;97,63523
 431,99; 1234,726;   78,535; 1206,838;102,47171
 432,58; 1264,658;   82,639; 1251,166;101,15467
 433,17; 1248,782;   69,735; 1238,319;100,89536
 433,76; 1288,905;   71,347; 1288,314;100,04861
 434,35; 1295,150;   88,245; 1292,462;100,22328
 434,94; 1312,643;   70,849; 1318,887;99,49973
 435,53; 1307,368;   78,643; 1278,669;102,39149
 436,12; 1296,729;   70,044; 1294,267;100,20110
 436,71; 1305,896;   87,740; 1303,239;100,21863
 437,30; 1330,885;   76,941; 1299,177;102,59428
 437,89; 1363,578;   76,245; 1320,802;103,43706
 438,48; 1347,679;   65,942; 1305,731;103,38346
 439,07; 1359,414;   95,238; 1347,147;100,97989
 439,66; 1401,766;   83,648; 1375,711;102,01655
 440,25; 1378,029;   85,844; 1390,567;99,03902
 440,84; 1395,104;   79,850; 1387,984;100,54428
 441,43; 1430,375;   78,054; 1440,985;99,22147
 442,02; 1410,993;   79,650; 1411,022;99,99779
 442,61; 1441,801;   93,344; 1397,226;103,41859
 443,20; 1465,932;   94,249; 1446,625;101,42765
 443,79; 1437,272;   74,546; 1412,957;101,81675
 444,38; 1469,983;   84,248; 1461,789;100,59476
 444,97; 1492,911;   84,146; 1466,359;101,92099
 445,56; 1511,328;  101,846; 1477,038;102,49348
 446,15; 1533,298;   81,651; 1522,539;100,74671
 446,74; 1489,473;   58,644; 1462,286;101,93691
 447,33; 1530,772;   82,646; 1538,357;99,47898
 447,92; 1525,554;   78,151; 1570,720;96,97395
 448,51; 1560,483;   89,746; 1586,019;98,29341
 449,10; 1570,867;   92,045; 1608,840;97,49648
 449,69; 1575,437;   73,950; 1627,741;96,63378
 450,28; 1590,394;   66,948; 1608,251;98,84139
 450,87; 1607,250;   78,647; 1656,333;96,88892
 451,46; 1621,927;   96,048; 1702,208;95,00164
 452,05; 1661,504;   70,950; 1715,384;96,72349
 452,64; 1657,365;   70,850; 1725,182;95,90065
 453,23; 1728,459;  113,752; 1794,936;96,04581
 453,82; 1708,882;   83,451; 1800,660;94,65536
 454,40; 1733,565;   65,450; 1786,682;96,91402
 454,99; 1789,053;  101,253; 1871,891;95,32159
 455,58; 1769,361;   69,747; 1832,095;96,44033
 456,17; 1796,820;   63,852; 1873,634;95,75563
 456,76; 1849,354;   67,751; 1918,820;96,24725
 457,35; 1880,483;   78,348; 1930,490;97,30005
 457,94; 1944,042;   66,954; 1978,929;98,17534
 458,53; 1937,709;   67,350; 2010,101;96,27377
 459,12; 2046,046;   82,657; 2111,116;96,79214
 459,71; 2037,038;   58,148; 2060,071;98,84949
 460,30; 2078,966;   84,448; 2087,511;99,57341
 460,89; 2126,454;   57,551; 2129,920;99,83276
 461,48; 2171,642;   75,954; 2173,829;99,89575
 462,06; 2174,149;   68,050; 2187,303;99,37927
 462,65; 2212,071;   48,249; 2176,527;101,67008
 463,24; 2312,096;   87,456; 2288,680;101,06377
 463,83; 2316,249;   54,450; 2229,803;103,97384
 464,42; 2371,143;   88,349; 2333,687;101,66818
 465,01; 2432,865;   73,050; 2336,482;104,25827
 465,60; 2435,693;   64,050; 2384,322;102,21399
 466,19; 2497,442;   73,354; 2462,829;101,44856
 466,77; 2550,798;   81,551; 2462,939;103,68942
 467,36; 2535,774;   69,457; 2459,256;103,20183
 467,95; 2571,670;   79,551; 2466,098;104,42363
 468,54; 2609,030;   71,954; 2513,866;103,89710
 469,13; 2637,387;   69,452; 2535,977;104,11145
 469,72; 2668,163;   67,555; 2582,723;103,39699
 470,31; 2702,508;   87,855; 2629,242;102,88288
 470,90; 2712,776;   76,750; 2652,044;102,35827
 471,48; 2716,818;   32,057; 2671,875;101,70250
 472,07; 2773,033;  125,747; 2686,454;103,38105
 472,66; 2749,436;   67,853; 2748,412;100,03821
 473,25; 2743,498;   68,351; 2723,339;100,75929
 473,84; 2741,147;   55,955; 2766,545;99,06300
 474,43; 2772,556;   55,459; 2843,049;97,47121
 475,01; 2775,702;   69,254; 2885,926;96,08674
 475,60; 2771,791;   49,755; 2882,364;96,09643
 476,19; 2789,251;   74,158; 2956,932;94,18333
 476,78; 2783,674;   71,057; 2964,456;93,75190
 477,37; 2724,691;   59,355; 2945,364;92,35370
 477,95; 2725,852;   75,656; 3018,661;90,05067
 478,54; 2731,653;   63,253; 3023,691;90,13531
 479,13; 2669,853;   56,253; 3070,291;86,71424
 479,72; 2695,486;   81,154; 3090,147;86,88393
 480,31; 2665,801;   63,459; 3167,468;83,83808
 480,89; 2614,402;   60,254; 3171,026;82,10657
 481,48; 2614,606;   46,260; 3214,084;81,07602
 482,07; 2644,630;   61,654; 3233,866;81,42507
 482,66; 2626,225;   52,853; 3253,650;80,39785
 483,25; 2665,806;   78,960; 3319,884;79,81816
 483,83; 2642,075;   59,954; 3325,385;79,07441
 484,42; 2640,542;   54,354; 3355,129;78,35093
 485,01; 2685,407;   65,958; 3400,413;78,55702
 485,60; 2706,655;   73,764; 3490,590;77,05661
 486,18; 2721,252;   66,956; 3490,761;77,52473
 486,77; 2745,759;   67,252; 3519,736;77,58202
 487,36; 2791,927;   58,464; 3561,750;78,02568
 487,95; 2850,267;   59,161; 3640,781;77,92857
 488,53; 2848,294;   54,461; 3642,522;77,86471
 489,12; 2871,966;   50,563; 3722,252;76,84209
 489,71; 2886,644;   38,062; 3680,357;78,20843
 490,30; 2978,950;   61,460; 3742,503;79,25716
 490,88; 3033,239;   87,561; 3859,141;78,10195
 491,47; 3048,038;   60,663; 3867,512;78,47369
 492,06; 3062,177;   62,563; 3920,615;77,74946
 492,65; 3111,383;   59,161; 3947,060;78,50570
 493,23; 3134,934;   54,860; 3982,825;78,41398
 493,82; 3175,981;   65,853; 4018,031;78,69402
 494,41; 3167,228;   51,361; 4066,179;77,60916
 494,99; 3192,847;   73,655; 4126,945;76,95457
 495,58; 3231,050;   86,060; 4224,403;75,99636
 496,17; 3179,196;   56,356; 4198,681;75,38859
 496,76; 3218,352;   65,356; 4276,761;74,86803
 497,34; 3219,490;   54,557; 4305,235;74,45714
 497,93; 3231,818;   66,057; 4350,675;73,88665
 498,52; 3258,145;   60,059; 4454,387;72,77759
 499,10; 3262,816;   75,862; 4533,217;71,49878
 499,69; 3198,089;   55,360; 4537,006;70,12445
 500,28; 3188,601;   37,959; 4592,068;69,18239
 500,86; 3191,700;   62,862; 4698,539;67,49474
 501,45; 3181,400;   53,462; 4730,438;66,87949
 502,04; 3146,644;   53,362; 4813,958;64,97679
 502,62; 3142,196;   70,956; 4856,181;64,18174
 503,21; 3120,941;   57,856; 4939,699;62,74443
 503,80; 3125,888;   69,662; 5015,577;61,79295
 504,38; 3070,234;   58,460; 5081,425;59,96008
 504,97; 3045,588;   49,962; 5122,776;59,05255
 505,56; 3043,984;   70,859; 5194,989;58,02205
 506,14; 3025,099;   64,064; 5263,709;56,94686
 506,73; 2960,560;   23,565; 5292,507;55,74165
 507,32; 2953,148;   62,865; 5376,045;54,39837
 507,90; 2941,506;   70,860; 5443,284;53,43297
 508,49; 2952,932;   58,865; 5500,366;53,18508
 509,08; 2930,982;   67,264; 5571,931;52,02347
 509,66; 2902,978;   69,960; 5677,644;50,52029
 510,25; 2951,111;   63,561; 5737,400;50,89235
 510,83; 2940,860;   45,165; 5855,607;49,83605
 511,42; 2945,408;   61,968; 5895,913;49,42522
 512,01; 2951,943;   59,164; 5980,328;48,85490
 512,59; 2973,888;   46,562; 6041,676;48,82853
 513,18; 3000,427;   59,961; 6114,379;48,56728
 513,77; 3017,001;   42,257; 6171,797;48,53129
 514,35; 3044,305;   37,763; 6190,255;48,86706
 514,94; 3130,316;   58,662; 6323,517;49,02993
 515,52; 3127,009;   48,166; 6358,342;48,79172
 516,11; 3200,387;   80,665; 6474,047;48,79612
 516,69; 3209,173;   41,959; 6446,727;49,45087
 517,28; 3310,879;   83,358; 6541,973;49,97234
 517,87; 3269,334;   45,558; 6604,054;49,15421
 518,45; 3330,323;   74,858; 6626,192;49,69164
 519,04; 3367,740;   54,258; 6707,970;49,79899
 519,62; 3384,277;   55,863; 6774,114;49,54287
 520,21; 3416,981;   24,466; 6828,002;49,86400
 520,79; 3473,320;   52,068; 7000,875;49,23509
 521,38; 3499,222;   52,960; 6995,363;49,64077
 521,97; 3545,736;   43,068; 7141,554;49,34388
 522,55; 3567,112;   67,759; 7195,230;49,09670
 523,14; 3609,984;   26,759; 7180,289;50,09031
 523,72; 3671,895;   77,561; 7383,422;49,19795
 524,31; 3707,060;   71,665; 7406,107;49,56608
 524,89; 3754,448;   48,468; 7526,815;49,55613
 525,48; 3761,698;   21,666; 7603,580;49,32833
 526,06; 3757,043;   56,264; 7633,128;48,84315
 526,65; 3834,491;   72,370; 7803,105;48,66446
 527,23; 3858,333;   46,262; 7840,596;48,90823
 527,82; 3888,259;   37,967; 7905,978;48,93603
 528,41; 3954,126;   67,366; 8041,021;48,74502
 528,99; 3972,832;   66,365; 8108,167;48,57701
 529,58; 3974,361;   42,562; 8168,736;48,38438
 530,16; 4027,228;   49,461; 8315,379;48,12250
 530,75; 4142,971;   73,964; 8417,069;48,77089
 531,33; 4138,498;   45,566; 8440,980;48,75199
 531,92; 4176,878;   48,560; 8567,344;48,46135
 532,50; 4280,702;   87,770; 8706,468;48,64926
 533,09; 4317,121;   65,665; 8807,204;48,63509
 533,67; 4380,167;   63,458; 8952,011;48,56482
 534,26; 4447,461;   65,760; 9007,665;49,00188
 534,84; 4518,883;   68,461; 9127,061;49,12925
 535,42; 4592,371;   61,564; 9205,969;49,54732
 536,01; 4726,377;   79,263; 9330,215;50,23390
 536,59; 4774,682;   43,366; 9482,202;50,12605
 537,18; 4969,589;   77,360; 9568,605;51,54465
 537,76; 5046,013;   56,972; 9764,700;51,39247
 538,35; 5134,264;   59,368; 9892,694;51,60915
 538,93; 5285,343;   72,664; 9941,828;52,81784
 539,52; 5387,791;   57,370;10111,405;53,01773
 540,10; 5529,614;   63,269;10309,029;53,35226
 540,69; 5606,010;   68,763;10444,071;53,36947
 541,27; 5689,516;   58,262;10514,917;53,85330
 541,85; 5867,737;   47,366;10658,783;54,85009
 542,44; 5912,206;   56,460;10765,484;54,68048
 543,02; 6116,313;   80,369;10952,729;55,51641
 543,61; 6248,086;   77,067;11102,218;55,97220
 544,19; 6250,965;   55,066;11264,023;55,27632
 544,78; 6334,454;   62,766;11296,562;55,82875
 545,36; 6502,769;   77,469;11521,011;56,14783
 545,94; 6558,271;   54,564;11563,069;56,51218
 546,53; 6567,668;   52,771;11724,882;55,81593
 547,11; 6726,480;   90,668;11879,873;56,28719
 547,70; 6725,290;   75,860;11954,706;55,97707
 548,28; 6793,132;   47,965;12093,066;55,99925
 548,86; 6910,832;   81,365;12327,767;55,76713
 549,45; 6949,836;   33,768;12364,953;56,08600
 550,03; 7035,731;   76,467;12507,537;55,98282
 550,62; 7092,009;   63,566;12662,842;55,78450
 551,20; 7225,287;   61,467;12808,418;56,20026
 551,78; 7236,827;   61,164;12952,850;55,66117
 552,37; 7334,171;   55,864;13112,469;55,74425
 552,95; 7356,587;   56,765;13214,547;55,47913
 553,54; 7479,660;   49,965;13393,207;55,68133
 554,12; 7542,203;   67,167;13498,797;55,65249
 554,70; 7681,380;   67,568;13736,973;55,69966
 555,29; 7687,176;   61,965;13856,285;55,27791
 555,87; 7785,347;   60,170;13987,786;55,46661
 556,45; 7830,544;   57,162;14154,058;55,14251
 557,04; 7938,842;   43,667;14376,600;55,08416
 557,62; 8021,642;   68,867;14525,499;55,01126
 558,20; 8070,840;   42,671;14799,940;54,40145
 558,79; 8170,720;  100,368;14905,875;54,50912
 559,37; 8210,387;   49,867;15000,418;54,58340
 559,95; 8319,125;   46,669;15169,691;54,70108
 560,54; 8350,708;   71,768;15324,613;54,27800
 561,12; 8411,953;   50,866;15485,562;54,17073
 561,70; 8552,297;   50,369;15679,551;54,39778
 562,29; 8606,564;   61,768;15810,994;54,25534
 562,87; 8704,136;   73,168;16023,953;54,10999
 563,45; 8766,437;   71,068;16194,754;53,92916
 564,04; 8761,633;   54,362;16227,195;53,83887
 564,62; 8867,353;   37,769;16438,332;53,83708
 565,20; 8937,800;   59,962;16715,838;53,30154
 565,78; 9102,704;   70,765;16797,326;53,99759
 566,37; 9152,938;   71,066;17011,283;53,61131
 566,95; 9193,113;   52,969;17124,330;53,54081
 567,53; 9263,145;   67,262;17308,857;53,33545
 568,12; 9230,932;   62,265;17367,766;52,98123
 568,70; 9438,716;   85,264;17565,889;53,50754
 569,28; 9509,497;   61,069;17745,252;53,42869
 569,86; 9546,715;   67,767;17910,758;53,12421
 570,45; 9635,586;   78,569;18124,689;52,95884
 571,03; 9688,472;   53,962;18259,898;52,91961
 571,61; 9739,035;   46,571;18424,824;52,73877
 572,19; 9779,949;   54,263;18395,773;53,02555
 572,78; 9865,020;   70,668;18668,975;52,66260
 573,36;10023,371;   84,264;18797,668;53,11223
 573,94; 9973,727;   44,064;18892,750;52,68093
 574,52;10116,501;   54,559;19030,768;53,02398
 575,11;10122,782;   37,264;19159,830;52,74145
 575,69;10222,397;   53,566;19268,680;52,92100
 576,27;10249,767;   47,161;19391,381;52,74240
 576,85;10317,971;   43,264;19549,668;52,67350
 577,44;10352,444;   30,262;19814,158;52,17467
 578,02;10378,845;   32,159;19753,887;52,46338
 578,60;10476,954;   50,464;20073,791;52,07172
 579,18;10574,065;   51,963;20160,752;52,32589
 579,76;10629,943;   40,264;20300,129;52,26925
 580,35;10657,930;   60,170;20436,707;52,00962
 580,93;10763,575;   59,667;20641,557;52,00644
 581,51;10801,702;   24,770;20697,168;52,13199
 582,09;10880,205;   58,663;20755,756;52,28533
 582,67;11029,486;   49,567;20971,318;52,48088
 583,26;11039,108;   28,568;21227,014;51,94032
 583,84;11095,398;   14,164;21413,709;51,78257
 584,42;11213,315;   48,064;21513,287;52,01554
 585,00;11346,198;   81,366;21772,180;51,93365
 585,58;11402,143;   25,167;21912,299;51,98020
 586,17;11427,994;   46,761;21948,521;51,96492
 586,75;11341,081;    6,666;22026,902;51,47272
 587,33;11476,959;   47,767;22191,678;51,61325
 587,91;11556,382;   74,866;22390,201;51,45124
 588,49;11537,944;   63,962;22349,758;51,48563
 589,07;11523,947;   45,468;22403,215;51,34005
 589,65;11506,271;   28,267;22444,439;51,20412
 590,24;11543,472;   42,562;22447,799;51,33135
 590,82;11509,283;   28,261;22484,160;51,12698
 591,40;11598,599;   41,464;22520,209;51,41361
 591,98;11491,573;   45,759;22558,227;50,84211
 592,56;11576,983;   61,161;22699,961;50,86764
 593,14;11608,673;   43,359;22728,928;50,98093
 593,72;11558,760;   29,765;22889,107;50,43450
 594,30;11576,145;   36,759;22797,486;50,69867
 594,89;11519,043;   41,364;22862,428;50,29423
 595,47;11561,795;   38,961;22922,623;50,35398
 596,05;11539,442;   30,267;23003,799;50,09755
 596,63;11613,643;   31,167;23056,199;50,30384
 597,21;11613,009;   36,766;23145,441;50,09479
 597,79;11651,271;   35,467;23166,039;50,21840
 598,37;11639,258;   36,669;23222,748;50,04118
 598,95;11591,581;   50,766;23305,301;49,62823
 599,53;11615,401;   46,757;23207,996;49,94830
 600,11;11738,688;   48,665;23341,947;50,18624
 600,70;11589,938;   57,363;23315,111;49,58595
 601,28;11652,099;   38,564;23424,809;49,65968
 601,86;11589,182;   61,766;23355,102;49,48804
 602,44;11594,483;   23,661;23449,660;49,39308
 603,02;11635,124;   38,656;23576,521;49,26729
 603,60;11782,751;   54,858;23663,232;49,67683
 604,18;11660,521;   69,263;23594,734;49,27110
 604,76;11640,205;   59,263;23642,154;49,10739
 605,34;11575,493;   27,565;23530,764;49,13343
 605,92;11481,955;   59,561;23453,719;48,82584
 606,50;11385,872;   17,662;23498,998;48,41381
 607,08;11313,598;   31,666;23394,881;48,28929
 607,66;11397,109;   39,266;23561,643;48,28527
 608,24;11236,314;   46,067;23522,059;47,66677
 608,82;11130,582;   26,164;23532,031;47,24105
 609,40;10969,525;   46,466;23471,021;46,63081
 609,98;10851,343;   18,864;23505,928;46,12104
 610,56;10720,622;   43,861;23497,662;45,52252
 611,14;10532,076;   30,765;23481,086;44,78110
 611,72;10360,132;   42,665;23572,467;43,84851
 612,30;10187,732;   24,962;23468,496;43,34999
 612,88;10092,412;   60,659;23517,730;42,76644
 613,46; 9879,372;   21,862;23505,697;41,97573
 614,04; 9772,181;   30,068;23461,873;41,57645
 614,62; 9621,767;   41,561;23489,982;40,85651
 615,20; 9548,247;   52,768;23402,416;40,66648
 615,78; 9382,313;   25,569;23463,430;39,92149
 616,36; 9454,227;   41,364;23400,150;40,29688
 616,94; 9347,109;    7,666;23272,242;40,14448
 617,52; 9336,676;   24,067;23373,656;39,88339
 618,10; 9408,429;   63,559;23336,107;40,15405
 618,68; 9349,837;   17,966;23253,184;40,16262
 619,26; 9455,191;   39,268;23398,834;40,30864
 619,84; 9284,422;   18,963;23277,133;39,83744
 620,42; 9357,260;   31,165;23313,506;40,05652
 621,00; 9273,859;   28,865;23209,607;39,88222
 621,58; 9300,390;   38,760;23216,406;39,95932
 622,16; 9231,463;   49,270;23335,164;39,43242
 622,74; 9190,810;   47,066;23327,742;39,27611
 623,32; 9185,564;   42,166;23291,223;39,32804
 623,90; 9113,207;   66,971;23311,484;38,91773
 624,48; 8963,072;   32,662;23196,598;38,55308
 625,05; 8942,072;   34,562;23105,098;38,60990
 625,63; 8858,771;   52,962;23188,799;38,06134
 626,21; 8898,232;   38,262;23117,596;38,38919
 626,79; 8900,387;   53,967;23219,719;38,18749
 627,37; 8853,517;   28,162;23090,717;38,26703
 627,95; 8860,247;   72,768;23200,215;37,99589
 628,53; 8864,460;   49,365;23176,607;38,11563
 629,11; 8883,057;   48,259;23043,449;38,42020
 629,69; 8979,853;   53,369;23256,932;38,47032
 630,27; 9017,922;   80,763;23105,434;38,81558
 630,84; 9027,372;   43,862;23021,197;39,09727
 631,42; 9084,676;   54,367;23319,656;38,81451
 632,00; 9102,501;   45,459;23125,768;39,24142
 632,58; 9113,610;   50,263;23105,172;39,31201
 633,16; 9143,191;   49,870;23096,906;39,45549
 633,74; 9132,216;   56,264;23018,488;39,52558
 634,32; 9023,639;   45,661;23007,842;39,09898
 634,90; 9070,818;   51,970;23195,746;38,96878
 635,47; 8998,878;   38,860;23035,645;38,96205
 636,05; 8858,739;   37,461;22989,342;38,43379
 636,63; 8784,160;   45,965;23104,807;37,89521
 637,21; 8629,843;   67,464;23150,529;37,09377
 637,79; 8593,320;   71,465;23192,904;36,85694
 638,37; 8441,436;   54,055;23070,883;36,44021
 638,94; 8243,576;   33,265;23100,686;35,59267
 639,52; 8129,276;   41,665;23195,285;34,93022
 640,10; 8039,748;   64,264;23215,900;34,44890
 640,68; 7958,203;   54,164;23175,334;34,18529
 641,26; 7810,958;   35,864;23250,268;33,49254
 641,84; 7761,313;   39,164;23235,002;33,29110
 642,41; 7707,868;   28,264;23192,936;33,15223
 642,99; 7735,623;   48,464;23145,568;33,28192
 643,57; 7691,478;   22,064;23158,402;33,14878
 644,15; 7711,733;   27,064;23178,035;33,19372
 644,73; 7829,789;   37,564;23277,568;33,52936
 645,30; 7891,543;   55,264;23230,303;33,81345
 645,88; 7956,898;   44,964;23362,635;33,93107
 646,46; 8059,253;   59,264;23447,568;34,20508
 647,04; 8141,009;   51,864;23367,902;34,69348
 647,61; 8246,964;   46,564;23396,336;35,11983
 648,19; 8311,619;   61,664;23433,369;35,29890
 648,77; 8365,874;   26,264;23442,002;35,61540
 649,35; 8393,529;   51,064;23590,137;35,44092
 649,92; 8440,884;   42,464;23596,070;35,65662
 650,50; 8358,739;   30,064;23551,104;35,40947
 651,08; 8379,994;   39,964;23450,537;35,62506
 651,66; 8302,749;   21,864;23534,770;35,21847
 652,23; 8274,604;   39,064;23561,004;35,01216
 652,81; 8243,159;   36,464;23644,137;34,76283
 653,39; 8126,615;   56,164;23647,170;34,20986
 653,97; 8114,270;   37,065;23882,504;33,87316
 654,54; 7968,525;   23,565;23823,137;33,38279
 655,12; 7841,880;   30,965;23831,971;32,81758
 655,70; 7837,935;   42,065;23962,805;32,59042
 656,28; 7827,890;   32,765;23947,037;32,59612
 656,85; 7728,245;   44,065;24051,070;32,00808
 657,43; 7640,600;   -1,035;23831,305;32,06414
 658,01; 7738,755;   21,465;24078,539;32,07909
 658,58; 7787,110;   55,165;24234,371;31,97767
 659,16; 7768,865;   51,965;24154,105;32,01749
 659,74; 7896,920;   59,465;24338,039;32,28137
 660,32; 7989,175;   71,665;24327,672;32,64144
 660,89; 8020,730;   34,265;24347,305;32,84849
 661,47; 8119,286;   51,665;24464,939;33,04604
 662,05; 8212,440;   25,365;24587,373;33,33227
 662,62; 8409,195;   59,665;24584,006;34,04589
 663,20; 8521,650;   80,665;24740,139;34,23019
 663,78; 8705,906;   47,965;24902,773;34,83407
 664,35; 8773,761;   52,465;24921,006;35,06959
 664,93; 8786,816;   64,465;25123,539;34,80716
 665,51; 8857,771;   49,565;25170,973;35,06255
 666,08; 8822,526;   30,165;25185,707;34,95199
 666,66; 8951,981;   47,465;25667,539;34,75601
 667,23; 9024,336;   51,765;25732,773;34,93855
 667,81; 9014,092;   65,865;25889,307;34,65157
 668,39; 9025,146;   43,265;26047,141;34,54055
 668,96; 9014,901;   54,665;26309,074;34,12850
 669,54; 8985,757;   38,765;26408,408;33,92913
 670,12; 9053,912;   51,165;26808,740;33,64560
 670,69; 8956,367;   64,165;26950,674;33,07310
 671,27; 8879,021;   25,565;27096,008;32,70525
 671,84; 8846,877;   40,665;27105,240;32,53778
 672,42; 8869,832;   66,265;27253,875;32,38080
 673,00; 8822,987;   57,165;27531,408;31,90560
 673,57; 8768,242;   59,965;27276,441;31,99634
 674,15; 8823,397;   64,065;27613,475;31,79499
 674,72; 8784,752;   58,565;27536,209;31,75740
 675,30; 8867,407;   69,466;27513,541;32,05771
 675,88; 8950,162;   36,266;27573,176;32,37072
 676,45; 9068,918;   59,466;27677,309;32,62185
 677,03; 9155,873;   67,866;27525,043;33,09884
 677,60; 9261,328;   41,466;27770,576;33,24976
 678,18; 9393,283;   59,466;27877,510;33,55311
 678,76; 9450,438;   40,766;27809,143;33,88629
 679,33; 9613,093;   57,666;27813,176;34,42714
 679,91; 9724,948;   44,266;27813,311;34,86142
 680,48; 9775,604;   28,766;27740,242;35,17257
 681,06; 9876,858;   50,866;27735,176;35,49300
 681,63; 9911,514;   37,566;27736,209;35,64777
 682,21; 9997,269;   67,966;27797,543;35,80762
 682,78; 9925,823;   20,566;27459,576;36,09918
 683,36; 9962,578;   46,966;27565,510;36,03247
 683,93; 9959,033;   30,466;27450,645;36,20898
 684,51; 9852,988;   26,166;27477,277;35,79754
 685,08; 9884,544;   38,966;27733,711;35,55035
 685,66; 9816,299;   53,066;27694,045;35,32159
 686,24; 9785,754;   33,766;27796,578;35,12608
 686,81; 9748,609;   57,666;27899,910;34,80662
 687,39; 9642,664;   38,866;27807,844;34,58463
 687,96; 9559,719;   54,166;27850,479;34,19717
 688,54; 9528,374;   30,866;27984,811;33,97556
 689,11; 9544,630;   26,966;28043,545;33,97154
 689,69; 9424,784;   29,666;28019,279;33,56644
 690,26; 9469,340;   59,466;28289,313;33,33307
 690,84; 9449,795;   50,066;28239,846;33,34446
 691,41; 9448,449;   35,966;28403,879;33,18003
 691,98; 9460,104;   31,466;28427,912;33,20359
 692,56; 9536,860;   32,866;28437,445;33,45937
 693,13; 9710,215;   64,866;28655,080;33,73654
 693,71; 9800,271;   24,466;28657,912;34,14121
 694,28; 9861,525;   41,966;28715,945;34,24554
 694,86;10017,480;   47,266;28928,879;34,52097
 695,43;10159,436;   61,366;29100,912;34,77351
 696,01;10339,190;   36,266;29145,547;35,39395
 696,58;10417,745;   42,167;29083,879;35,72647
 697,16;10577,801;   38,067;29126,414;36,23353
 697,73;10777,855;   63,467;29338,246;36,59938
 698,30;10817,211;   51,867;29223,980;36,90286
 698,88;10987,966;   40,467;29558,613;37,08735
 699,45;11082,321;   35,367;29765,848;37,15700
 700,03;11149,476;   56,067;29750,980;37,35794
 700,60;11256,531;   56,267;29850,613;37,59191
 701,18;11337,386;   61,867;29963,947;37,70814
 701,75;11423,041;   74,367;30094,682;37,80332
 702,32;11315,996;   50,367;29901,914;37,73885
 702,90;11330,151;   52,467;30254,148;37,34125
 703,47;11378,807;   51,367;30428,881;37,28890
 704,05;11363,361;   67,767;30546,715;37,06032
 704,62;11260,717;   39,867;30587,848;36,73189
 705,19;11311,672;   43,667;30586,982;36,89189
 705,77;11258,827;   29,967;30618,314;36,70960
 706,34;11272,882;   61,667;30627,049;36,67945
 706,91;11239,837;   46,367;30673,883;36,54710
 707,49;11302,692;   57,267;30976,316;36,37054
 708,06;11270,447;   66,367;31089,049;36,11577
 708,64;11228,202;   25,767;31093,582;36,05801
 709,21;11349,058;   58,167;31179,316;36,28044
 709,78;11376,612;   41,367;31281,150;36,28465
 710,36;11544,968;   61,667;31419,684;36,61998
 710,93;11694,822;   50,567;31562,416;36,95199
 711,50;11772,777;   44,467;31506,049;37,27820
 712,08;11888,133;   76,567;31925,383;37,08636
 712,65;11950,987;   73,667;31775,916;37,46523
 713,22;12121,543;   69,067;31900,250;37,86374
 713,80;12280,698;   84,167;31966,883;38,25437
 714,37;12372,853;   55,767;31827,018;38,76802
 714,94;12494,208;   53,967;31727,551;39,27639
 715,52;12645,363;   47,867;31732,984;39,75840
 716,09;12763,818;   65,467;31891,918;39,89873
 716,66;12816,073;   73,467;31935,051;39,99364
 717,23;12962,528;   66,867;31908,484;40,49939
 717,81;12982,483;   50,168;31812,018;40,71651
 718,38;12971,339;   47,468;31671,252;40,86757
 718,95;13059,094;   59,068;31618,984;41,19157
 719,53;13141,349;   56,568;31661,418;41,40118
 720,10;13100,903;   59,968;31481,252;41,50351
 720,67;13061,858;   35,768;31355,984;41,59004
 721,24;13078,514;   59,468;31256,020;41,73232
 721,82;12956,569;   49,968;31236,053;41,38577
 722,39;13081,024;   64,068;31235,885;41,75874
 722,96;13055,679;   64,968;31261,420;41,64163
 723,53;12987,935;   88,268;31151,953;41,52652
 724,11;13113,589;   61,568;31207,486;41,90604
 724,68;13115,044;   71,568;31242,020;41,84564
 725,25;13216,300;   72,768;31399,953;41,95567
 725,82;13260,755;   96,068;31564,387;41,83473
 726,40;13281,210;   62,668;31714,820;41,76191
 726,97;13297,165;   62,168;31875,354;41,60224
 727,54;13309,220;   46,968;31801,486;41,76493
 728,11;13577,475;   49,568;32045,820;42,27966
 728,69;13627,030;   39,568;31938,953;42,59475
 729,26;13651,985;   53,568;32105,088;42,42675
 729,83;13811,340;   53,268;32264,621;42,71187
 730,40;13995,896;   66,768;32291,754;43,22462
 730,97;14129,950;   44,268;32590,588;43,27888
 731,55;14336,306;   41,468;32755,820;43,69592
 732,12;14312,460;   86,268;32841,656;43,43161
 732,69;14415,216;   66,968;32889,988;43,71398
 733,26;14505,471;   55,168;32930,520;43,95482
 733,83;14565,726;   41,168;32979,055;44,09681
 734,41;14784,480;   65,468;32991,590;44,70315
 734,98;14868,235;   51,368;33155,621;44,75820
 735,55;15141,291;   43,168;33183,656;45,55794
 736,12;15203,946;   65,968;33377,289;45,44394
 736,69;15273,401;   76,968;33377,922;45,63363
 737,26;15217,456;   57,468;33552,254;45,26074
 737,84;15290,711;   70,768;33487,188;45,54630
 738,41;15336,767;   63,168;33492,422;45,68932
 738,98;15382,621;   63,569;33375,055;45,98730
 739,55;15352,977;   49,669;33377,789;45,91710
 740,12;15523,031;   62,969;33678,023;45,99148
 740,69;15487,286;   70,569;33575,656;46,01306
 741,26;15517,142;   56,269;33557,391;46,15031
 741,83;15516,696;   53,869;33719,523;45,93057
 742,41;15582,651;   56,169;33833,055;45,96777
 742,98;15608,307;   91,469;33874,590;45,93074
 743,55;15604,062;   53,569;33836,824;46,03018
 744,12;15672,117;   50,469;33859,855;46,20506
 744,69;15737,972;   59,569;33848,492;46,40101
 745,26;15664,927;   42,169;33677,723;46,44716
 745,83;15784,683;   58,769;33854,355;46,53245
 746,40;15719,237;   57,969;33844,789;46,35319
 746,97;15744,093;   44,769;33828,125;46,47059
 747,55;15798,447;   62,269;33966,957;46,41299
 748,12;15923,303;   57,869;33910,191;46,86660
 748,69;15973,258;   68,769;33877,625;47,04237
 749,26;16072,813;   65,069;33958,559;47,22955
 749,83;16085,067;   42,569;33911,992;47,36573
 750,40;16247,923;   89,669;34158,824;47,42781
 750,97;16304,778;   96,269;34144,160;47,60503
 751,54;16198,033;   40,569;33980,793;47,60565
 752,11;16269,988;   52,969;33874,727;47,94848
 752,68;16300,443;   87,869;33912,859;47,93076
 753,25;16344,099;   60,269;33774,594;48,29944
 753,82;16273,054;   65,069;33810,527;48,03012
 754,39;16286,408;   75,169;33727,160;48,17319
 754,96;16325,363;   60,069;33616,395;48,47162
 755,53;16448,619;   29,469;33796,527;48,62476
 756,10;16334,474;   64,169;33720,961;48,34182
 756,67;16280,229;   73,369;33813,395;48,03452
 757,24;16253,084;   72,769;33740,426;48,05893
 757,81;16145,539;   16,469;33677,762;47,91578
 758,38;16124,494;   54,569;33822,695;47,58903
 758,95;16169,849;   79,469;33743,426;47,79705
 759,52;16166,604;   57,469;33615,859;48,00330
 760,09;16036,060;   68,570;33306,992;48,03925
 760,66;16032,814;   59,570;33309,727;48,03961
 761,23;16017,770;   91,070;33353,961;47,88129
 761,80;15896,824;   56,270;33295,793;47,65578
 762,37;15952,079;   68,970;33167,727;47,98703
 762,94;16029,435;   70,970;33187,461;48,18888
 763,51;15970,390;   36,070;32949,793;48,41239
 764,08;15992,245;   66,270;32998,527;48,35980
 764,65;15834,600;   69,570;32798,961;48,16781
 765,22;15867,455;   54,670;32804,496;48,28357
 765,79;15903,910;   77,370;32691,928;48,52600
 766,36;15748,165;   73,170;32743,063;47,97994
 766,93;15878,920;   68,970;32551,295;48,67247
 767,50;15943,675;   89,470;32828,328;48,42626
 768,07;15929,431;   63,870;32699,262;48,61459
 768,64;15957,386;   86,470;32572,596;48,85444
 769,21;15779,841;   57,970;32359,729;48,67187
 769,78;15800,296;   78,770;32244,963;48,87593
 770,34;15729,150;   45,570;32031,195;49,03321
 770,91;15681,806;   58,470;31921,430;49,03291
 771,48;15676,161;   62,370;31836,863;49,13939
 772,05;15601,116;   66,470;31610,697;49,24719
 772,62;15566,471;   42,670;31443,029;49,43829
 773,19;15684,526;   59,370;31579,764;49,57158
 773,76;15688,981;   71,070;31506,297;49,68283
 774,33;15593,236;   74,170;31447,330;49,46606
 774,90;15388,791;   52,870;31206,064;49,22744
 775,47;15346,446;   59,970;30957,498;49,47475
 776,03;15334,401;   73,470;30984,330;49,37078
 776,60;15304,257;   55,970;30757,863;49,66562
 777,17;15248,911;   65,470;30698,098;49,56624
 777,74;15045,267;   30,870;30522,031;49,24180
 778,31;15130,122;   68,970;30582,064;49,35963
 778,88;14927,477;   30,470;30366,898;49,10600
 779,45;14835,032;   75,770;30358,131;48,73881
 780,01;14823,187;   58,370;30299,664;48,82336
 780,58;14695,942;   60,570;30177,998;48,59436
 781,15;14625,797;   38,771;29979,432;48,71979
 781,72;14642,353;   66,771;29962,266;48,75511
 782,29;14478,507;   51,771;29667,100;48,71375
 782,86;14460,263;   55,571;29617,732;48,72679
 783,42;14434,117;   56,171;29598,166;48,66952
 783,99;14374,473;   66,671;29482,100;48,64047
 784,56;14359,628;   55,171;29320,232;48,87896
 785,13;14270,982;   40,271;29247,266;48,72364
 785,70;14199,138;   49,071;29060,299;48,77445
 786,26;14142,692;   51,671;28910,732;48,82703
 786,83;14133,647;   84,371;28889,166;48,77409
 787,40;14112,603;   57,171;28783,500;48,92874
 787,97;13995,258;   43,971;28581,133;48,88814
 788,54;13981,413;   70,371;28515,268;48,90523
 789,10;13904,168;   57,971;28344,400;48,94996
 789,67;13944,823;   70,371;28245,334;49,24391
 790,24;13849,278;   51,071;28193,768;49,02944
 790,81;13793,733;   88,271;27914,400;49,25393
 791,37;13697,688;   73,671;27872,135;49,00997
 791,94;13684,943;   70,771;27886,367;48,94438
 792,51;13521,299;   46,271;27539,201;49,01270
 793,08;13549,354;   69,771;27555,234;49,04259
 793,64;13551,108;   71,271;27455,168;49,22542
 794,21;13375,764;   69,671;27250,602;48,95378
 794,78;13265,819;   53,071;27147,035;48,76639
 795,35;13129,374;   73,471;27007,969;48,47279
 795,91;13135,329;   48,071;26789,301;48,94037
 796,48;13011,185;   55,771;26710,734;48,60413
 797,05;13002,640;   57,671;26624,369;48,72630
 797,62;12918,794;   41,971;26600,701;48,48433
 798,18;12759,249;   57,471;26410,736;48,19812
 798,75;12671,505;   56,571;26279,770;48,10601
 799,32;12644,560;   60,771;26209,102;48,12463
 799,88;12579,415;   55,971;26051,535;48,17531
 800,45;12407,970;   33,971;25945,270;47,75522
 801,02;12500,625;   65,271;25880,104;48,17135
 801,58;12487,479;   90,872;25660,436;48,48189
 802,15;12310,135;   72,872;25615,270;47,90961
 802,72;12289,090;   66,172;25404,703;48,23846
 803,28;12194,245;   49,172;25288,938;48,11880
 803,85;12170,400;   41,972;25144,871;48,31485
 804,42;12169,455;   77,772;24948,004;48,61910
 804,98;12128,410;  100,672;24935,537;48,43086
 805,55;12006,766;   56,972;24702,371;48,48692
 806,12;11960,120;   83,572;24611,004;48,42149
 806,68;11856,075;   66,472;24493,738;48,26411
 807,25;11861,730;   74,972;24436,271;48,38313
 807,82;11892,586;   86,872;24407,805;48,54137
 808,38;11836,741;   73,672;24367,037;48,42091
 808,95;11816,596;   62,972;24166,971;48,76213
 809,52;11757,751;   50,272;24162,004;48,55511
 810,08;11647,606;   55,172;23994,938;48,42334
 810,65;11738,461;   77,172;24169,672;48,40215
 811,21;11818,716;   69,972;24123,404;48,84435
 811,78;11764,472;   92,472;24337,539;48,14175
 812,35;11722,326;   64,972;24173,871;48,35291
 812,91;11794,281;   90,072;24239,705;48,46537
 813,48;11607,337;   68,172;24202,738;47,81178
 814,04;11639,191;   64,172;24088,373;48,18066
 814,61;11605,747;   77,572;24176,006;47,83786
 815,18;11505,302;   67,772;23892,539;48,00689
 815,74;11422,257;   69,772;23709,172;48,02357
 816,31;11461,812;   83,372;23614,406;48,35503
 816,87;11232,967;   43,272;23489,641;47,72464
 817,44;11166,422;   76,972;23452,273;47,44088
 818,00;11070,277;   43,272;23159,506;47,70243
 818,57;11018,832;   71,872;23076,340;47,58623
 819,14;10907,487;   82,872;22924,273;47,39033
 819,70;10829,242;   72,672;22792,707;47,34399
 820,27;10754,197;   62,972;22691,941;47,24574
 820,83;10797,853;   70,072;22541,373;47,73992
 821,40;10707,708;   98,072;22431,908;47,50476
 821,96;10647,663;   75,272;22315,541;47,53715
 822,53;10630,218;   70,973;22257,574;47,59289
 823,09;10545,272;   81,073;22073,309;47,58134
 823,66;10477,628;   68,173;21862,541;47,76213
 824,22;10472,183;   77,173;21851,674;47,73937
 824,79;10487,838;   75,473;21561,408;48,46131
 825,35;10362,394;   65,173;21648,041;47,71016
 825,92;10273,748;   75,173;21398,875;47,82741
 826,48;10230,203;   87,673;21501,309;47,36482
 827,05;10056,259;   89,573;21448,242;46,66342
 827,61;10123,014;   75,273;21249,076;47,45364
 828,18;10091,969;   60,873;21191,209;47,47249
 828,74;10044,624;   91,673;21053,543;47,48122
 829,31;10051,079;   83,373;21002,176;47,64951
 829,87; 9960,634;   73,073;20733,709;47,85700
 830,44; 9883,989;   85,173;20631,443;47,69146
 831,00; 9883,044;   91,273;20673,977;47,57281
 831,57; 9853,099;  101,573;20631,609;47,49882
 832,13; 9682,254;   72,073;20323,344;47,45471
 832,69; 9638,709;   58,173;20309,477;47,30824
 833,26; 9578,164;   85,473;20322,711;46,90705
 833,82; 9511,119;   93,073;20197,744;46,84506
 834,39; 9540,774;   78,773;20137,477;47,17155
 834,95; 9440,729;   57,173;19959,410;47,14825
 835,52; 9369,784;   87,873;19851,744;46,96403
 836,08; 9348,840;   95,573;19951,877;46,60115
 836,64; 9286,295;   76,273;19800,711;46,69346
 837,21; 9244,750;   88,673;19552,443;47,04164
 837,77; 9225,005;   91,873;19491,777;47,07823
 838,34; 9106,260;   67,473;19470,012;46,58559
 838,90; 9060,915;   64,473;19306,045;46,75523
 839,46; 9045,271;   83,873;19312,479;46,60451
 840,03; 8995,125;   76,173;19300,811;46,39334
 840,59; 9010,880;   85,873;19175,645;46,75282
 841,16; 8893,936;  105,173;19156,578;46,13183
 841,72; 8890,290;   59,373;18965,512;46,70926
 842,28; 8868,745;   77,873;18857,246;46,81132
 842,85; 8887,900;   95,573;18812,578;46,97507
 843,41; 8867,956;  105,374;18740,813;47,02107
 843,97; 8803,311;   89,174;18686,846;46,85606
 844,54; 8685,766;  104,774;18624,979;46,33314
 845,10; 8648,421;   89,174;18523,713;46,43049
 845,67; 8664,676;   68,774;18413,445;46,85776
 846,23; 8578,131;   78,674;18361,080;46,48982
 846,79; 8488,586;   90,474;18265,613;46,20659
 847,36; 8434,541;   55,774;18179,047;46,23209
 847,92; 8413,696;   84,874;18034,680;46,40063
 848,48; 8322,151;   41,874;18039,213;46,00834
 849,04; 8306,307;   62,374;17949,447;46,08877
 849,61; 8268,962;   56,274;17918,580;45,97776
 850,17; 8197,217;   68,174;17819,514;45,79397
 850,73; 8199,472;   71,474;17764,848;45,93809
 851,30; 8047,927;   46,074;17669,881;45,40366
 851,86; 7990,682;   75,874;17597,914;45,17058
 852,42; 7941,537;   51,174;17568,348;45,04359
 852,99; 8008,492;   79,274;17583,082;45,29996
 853,55; 7896,247;   83,174;17542,514;44,75011
 854,11; 7815,802;   70,074;17432,049;44,61318
 854,67; 7804,957;   85,474;17420,881;44,53015
 855,24; 7800,112;   51,874;17213,414;45,14885
 855,80; 7772,667;   76,874;17244,848;44,82645
 856,36; 7745,623;   80,574;17175,881;44,83715
 856,92; 7688,178;   54,474;17027,215;44,97626
 857,49; 7733,232;   81,274;17048,248;45,09913
 858,05; 7693,188;   67,274;16968,482;45,12052
 858,61; 7714,643;   65,774;17003,316;45,15926
 859,17; 7707,698;   77,374;16904,250;45,34605
 859,74; 7685,253;   82,074;16836,883;45,37908
 860,30; 7584,808;   93,074;16663,016;45,21280
 860,86; 7530,663;   72,074;16692,350;44,87645
 861,42; 7512,518;   74,674;16545,883;45,15664
 861,99; 7425,673;   54,674;16506,717;44,80294
 862,55; 7415,928;   66,374;16393,051;45,01562
 863,11; 7429,083;   75,174;16437,283;44,94475
 863,67; 7407,338;   61,274;16290,117;45,26548
 864,23; 7309,894;   80,175;16199,351;44,85167
 864,80; 7270,949;   69,175;16081,384;44,97677
 865,36; 7217,704;   71,875;16120,817;44,52523
 865,92; 7145,759;   96,175;16088,751;44,08035
 866,48; 7063,314;   67,375;15987,384;43,94432
 867,04; 6967,969;   60,675;15891,418;43,63215
 867,60; 6959,024;   99,375;15884,451;43,45655
 868,17; 6987,879;   93,675;15884,685;43,65905
 868,73; 6867,734;   82,775;15672,618;43,52167
 869,29; 6783,389;   59,475;15470,151;43,63153
 869,85; 6793,145;  100,475;15369,685;43,83115
 870,41; 6755,000;   80,575;15293,418;43,87362
 870,97; 6711,555;   92,975;15232,252;43,71794
 871,54; 6609,010;   84,175;15178,686;43,22654
 872,10; 6639,064;   84,275;15055,419;43,78282
 872,66; 6625,620;   66,775;14910,652;44,18552
 873,22; 6527,675;   81,975;14890,586;43,52670
 873,78; 6438,230;   65,275;14742,419;43,42095
 874,34; 6437,885;   95,075;14662,652;43,54059
 874,90; 6422,485;  109,775;14536,053;43,75841
 875,46; 6407,785;   96,375;14412,952;44,08463
 876,03; 6365,885;   86,475;14363,353;43,98308
 876,59; 6292,585;   64,475;14153,253;44,20618
 877,15; 6288,885;  101,475;14166,853;43,99036
 877,71; 6251,985;   78,275;14064,652;44,14088
 878,27; 6219,285;   95,675;13910,553;44,32620
 878,83; 6211,185;  114,275;13971,753;43,99726
 879,39; 6144,685;   91,075;14082,753;43,26579
 879,95; 6071,085;   86,275;13964,253;43,12451
 880,51; 6011,985;   75,175;13927,253;42,85862
 881,07; 6003,585;   82,375;13978,753;42,60974
 881,63; 6037,185;   92,575;13971,253;42,83268
 882,19; 5950,685;   82,675;13921,553;42,40235
 882,75; 5959,085;   86,275;14019,553;42,14952
 883,31; 5996,785;   95,575;14187,853;41,87549
 883,88; 5992,485;   96,375;14174,353;41,88180
 884,44; 6035,085;   76,175;14175,753;42,26304
 885,00; 6061,685;  106,075;14266,952;42,05679
 885,56; 6030,485;  101,675;14299,452;41,75872
 886,12; 6041,585;  109,875;14421,152;41,44780
 886,68; 5958,285;   90,775;14436,753;40,90004
 887,24; 6031,485;  102,475;14574,952;40,96748
 887,80; 6021,485;   86,975;14671,753;40,68975
 888,36; 6115,985;  106,275;14715,652;41,13598
 888,92; 6094,485;   98,975;14773,353;40,85700
 889,48; 6234,685;   99,575;14973,853;41,24644
 890,04; 6235,485;   95,275;14803,053;41,74805
 890,60; 6312,085;  117,475;15014,652;41,58244
 891,16; 6277,485;   99,875;15075,853;41,25013
 891,72; 6252,685;  113,275;15058,452;41,07954
 892,28; 6306,385;  112,475;15126,053;41,25539
 892,84; 6211,985;   93,775;15039,853;40,93522
 893,39; 6239,485;  117,575;15112,952;40,82531
 893,95; 6176,685;  112,975;15044,753;40,60943
 894,51; 6131,685;   66,375;14891,253;40,91305
 895,07; 6120,485;  127,375;14906,353;40,55159
 895,63; 5956,385;   74,275;14689,952;40,24521
 896,19; 5881,385;   90,375;14601,952;39,90614
 896,75; 5841,585;  105,175;14460,152;39,96112
 897,31; 5766,485;   82,775;14295,853;39,98930
 897,87; 5675,785;   98,175;14146,853;39,70203
 898,43; 5572,685;   87,775;14075,753;39,21160
 898,99; 5543,785;  109,175;14002,753;39,11599
 899,55; 5478,185;  109,475;13940,652;38,81600
 900,11; 5362,885;  104,975;13747,553;38,54044
 900,67; 5240,085;   91,375;13658,652;37,94947
 901,22; 5190,185;  108,375;13601,952;37,66096
 901,78; 5093,785;   91,275;13560,053;37,14153
 902,34; 5034,485;  103,075;13451,152;36,94472
 902,90; 4927,785;   73,575;13350,652;36,56083
 903,46; 4871,185;   95,775;13236,353;36,34095
 904,02; 4849,985;   88,075;13091,553;36,62028
 904,58; 4718,685;   67,075;12918,152;36,19627
 905,14; 4739,885;   63,975;12874,553;36,50038
 905,70; 4702,785;   66,775;12696,053;36,70843
 906,25; 4685,085;   84,375;12708,452;36,44393
 906,81; 4627,285;   87,675;12732,152;35,90192
 907,37; 4557,785;   79,275;12616,152;35,72269
 907,93; 4548,485;   74,775;12588,152;35,75142
 908,49; 4518,485;  101,875;12497,652;35,62995
 909,05; 4501,885;   89,675;12425,553;35,76729
 909,60; 4493,485;   86,575;12340,452;35,96339
 910,16; 4404,585;   67,675;12291,853;35,47813
 910,72; 4343,885;  100,475;12207,753;35,04842
 911,28; 4281,085;   90,875;12156,053;34,72978
 911,84; 4253,185;   79,575;12106,753;34,70149
 912,39; 4178,385;   73,475;12049,353;34,27648
 912,95; 4204,685;  104,475;12001,452;34,46430
 913,51; 4147,385;   85,375;11945,253;34,25001
 914,07; 4056,085;   83,775;11813,452;33,86547
 914,63; 4006,385;   64,775;11748,053;33,73719
 915,18; 3913,185;   77,475;11617,853;33,23730
 915,74; 3808,385;   63,975;11632,652;32,36679
 916,30; 3753,485;   61,475;11588,553;32,02902
 916,86; 3777,485;   83,575;11514,652;32,31463
 917,42; 3697,085;   82,275;11425,152;31,86854
 917,97; 3598,185;   75,375;11265,452;31,48155
 918,53; 3543,785;   67,775;11196,253;31,23527
 919,09; 3488,585;   88,975;11223,753;30,53146
 919,65; 3426,785;   83,375;11083,452;30,39442
 920,20; 3367,585;   61,875;10983,053;30,26880
 920,76; 3352,985;   65,475;10849,452;30,48514
 921,32; 3312,485;   82,675;10770,952;30,21825
 921,87; 3272,585;   97,475;10670,253;30,03099
 922,43; 3173,285;   64,675;10561,353;29,61518
 922,99; 3150,985;   61,875;10406,753;29,86125
 923,55; 3094,185;   63,775;10357,353;29,43981
 924,10; 3025,185;   73,575;10282,853;28,91106
 924,66; 3002,885;   78,675;10170,152;28,97703
 925,22; 2961,385;   43,275;10093,952;29,03396
 925,77; 2920,785;   66,075; 9927,053;28,94956
 926,33; 2891,285;   90,375; 9903,253;28,54321
 926,89; 2823,685;   71,975; 9692,753;28,60174
 927,44; 2766,385;   52,175; 9580,553;28,48554
 928,00; 2741,685;   66,875; 9533,753;28,25441
 928,56; 2706,285;   80,375; 9372,253;28,26027
 929,12; 2668,485;   72,775; 9275,152;28,20695
 929,67; 2595,285;   67,575; 9091,053;28,01259
 930,23; 2498,885;   50,975; 8915,253;27,61545
 930,78; 2493,685;  100,675; 8842,553;27,37410
 931,34; 2382,685;   61,975; 8632,152;27,07890
 931,90; 2312,185;   61,675; 8494,353;26,68797
 932,45; 2250,585;   78,775; 8290,753;26,44686
 933,01; 2131,585;   52,975; 8024,453;26,07559
 933,57; 2073,485;   72,175; 7753,252;26,05507
 934,12; 1946,785;   70,475; 7399,553;25,60090
 934,68; 1822,285;   59,075; 7020,252;25,32919
 935,24; 1741,085;   67,875; 6614,752;25,55737
 935,79; 1607,385;   72,975; 6254,853;24,82110
 936,35; 1511,685;   91,375; 5812,252;24,82679
 936,90; 1418,285;   80,275; 5348,752;25,39652
 937,46; 1276,985;   72,775; 4956,953;24,65533
 938,02; 1189,985;   63,375; 4549,152;25,11516
 938,57; 1088,785;   73,175; 4265,053;24,22805
 939,13; 1029,685;   70,575; 3986,752;24,49098
 939,68;  929,185;   57,375; 3713,452;23,84550
 940,24;  900,585;   68,775; 3504,052;24,21377
 940,79;  865,385;   91,875; 3391,052;23,44554
 941,35;  841,885;   79,675; 3217,552;24,29062
 941,91;  785,785;   71,375; 3122,252;23,41654
 942,46;  799,785;   75,075; 3063,552;24,25014
 943,02;  763,185;   65,375; 3050,752;23,37426
 943,57;  720,985;   61,275; 2982,452;22,58370
 944,13;  748,885;   67,375; 2974,452;23,44313
 944,68;  759,285;   65,975; 3041,752;23,29845
 945,24;  782,485;   82,275; 3060,052;23,51452
 945,79;  750,485;   68,775; 3104,052;22,45956
 946,35;  760,185;   51,775; 3194,752;22,53946
 946,90;  820,485;   98,575; 3283,552;22,66609
 947,46;  768,985;   52,175; 3311,052;21,99561
 948,01;  763,785;   51,575; 3390,052;21,33338
 948,57;  813,185;   86,775; 3552,952;20,95709
 949,12;  809,785;   65,875; 3613,353;20,97011
 949,68;  833,785;   76,275; 3732,653;20,71750
 950,23;  839,085;   70,075; 3833,252;20,43513
 950,79;  833,085;   75,775; 3933,452;19,63124
 951,34;  841,885;   83,275; 4070,952;19,02386
 951,90;  847,385;   57,475; 4140,853;19,34453
 952,45;  897,185;   81,075; 4292,152;19,38008
 953,01;  865,885;   65,975; 4364,252;18,61001
 953,56;  874,885;   87,975; 4500,853;17,83213
 954,12;  845,985;   42,075; 4567,553;17,76409
 954,67;  884,585;   70,875; 4720,453;17,50073
 955,23;  885,085;   61,975; 4804,553;17,35575
 955,78;  890,585;   67,175; 4882,953;17,09817
 956,33;  881,285;   58,575; 4947,252;16,82889
 956,89;  881,685;   53,475; 5038,553;16,61378
 957,44;  878,885;   53,675; 5170,752;16,12659
 958,00;  895,185;   49,475; 5238,353;16,29852
 958,55;  931,085;   70,475; 5313,953;16,41296
 959,10;  904,385;   52,375; 5370,252;16,02162
 959,66;  922,285;   74,275; 5488,752;15,66190
 960,21;  917,185;   78,475; 5567,453;15,27989
 960,77;  916,285;   54,275; 5606,152;15,52646
 961,32;  919,785;   48,375; 5663,453;15,51911
 961,87;  936,985;   79,775; 5738,752;15,14779
 962,43;  910,885;   68,975; 5780,652;14,74015
 962,98;  945,885;   76,175; 5828,652;15,11888
 963,54;  902,085;   27,075; 5820,652;15,10310
 964,09;  926,485;   56,275; 5873,953;14,95803
 964,64;  930,885;   64,975; 5901,053;14,83719
 965,20;  915,785;   44,375; 5966,652;14,71410
 965,75;  917,085;   66,575; 5976,353;14,39157
 966,30;  923,785;   75,275; 6068,553;14,15769
 966,86;  887,885;   62,975; 6121,953;13,61467
 967,41;  903,385;   81,075; 6084,453;13,69746
 967,96;  895,585;   75,175; 6108,953;13,59695
 968,52;  879,285;   81,775; 6126,353;13,19381
 969,07;  873,185;   72,975; 6120,152;13,23279
 969,62;  862,085;   77,175; 6134,953;12,95706
 970,18;  849,885;   57,575; 6147,652;13,00985
 970,73;  819,985;   66,475; 6203,553;12,27799
 971,28;  844,685;   95,775; 6197,053;12,27464
 971,84;  793,085;   55,075; 6118,752;12,17100
 972,39;  814,085;   95,875; 6148,652;11,86579
 972,94;  774,085;   54,975; 6140,652;11,81643
 973,49;  765,485;   64,575; 6141,252;11,53443
 974,05;  750,985;   64,375; 6178,053;11,23072
 974,60;  770,185;   88,575; 6213,252;11,12891
 975,15;  744,085;   77,675; 6231,553;10,82911
 975,71;  702,485;   62,375; 6121,453;10,56448
 976,26;  714,585;   77,575; 6110,252;10,55933
 976,81;  724,985;   90,675; 6134,152;10,49578
 977,36;  718,085;   84,775; 6156,953;10,42970
 977,92;  739,185;   90,175; 6209,353;10,60616
 978,47;  703,285;   77,175; 6060,252;10,46468
 979,02;  716,485;   95,475; 6085,652;10,36714
 979,57;  695,485;   86,775; 6058,453;10,19328
 980,13;  687,985;   76,175; 6038,752;10,26083
 980,68;  680,785;   77,075; 6010,553;10,17464
 981,23;  691,385;   89,175; 6054,652;10,09492
 981,78;  673,885;   82,075; 5974,152;10,04417
 982,33;  678,585;   79,275; 5893,252;10,30809
 982,89;  671,985;   94,375; 5938,152; 9,88419
 983,44;  645,385;   65,675; 5935,853; 9,87551
 983,99;  665,385;  104,775; 5949,453; 9,59180
 984,54;  662,885;   81,475; 5900,053; 9,99230
 985,09;  655,585;   87,275; 5873,752; 9,82135
 985,65;  641,385;   69,375; 5811,853; 9,96103
 986,20;  644,085;  106,575; 5791,152; 9,45558
 986,75;  638,085;   95,875; 5823,953; 9,46583
 987,30;  615,785;   97,175; 5726,053; 9,21338
 987,85;  616,085;   92,475; 5721,353; 9,30221
 988,40;  613,585;   96,675; 5693,953; 9,23503
 988,96;  607,685;  114,875; 5666,553; 8,87678
 989,51;  612,785;  108,875; 5644,053; 9,10377
 990,06;  616,785;  128,275; 5680,853; 8,79790
 990,61;  562,085;   93,575; 5569,053; 8,55651
 991,16;  583,985;  104,375; 5558,053; 8,79425
 991,71;  538,485;   79,875; 5505,853; 8,45212
 992,26;  543,285;   93,475; 5457,252; 8,38607
 992,81;  521,885;   75,075; 5427,053; 8,34850
 993,37;  551,885;  113,475; 5390,553; 8,30782
 993,92;  524,685;  108,375; 5368,953; 7,91377
 994,47;  529,785;  117,475; 5329,652; 7,91051
 995,02;  549,385;  118,475; 5313,252; 8,29506
 995,57;  499,885;   90,875; 5274,652; 7,89019
 996,12;  529,985;  133,575; 5247,553; 7,75150
 996,67;  522,885;  132,375; 5191,652; 7,71869
 997,22;  482,385;   99,875; 5128,652; 7,60642
 997,77;  492,585;  115,275; 5110,553; 7,55333
 998,32;  506,185;  103,775; 5015,652; 8,19259
 998,87;  483,285;  114,275; 5018,752; 7,52394
 999,42;  480,185;  101,675; 4972,553; 7,77088
 999,97;  483,585;  109,975; 4956,353; 7,70906
1000,53;  494,885;  123,475; 4993,752; 7,62605
1001,08;  462,485;   98,375; 4879,053; 7,61628
1001,63;  505,085;  144,475; 4878,053; 7,61813
1002,18;  431,185;   85,075; 4777,453; 7,37600
1002,73;  484,585;  131,375; 4813,853; 7,54323
1003,28;  460,585;  103,575; 4811,953; 7,58244
1003,83;  453,685;  119,075; 4691,752; 7,31759
1004,38;  488,185;  137,775; 4703,152; 7,67538
1004,93;  452,485;  114,375; 4680,953; 7,40401
1005,48;  435,785;  104,075; 4573,053; 7,42250
1006,03;  435,185;  112,775; 4525,652; 7,30612
1006,58;  442,685;  111,475; 4486,553; 7,57038
1007,13;  412,085;   94,475; 4466,252; 7,26501
1007,68;  420,385;  104,975; 4462,453; 7,23836
1008,23;  428,785;  114,575; 4425,853; 7,28810
1008,78;  406,085;  107,375; 4384,152; 6,98446
1009,33;  412,885;  121,875; 4307,752; 6,95219
1009,88;  383,985;   84,775; 4329,553; 7,04890
1010,43;  407,285;  118,875; 4320,752; 6,86384
1010,98;  409,485;  100,675; 4310,053; 7,33624
1011,52;  382,985;   97,075; 4264,953; 6,85985
1012,07;  418,185;  144,475; 4319,252; 6,55628
1012,62;  371,185;  103,875; 4259,152; 6,43302
1013,17;  384,285;   97,175; 4172,053; 7,04586
1013,72;  368,285;   94,575; 4143,453; 6,76015
1014,27;  371,685;  100,275; 4105,853; 6,77580
1014,82;  354,885;   86,875; 4042,952; 6,77464
1015,37;  340,485;   84,375; 3964,853; 6,59996
1015,92;  358,885;  109,475; 3894,252; 6,58982
1016,47;  324,585;   90,275; 3819,452; 6,28315
1017,02;  318,885;   81,075; 3732,153; 6,51342
1017,57;  331,285;   96,475; 3718,853; 6,48221
1018,11;  321,785;   77,275; 3656,252; 6,83184
1018,66;  348,585;  120,175; 3636,552; 6,49560
1019,21;  325,885;  109,675; 3579,552; 6,23106
1019,76;  299,785;   77,675; 3497,353; 6,49506
1020,31;  288,885;   71,975; 3446,452; 6,42796
1020,86;  311,185;   96,175; 3448,052; 6,41461
1021,41;  295,085;   80,175; 3387,052; 6,49888
1021,96;  305,385;   83,675; 3385,853; 6,71405
1022,50;  330,185;  105,975; 3332,952; 6,94799
1023,05;  301,185;   94,675; 3288,052; 6,46682
1023,60;  298,585;   97,975; 3251,353; 6,36175
1024,15;  292,485;   81,075; 3184,853; 6,81138
1024,70;  304,685;   95,075; 3176,252; 6,80292
1025,25;  277,485;   81,175; 3127,452; 6,44426
1025,79;  305,685;  101,175; 3110,752; 6,79531
1026,34;  289,285;   83,475; 3044,653; 6,95028
1026,89;  293,585;  102,175; 3039,052; 6,51747
1027,44;  276,785;   95,875; 2952,952; 6,33200
1027,99;  283,385;   93,475; 2944,552; 6,66099
1028,53;  282,285;   89,675; 2900,052; 6,85353
1029,08;  284,385;  114,775; 2876,653; 6,14111
1029,63;  278,985;  114,875; 2854,952; 5,98925
1030,18;  272,585;   92,075; 2788,552; 6,69429
1030,73;  255,485;   91,175; 2739,552; 6,20418
1031,27;  248,385;   85,875; 2715,252; 6,18055
1031,82;  243,185;   81,875; 2686,452; 6,19333
1032,37;  255,685;   98,875; 2688,853; 6,05449
1032,92;  257,485;  100,575; 2675,452; 6,09388
1033,46;  250,885;   99,775; 2599,252; 6,04566
1034,01;  246,285;   78,375; 2582,952; 6,70413
1034,56;  253,585;   98,875; 2559,252; 6,28806
1035,11;  245,885;   92,375; 2523,552; 6,31422
1035,65;  246,385;   87,575; 2478,052; 6,64344
1036,20;  249,885;   99,375; 2454,452; 6,39087
1036,75;  263,685;  118,675; 2446,353; 6,22981
1037,29;  242,485;   90,275; 2398,252; 6,59495
1037,84;  227,185;   78,375; 2347,252; 6,55875
1038,39;  230,185;   91,075; 2329,952; 6,21338
1038,94;  216,485;   73,075; 2277,153; 6,50658
1039,48;  222,085;   83,575; 2278,552; 6,31032
1040,03;  246,285;  102,875; 2245,252; 6,69397
1040,58;  230,685;  101,175; 2194,552; 6,18665
1041,12;  220,785;   91,375; 2191,653; 6,16157
1041,67;  214,185;  101,075; 2166,752; 5,47569
1042,22;  244,685;  118,475; 2145,252; 6,22713
1042,76;  211,685;   99,275; 2118,452; 5,56712
1043,31;  227,385;   90,675; 2060,653; 6,93967
1043,86;  233,585;   98,875; 2044,252; 6,92462
1044,40;  227,185;   92,975; 2018,052; 6,97167
1044,95;  223,485;   94,175; 1988,552; 6,82599
1045,50;  197,485;   75,375; 1934,353; 6,56866
1046,04;  227,385;  114,375; 1930,453; 6,22275
1046,59;  219,485;   96,175; 1878,353; 6,91906
1047,13;  227,385;  121,075; 1879,453; 6,04591
1047,68;  220,085;  115,675; 1860,052; 5,98552
1048,23;  214,285;  118,775; 1866,752; 5,46403
1048,77;  197,785;   90,175; 1784,953; 6,34951
1049,32;  209,285;  104,175; 1785,953; 6,24993
1049,86;  216,885;   92,675; 1760,552; 7,44719
1050,41;  185,885;   82,475; 1735,552; 6,25560
1050,96;  205,985;  100,875; 1698,652; 6,57851
1051,50;  204,485;  101,675; 1663,252; 6,58373
1052,05;  193,285;   94,675; 1664,052; 6,28338
1052,59;  198,785;   82,975; 1624,152; 7,51438
1053,14;  178,485;   84,475; 1582,652; 6,27496
1053,69;  196,685;   98,475; 1571,453; 6,66745
1054,23;  206,385;  104,575; 1569,052; 6,95197
1054,78;  193,485;  100,775; 1550,152; 6,39654
1055,32;  217,585;  123,075; 1550,453; 6,62123
1055,87;  168,485;   68,875; 1491,752; 7,00060
1056,41;  165,285;   78,775; 1469,552; 6,22026
1056,96;  172,285;   96,775; 1451,052; 5,57567
1057,50;  208,085;  113,375; 1470,853; 6,97691
1058,05;  170,385;   82,075; 1401,953; 6,69077
1058,59;  188,785;   95,875; 1396,552; 7,14320
1059,14;  188,685;  103,575; 1370,453; 6,71809
1059,68;  157,085;   75,975; 1329,353; 6,47131
1060,23;  213,585;  126,875; 1383,752; 6,89884
1060,77;  178,385;   97,375; 1317,052; 6,64192
1061,32;  180,585;  108,575; 1320,652; 5,94104
1061,86;  178,585;  111,175; 1289,752; 5,71961
1062,41;  170,285;   93,975; 1242,953; 6,64156
1062,95;  180,485;  109,575; 1230,853; 6,32404
1063,50;  186,385;  111,075; 1230,052; 6,73025
1064,04;  154,385;   90,475; 1197,453; 5,77338
1064,59;  176,585;  114,775; 1210,052; 5,64332
1065,13;  171,785;  103,475; 1170,552; 6,40160
1065,68;  167,585;  107,275; 1161,353; 5,72159
1066,22;  190,785;  115,875; 1166,453; 7,13036
1066,76;  194,985;  130,175; 1145,252; 6,38473
1067,31;  163,085;   99,875; 1110,552; 6,25422
1067,85;  166,685;  100,975; 1090,252; 6,64222
1068,40;  170,185;  110,275; 1095,353; 6,08175
1068,94;  163,685;   99,175; 1079,353; 6,58146
1069,49;  152,785;   98,175; 1041,652; 5,78816
1070,03;  166,285;  111,175; 1034,353; 5,96960
1070,57;  156,685;   88,775; 1012,852; 7,34895
1071,12;  136,185;   75,875;  987,153; 6,61818
1071,66;  193,485;  131,775; 1039,953; 6,79493
1072,21;  170,985;  112,475; 1011,352; 6,50923
1072,75;  165,285;  104,475;  978,552; 6,95705
1073,29;  134,085;   77,075;  942,453; 6,58788
1073,84;  151,185;   95,975;  941,153; 6,53236
1074,38;  153,085;   93,875;  928,253; 7,09631
1074,92;  163,485;  107,275;  940,153; 6,74889
1075,47;  170,785;  112,775;  938,852; 7,02234
1076,01;  172,685;  121,775;  926,253; 6,32833
1076,56;  148,685;   97,275;  891,953; 6,46929
1077,10;  137,985;   86,075;  865,253; 6,66215
1077,64;  160,785;   97,875;  884,453; 7,99794
1078,19;  179,985;  123,175;  887,753; 7,43025
1078,73;  154,385;   98,775;  853,852; 7,36481
1079,27;  170,485;  121,075;  875,552; 6,54890
1079,81;  172,885;  121,375;  860,953; 6,96479
1080,36;  164,185;  105,975;  836,052; 7,97313
1080,90;  155,385;   96,375;  819,753; 8,15757
1081,44;  135,285;   82,475;  789,552; 7,46877
1081,99;  120,285;   70,375;  771,753; 7,11600
1082,53;  158,185;  113,075;  798,653; 6,57985
1083,07;  152,785;  104,175;  791,453; 7,07283
1083,62;  150,385;  101,275;  772,552; 7,31590
1084,16;  142,885;   98,975;  782,453; 6,42450
1084,70;  154,685;  107,475;  767,153; 7,15653
1085,24;  152,785;  108,775;  750,653; 6,85645
1085,79;  143,785;  109,175;  747,552; 5,42156
1086,33;  135,585;   99,075;  711,453; 5,96201
1086,87;  140,585;  102,075;  714,852; 6,28450
1087,41;  129,385;   84,475;  686,852; 7,45546
1087,96;  166,785;  124,575;  732,552; 6,94269
1088,50;  143,185;  112,075;  696,953; 5,31906
1089,04;  162,585;  121,775;  715,153; 6,87758
1089,58;  121,685;   82,375;  655,953; 6,85348
1090,13;  139,485;  102,975;  653,153; 6,63604
1090,67;  151,385;  101,775;  678,753; 8,59825
1091,21;  129,685;   92,075;  651,852; 6,71874
1091,75;  145,285;  106,875;  647,153; 7,10931
1092,29;  151,585;  105,875;  642,552; 8,51722
1092,84;  141,285;  105,975;  628,352; 6,75948
1093,38;  168,785;  128,175;  662,753; 7,59665
1093,92;  156,685;  113,475;  640,052; 8,20582
1094,46;  157,985;  128,175;  638,852; 5,83734
1095,00;  138,485;   93,975;  602,052; 8,76048
1095,54;  132,685;   89,975;  591,352; 8,51853
1096,09;  136,885;  114,975;  597,352; 4,54209
1096,63;  158,685;  117,175;  598,453; 8,62496
1097,17;  127,985;  102,575;  573,052; 5,40090
1097,71;  166,285;  122,875;  582,453; 9,44563
1098,25;  133,085;  103,275;  553,653; 6,61889
1098,79;  143,985;  104,775;  568,753; 8,45084
1099,33;  155,785;  111,975;  572,052; 9,52231
1099,88;  142,385;  110,775;  562,253; 7,00145
1100,42;  114,185;   83,275;  521,253; 7,05744

