0148 ELITRO
Integration time [ms]:   8,000
Averaging Nr. [scans]: 10
Smoothing Nr. [pixels]: 0
Data measured with spectrometer [name]: 7314920SP
Wave   ;Sample   ;Dark     ;Reference;Reflectance
[nm]   ;[counts] ;[counts] ;[counts] ;[%]

 199,42;   86,616;   63,873;  150,055;26,38987
 200,02;  109,725;   92,669;  145,732;32,14364
 200,62;   66,618;   67,563;   88,793;-4,45149
 201,22;  106,989;   86,969;  138,011;39,22306
 201,82;   87,208;   66,174;  141,790;27,81667
 202,42;  118,837;  101,668;  154,973;32,20892
 203,03;   56,497;   60,168;   91,775;-11,61282
 203,63;   83,345;   69,967;  109,037;34,24143
 204,23;   93,209;   70,671;  129,903;38,04995
 204,83;   87,569;   74,567;  123,718;26,45390
 205,43;   77,516;   56,673;  123,555;31,16434
 206,03;   70,481;   50,167;   90,459;50,41853
 206,63;   66,774;   68,865;  100,007;-6,71411
 207,24;   99,412;   74,675;  162,566;28,14469
 207,84;   53,593;   39,967;   83,699;31,15926
 208,44;   57,789;   50,669;   95,011;16,05734
 209,04;   51,062;   47,365;   85,066; 9,80578
 209,64;   93,988;   69,972;  127,998;41,38897
 210,24;   63,169;   45,367;   97,218;34,33365
 210,84;   68,377;   51,469;  101,970;33,48039
 211,44;   82,229;   86,470;  122,908;-11,63802
 212,05;   67,462;   60,865;   99,266;17,17881
 212,65;   84,197;   66,368;  112,975;38,25463
 213,25;  112,137;   93,768;  142,073;38,02716
 213,85;   97,414;   84,465;  114,904;42,53856
 214,45;   63,669;   53,367;  100,418;21,89617
 215,05;   49,077;   39,369;  100,070;15,99303
 215,65;   66,965;   55,169;  105,630;23,37632
 216,25;   50,269;   40,267;   82,518;23,67368
 216,85;   32,601;   34,069;   89,651;-2,64071
 217,45;   58,597;   49,068;   97,375;19,72677
 218,05;   76,193;   58,270;  112,886;32,81579
 218,66;   43,613;   28,769;   75,692;31,63572
 219,26;   37,145;   26,567;   79,337;20,04570
 219,86;   50,133;   36,771;   81,584;29,81718
 220,46;   65,305;   54,270;  104,127;22,13322
 221,06;   66,009;   51,871;  115,903;22,07918
 221,66;   59,873;   43,471;  103,481;27,33087
 222,26;   50,888;   39,772;  102,398;17,75022
 222,86;   85,661;   67,268;  118,954;35,58644
 223,46;   66,269;   51,767;   88,918;39,03617
 224,06;   73,621;   64,971;  120,343;15,62124
 224,66;   79,769;   57,570;  105,805;46,02143
 225,26;   68,941;   48,169;  113,748;31,67392
 225,86;   71,852;   42,173;  112,376;42,27661
 226,46;   74,349;   49,968;  102,913;46,04957
 227,06;   40,969;   27,670;   87,705;22,15121
 227,66;   49,626;   37,665;   74,845;32,16940
 228,27;   48,605;   29,270;   96,227;28,87668
 228,87;   91,481;   89,170;  143,046; 4,28889
 229,47;   54,376;   29,172;   92,357;39,88931
 230,07;   18,741;   11,169;   59,648;15,61799
 230,67;   49,201;   38,169;   84,651;23,73431
 231,27;   50,005;   27,670;   76,327;45,90282
 231,87;   59,301;   43,169;  100,751;28,01599
 232,47;   86,236;   43,775;  132,047;48,10231
 233,07;   54,086;   42,965;   75,547;34,13222
 233,67;   58,397;   53,768;   94,275;11,42875
 234,27;   18,881;    0,567;   53,259;34,75788
 234,87;   55,133;   34,771;  106,084;28,55296
 235,47;   44,241;   16,169;   74,148;48,41656
 236,07;   37,966;   30,266;   72,042;18,43069
 236,67;   55,517;   49,966;   85,180;15,76384
 237,27;   54,892;   28,873;  109,074;32,44239
 237,87;   56,069;   25,370;   99,805;41,24195
 238,47;   39,225;   14,269;   68,032;46,41911
 239,07;   50,600;   33,272;   95,738;27,74034
 239,67;   73,780;   43,477;  131,421;34,45712
 240,27;   64,052;   46,773;  119,176;23,86581
 240,87;   71,180;   50,773;  119,533;29,67836
 241,47;   47,170;   39,164;   76,131;21,65787
 242,07;   46,873;   39,968;   92,894;13,04682
 242,67;   21,504;  -11,027;   77,914;36,57600
 243,27;   21,169;    7,767;   46,418;34,67527
 243,87;   66,121;   48,671;  108,343;29,24272
 244,47;   50,509;   22,371;   99,703;36,38565
 245,07;   20,777;    2,669;   55,770;34,10093
 245,67;   47,597;   31,068;   85,575;30,32522
 246,27;   37,274;   34,965;   69,007; 6,78300
 246,87;   28,361;   26,668;   63,154; 4,64026
 247,46;   16,718;   19,663;   23,793;-71,31026
 248,06;   42,393;   20,470;   69,786;44,45337
 248,66;   47,988;   31,072;  105,898;22,60748
 249,26;   41,166;   32,366;   70,742;22,92992
 249,86;   53,752;   42,873;  102,176;18,34577
 250,46;   32,124;   16,775;   93,507;20,00320
 251,06;   40,297;   22,168;   65,375;41,95922
 251,66;   29,845;   20,771;   64,724;20,64483
 252,26;   42,341;   38,866;   70,261;11,06976
 252,86;   37,577;   35,969;   89,070; 3,02804
 253,46;    1,669;   -8,033;   22,118;32,17918
 254,06;   31,878;   31,766;   79,483; 0,23438
 254,66;   39,116;   34,973;  100,155; 6,35644
 255,26;   65,540;   39,073;  118,836;33,18275
 255,86;   43,670;   37,464;   55,631;34,16207
 256,46;   34,329;   19,870;   70,208;28,72419
 257,05;   38,057;   23,570;   59,565;40,24600
 257,65;   59,333;   38,071;   97,684;35,66665
 258,25;   55,776;   37,372;  101,457;28,71818
 258,85;   30,677;   15,669;   51,770;41,57209
 259,45;    3,901;    6,869;   42,951;-8,22500
 260,05;   46,569;   46,667;   85,818;-0,24924
 260,65;   50,241;   45,066;   83,561;13,44421
 261,25;   42,721;   29,371;   85,943;23,59780
 261,85;   17,485;   -0,129;   47,622;36,88623
 262,45;   54,977;   46,169;  109,270;13,95846
 263,04;   55,928;   53,073;  116,295; 4,51642
 263,64;   50,633;   33,767;   77,097;38,92505
 264,24;   52,997;   37,671;   89,062;29,82134
 264,84;   85,732;   58,974;  138,671;33,57476
 265,44;   29,209;   26,368;   67,716; 6,87250
 266,04;   43,602;   48,865;   71,464;-23,29312
 266,64;   63,217;   39,866;   86,780;49,77436
 267,24;   42,217;   40,166;   68,980; 7,11829
 267,84;   45,237;   24,668;   76,573;39,62822
 268,43;   61,385;   48,368;   95,935;27,36645
 269,03;   47,713;   46,969;   87,892; 1,81901
 269,63;   69,654;   58,566;   92,402;32,76865
 270,23;    1,526;   10,765;   39,045;-32,67208
 270,83;   55,441;   55,266;   83,161; 0,62867
 271,43;   20,121;   23,967;   58,856;-11,02422
 272,03;   73,509;   64,168;   99,116;26,73008
 272,62;   37,865;   23,269;   68,730;32,10661
 273,22;   20,081;   11,970;   61,046;16,52682
 273,82;   11,958;   17,460;   26,403;-61,52369
 274,42;   18,358;   25,164;   46,890;-31,32472
 275,02;   35,198;   34,864;   60,388; 1,30625
 275,62;   64,976;   31,972;  100,457;48,19168
 276,21;   44,417;   22,770;   69,267;46,55525
 276,81;   50,693;   46,767;   71,099;16,13780
 277,41;   43,261;   22,971;   96,341;27,65337
 278,01;   21,598;   21,364;   42,788; 1,08945
 278,61;   56,489;   38,869;   83,811;39,20661
 279,20;   75,452;   65,473;  119,076;18,61759
 279,80;   -8,650;    6,762;   11,539;-322,61606
 280,40;   44,866;   36,866;   79,742;18,65752
 281,00;    7,389;   -4,331;   33,311;31,13598
 281,60;   37,144;   20,774;   74,812;30,29414
 282,20;   39,929;   36,670;   70,108; 9,74717
 282,79;   35,585;   29,568;   70,135;14,83315
 283,39;   17,854;   17,466;   44,702; 1,42284
 283,99;   13,586;   23,165;   34,347;-85,65606
 284,59;   19,053;   16,869;   45,289; 7,68345
 285,19;   27,881;   27,067;   57,759; 2,65407
 285,78;   35,129;   23,270;   63,808;29,25449
 286,38;   45,274;   39,665;   59,207;28,70244
 286,98;   50,385;   35,168;   73,535;39,66282
 287,58;   12,109;    4,771;   61,403;12,95688
 288,17;   34,340;    8,973;   80,336;35,54722
 288,77;   41,564;   19,976;   92,504;29,76491
 289,37;   27,877;   11,269;   57,670;35,79220
 289,97;   42,386;   48,965;   66,647;-37,20426
 290,57;   47,437;   46,672;   93,260; 1,64161
 291,16;   63,509;   63,868;  102,616;-0,92484
 291,76;   16,981;    5,570;   47,346;27,31406
 292,36;   36,745;   34,367;   58,137;10,00470
 292,96;   21,464;   -3,127;   60,117;38,88395
 293,55;   40,393;   24,267;   65,399;39,20677
 294,15;   23,217;   26,870;   62,567;-10,23274
 294,75;   44,374;   42,065;   66,207; 9,56453
 295,35;   16,009;   21,068;   52,016;-16,34468
 295,94;   43,805;   42,967;   66,740; 3,52876
 296,54;   34,549;   30,768;   70,613; 9,48897
 297,14;   46,673;   29,971;   76,881;35,60276
 297,73;   13,838;   12,165;   40,085; 5,99069
 298,33;   46,478;   28,066;   57,583;62,37697
 298,93;   51,361;   41,968;   82,554;23,14380
 299,53;   36,412;   24,872;   69,079;26,10566
 300,12;   11,473;  -12,229;   59,481;33,05153
 300,72;   57,133;   41,567;   91,197;31,36444
 301,32;   50,333;   25,771;   99,584;33,27593
 301,92;   16,446;    3,664;   33,050;43,49692
 302,51;   21,257;   11,567;   49,978;25,22810
 303,11;   24,981;   14,667;   48,759;30,25524
 303,71;   43,425;   21,369;   82,132;36,29899
 304,30;   16,090;    5,466;   38,423;32,23525
 304,90;   15,278;   19,666;   44,283;-17,82570
 305,50;   32,126;   18,565;   64,345;29,62117
 306,09;   36,166;   15,466;   49,042;61,64949
 306,69;   59,397;   34,171;   90,262;44,97234
 307,29;   11,970;   18,760;   33,144;-47,20542
 307,88;   52,253;   43,269;   72,489;30,74507
 308,48;    8,105;    0,070;   49,727;16,18093
 309,08;    2,542;   -4,437;   11,774;43,05222
 309,68;   18,538;   22,365;   39,585;-22,22607
 310,27;   22,265;   20,169;   49,830; 7,06589
 310,87;   32,049;   23,468;   54,813;27,37570
 311,47;   58,369;   54,967;   92,918; 8,96524
 312,06;   46,450;   47,865;   68,426;-6,88313
 312,66;   60,009;   51,168;  100,016;18,10031
 313,26;   53,845;   48,571;   96,224;11,06773
 313,85;   50,181;   38,267;   65,959;43,02554
 314,45;   49,689;   42,969;   86,611;15,39834
 315,04;   55,150;   52,165;   81,826;10,06297
 315,64;   31,133;   21,267;   47,897;37,04923
 316,24;   50,505;   40,770;   85,627;21,70221
 316,83;   47,566;   40,366;   76,742;19,79216
 317,43;   37,921;   35,167;   68,156; 8,34771
 318,03;   41,794;   39,063;   70,012; 8,82317
 318,62;   73,974;   73,061;   94,820; 4,19608
 319,22;   32,437;    7,668;   66,973;41,76553
 319,82;   55,609;   40,768;   93,516;28,13686
 320,41;   68,525;   59,069;   98,732;23,84191
 321,01;   89,826;   80,465;  115,945;26,38264
 321,60;   75,558;   81,164;  102,790;-25,92085
 322,20;   89,916;   67,673;  132,855;34,12498
 322,80;   72,533;   54,567;   91,797;48,25756
 323,39;   65,610;   65,764;   94,828;-0,53141
 323,99;   74,141;   61,766;  102,661;30,26124
 324,59;   71,994;   73,063;   97,512;-4,37390
 325,18;   70,857;   40,967;   92,178;58,36734
 325,78;   85,338;   76,365;  108,885;27,59086
 326,37;   81,997;   74,868;  108,075;21,46958
 326,97;   79,733;   63,267;  111,497;34,14097
 327,57;   44,018;   42,263;   76,493; 5,12698
 328,16;   61,770;   60,864;   93,631; 2,76598
 328,76;   61,105;   50,467;  110,140;17,82861
 329,35;   81,033;   56,871;  137,484;29,97280
 329,95;   57,729;   27,470;   91,308;47,39985
 330,54;   70,069;   52,167;   94,018;42,77632
 331,14;   36,193;   26,967;   82,599;16,58515
 331,74;   57,226;   54,165;   96,145; 7,29035
 332,33;   60,205;   35,370;  108,127;34,13410
 332,93;   59,546;   43,764;   79,250;44,47390
 333,52;   60,954;   42,466;   93,102;36,51081
 334,12;   81,413;   72,069;  140,392;13,67681
 334,71;   56,366;   50,666;   87,942;15,29030
 335,31;   83,081;   63,267;  119,859;35,01312
 335,90;   33,390;   32,362;   53,836; 4,78678
 336,50;   43,174;   30,665;   77,207;26,87687
 337,10;   68,065;   38,769;  121,530;35,39832
 337,69;   72,774;   51,765;   93,707;50,09058
 338,29;   49,545;   30,467;  101,037;27,03432
 338,88;   38,061;   22,468;   99,854;20,14981
 339,48;   66,502;   57,862;  111,677;16,05529
 340,07;   68,629;   48,566;  107,321;34,14754
 340,67;   66,033;   31,171;  124,784;37,24051
 341,26;   61,366;   48,466;   98,942;25,55585
 341,86;   90,941;   61,469;  138,348;38,33484
 342,45;   69,953;   45,669;  142,689;25,02957
 343,05;   55,953;   27,269;  115,689;32,44030
 343,64;   70,917;   47,366;  122,480;31,35381
 344,24;   42,074;   28,765;   92,107;21,01141
 344,83;   71,786;   71,365;  121,747; 0,83608
 345,43;   54,305;   29,667;  114,240;29,13323
 346,02;   57,601;   41,469;  124,351;19,46404
 346,62;   75,345;   40,971;  140,424;34,56295
 347,21;   62,738;   42,165;  131,985;22,90421
 347,81;   58,837;   26,172;  140,560;28,55612
 348,40;   50,370;   29,064;  100,731;29,72950
 349,00;   63,794;   49,163;  137,712;16,52273
 349,59;  100,481;   65,870;  177,846;30,90906
 350,19;   51,145;   32,571;  139,424;17,38280
 350,78;   57,881;   55,467;  140,759; 2,83096
 351,38;   40,101;   15,869;  140,951;19,37304
 351,97;   50,205;   26,767;  136,040;21,44982
 352,57;   59,105;   42,570;  155,827;14,59951
 353,16;   35,910;   30,564;  134,328; 5,15164
 353,76;   69,581;   38,770;  169,846;23,50599
 354,35;   55,641;   27,669;  160,148;21,11387
 354,95;   72,017;   43,970;  182,067;20,30963
 355,54;   76,937;   38,368;  163,973;30,70655
 356,14;   56,741;   40,069;  164,749;13,37150
 356,73;   55,202;   29,162;  145,176;22,44554
 357,32;   37,825;   13,769;  164,432;15,96707
 357,92;   66,025;   17,772;  181,419;29,48573
 358,51;   85,813;   43,372;  214,179;24,84706
 359,11;   68,537;   36,772;  212,360;18,09052
 359,70;   59,857;   28,470;  189,965;19,43494
 360,30;   69,250;   54,562;  188,039;11,00466
 360,89;   49,661;   31,168;  188,054;11,78759
 361,48;   94,217;   55,570;  216,467;24,01969
 362,08;   43,321;   19,867;  187,156;14,01995
 362,67;   56,918;   39,763;  192,693;11,21753
 363,27;   93,457;   60,767;  247,678;17,48979
 363,86;   64,826;   35,765;  215,745;16,14653
 364,46;   94,870;   44,664;  257,231;23,61903
 365,05;   97,903;   64,659;  254,989;17,46644
 365,64;   97,819;   50,960;  269,706;21,42159
 366,24;   99,275;   38,558;  309,432;22,41516
 366,83;  133,227;   43,255;  335,383;30,79891
 367,43;  141,365;   51,545;  352,843;29,81114
 368,02;  149,521;   34,646;  399,757;31,46297
 368,61;  195,594;   62,239;  475,425;32,27486
 369,21;  148,637;   32,419;  445,299;28,14815
 369,80;  189,579;   43,007;  526,947;30,28735
 370,39;  234,476;   62,006;  604,971;31,76444
 370,99;  242,603;   42,089;  615,416;34,97372
 371,58;  225,549;   22,974;  630,953;33,31945
 372,18;  261,746;   37,166;  701,603;33,80013
 372,77;  282,925;   42,449;  679,385;37,75510
 373,36;  273,778;   42,747;  690,836;35,64802
 373,96;  259,275;   35,135;  639,498;37,08701
 374,55;  249,006;   29,844;  621,406;37,04805
 375,14;  229,437;   42,849;  573,826;35,14052
 375,74;  238,940;   69,157;  543,276;35,81016
 376,33;  175,491;   45,964;  464,589;30,94095
 376,92;  147,376;   33,278;  447,997;27,51224
 377,52;  229,780;   86,103;  548,460;31,07486
 378,11;  166,152;   46,703;  457,203;29,09854
 378,71;  185,771;   73,011;  514,270;25,55405
 379,30;  221,654;   59,517;  553,928;32,79392
 379,89;  217,702;   59,813;  556,103;31,81394
 380,49;  200,282;   31,018;  568,185;31,51045
 381,08;  243,952;   70,306;  570,990;34,68167
 381,67;  243,271;   55,008;  555,483;37,61695
 382,26;  213,152;   41,706;  539,390;34,44869
 382,86;  207,904;   54,003;  516,041;33,30917
 383,45;  221,262;   50,412;  562,105;33,38918
 384,04;  212,987;   38,712;  553,886;33,82824
 384,64;  222,830;   49,014;  566,760;33,57175
 385,23;  224,028;   64,406;  560,509;32,17504
 385,82;  242,286;   59,615;  592,774;34,26197
 386,42;  288,129;   61,024;  659,022;37,97751
 387,01;  250,054;   55,414;  580,541;37,06544
 387,60;  281,099;   69,009;  590,140;40,69811
 388,20;  259,862;   37,712;  590,805;40,16505
 388,79;  300,646;   72,418;  665,563;38,47747
 389,38;  239,852;   32,106;  564,890;38,99246
 389,97;  282,410;   45,415;  640,955;39,79498
 390,57;  312,794;   71,114;  654,038;41,45993
 391,16;  316,494;   62,514;  655,838;42,80628
 391,75;  311,290;   52,713;  638,562;44,13716
 392,34;  332,117;   60,821;  696,694;42,66518
 392,94;  341,322;   44,718;  689,683;45,98753
 393,53;  344,538;   41,016;  666,612;48,51726
 394,12;  368,713;   53,023;  719,105;47,39501
 394,72;  389,578;   54,213;  706,122;51,44357
 395,31;  387,886;   42,115;  694,874;52,97069
 395,90;  415,217;   42,924;  732,881;53,95879
 396,49;  453,192;   58,028;  779,187;54,79567
 397,09;  438,342;   47,417;  749,188;55,70548
 397,68;  468,768;   44,025;  800,719;56,13149
 398,27;  508,500;   54,626;  809,652;60,11369
 398,86;  504,620;   43,125;  807,657;60,36311
 399,45;  536,339;   56,630;  844,037;60,92268
 400,05;  525,213;   23,820;  799,518;64,63772
 400,64;  586,797;   56,419;  831,001;68,47283
 401,23;  588,765;   53,920;  859,956;66,35500
 401,82;  622,665;   67,220;  868,256;69,34086
 402,42;  635,305;   62,921;  873,953;70,57476
 403,01;  692,668;   81,525;  912,919;73,50829
 403,60;  707,243;   68,532;  940,513;73,24835
 404,19;  717,893;   76,024;  931,900;74,99548
 404,78;  707,409;   57,522;  909,929;76,24137
 405,38;  777,083;   68,332;  984,210;77,38488
 405,97;  772,124;   63,226;  953,933;79,58826
 406,56;  815,856;   71,528; 1004,366;79,79177
 407,15;  804,060;   68,829;  989,442;79,86319
 407,74;  864,376;   80,730; 1026,758;82,83532
 408,34;  843,859;   50,933; 1018,629;81,93960
 408,93;  877,679;   59,531; 1016,234;85,51747
 409,52;  909,031;   51,435; 1041,359;86,63245
 410,11;  935,455;   84,931; 1090,453;84,58534
 410,70;  931,664;   54,727; 1027,230;90,17317
 411,29;  961,580;   58,628; 1030,847;92,87537
 411,89;  981,095;   60,535; 1093,938;89,08042
 412,48;  982,268;   48,228; 1051,606;93,08950
 413,07; 1020,375;   65,033; 1101,446;92,17777
 413,66; 1057,519;   78,135; 1102,119;95,64444
 414,25; 1073,838;   63,337; 1142,311;93,65390
 414,84; 1079,979;   69,431; 1102,434;97,82626
 415,44; 1117,900;   91,530; 1155,939;96,42622
 416,03; 1128,686;   76,637; 1161,173;97,00454
 416,62; 1149,842;   76,138; 1168,687;98,27514
 417,21; 1148,315;   75,334; 1158,843;99,02834
 417,80; 1143,626;   65,037; 1162,871;98,24706
 418,39; 1168,198;   78,440; 1179,201;99,00040
 418,98; 1150,863;   55,634; 1143,405;100,68562
 419,58; 1160,511;   64,033; 1142,067;101,71090
 420,17; 1175,655;   52,735; 1164,540;100,99967
 420,76; 1202,386;   72,537; 1192,873;100,84915
 421,35; 1213,683;   60,236; 1155,197;105,34131
 421,94; 1233,298;   88,340; 1223,501;100,86304
 422,53; 1221,774;   61,540; 1195,320;102,33324
 423,12; 1229,106;   64,039; 1190,766;103,40282
 423,71; 1234,295;   60,835; 1162,138;106,55196
 424,30; 1244,922;   85,236; 1210,695;103,04122
 424,90; 1221,678;   39,438; 1163,809;105,14685
 425,49; 1286,610;   70,140; 1216,242;106,13979
 426,08; 1273,410;   80,240; 1209,641;105,64621
 426,67; 1241,671;   57,436; 1168,257;106,60897
 427,26; 1284,057;   60,343; 1230,391;104,58670
 427,85; 1293,866;   63,238; 1209,968;107,31629
 428,44; 1286,618;   68,442; 1218,093;105,96043
 429,03; 1316,366;   85,341; 1233,155;107,24945
 429,62; 1314,478;   78,941; 1240,296;106,38752
 430,21; 1326,373;   81,443; 1277,807;104,05947
 430,80; 1332,817;   70,445; 1235,381;108,36410
 431,39; 1331,849;   53,344; 1246,926;107,11496
 431,99; 1352,995;   78,535; 1206,838;112,95370
 432,58; 1355,906;   82,639; 1251,166;108,96346
 433,17; 1344,519;   69,735; 1238,319;109,08791
 433,76; 1388,449;   71,347; 1288,314;108,22826
 434,35; 1390,841;   88,245; 1292,462;108,16958
 434,94; 1411,592;   70,849; 1318,887;107,42809
 435,53; 1390,721;   78,643; 1278,669;109,33746
 436,12; 1415,061;   70,044; 1294,267;109,86704
 436,71; 1432,650;   87,740; 1303,239;110,64672
 437,30; 1441,002;   76,941; 1299,177;111,60371
 437,89; 1457,353;   76,245; 1320,802;110,97185
 438,48; 1473,169;   65,942; 1305,731;113,50537
 439,07; 1475,430;   95,238; 1347,147;110,24704
 439,66; 1502,389;   83,648; 1375,711;109,80429
 440,25; 1514,061;   85,844; 1390,567;109,46519
 440,84; 1514,332;   79,850; 1387,984;109,65863
 441,43; 1535,688;   78,054; 1440,985;106,94841
 442,02; 1525,384;   79,650; 1411,022;108,58977
 442,61; 1548,849;   93,344; 1397,226;111,62857
 443,20; 1576,944;   94,249; 1446,625;109,63634
 443,79; 1535,121;   74,546; 1412,957;109,12757
 444,38; 1598,753;   84,248; 1461,789;109,94258
 444,97; 1596,481;   84,146; 1466,359;109,41402
 445,56; 1640,845;  101,846; 1477,038;111,91160
 446,15; 1618,200;   81,651; 1522,539;106,63905
 446,74; 1604,037;   58,644; 1462,286;110,09883
 447,33; 1630,421;   82,646; 1538,357;106,32435
 447,92; 1653,824;   78,151; 1570,720;105,56787
 448,51; 1675,469;   89,746; 1586,019;105,97820
 449,10; 1705,305;   92,045; 1608,840;106,35977
 449,69; 1701,260;   73,950; 1627,741;104,73158
 450,28; 1702,901;   66,948; 1608,251;106,14085
 450,87; 1742,225;   78,647; 1656,333;105,44418
 451,46; 1769,628;   96,048; 1702,208;104,19758
 452,05; 1770,432;   70,950; 1715,384;103,34752
 452,64; 1789,672;   70,850; 1725,182;103,89827
 453,23; 1852,440;  113,752; 1794,936;103,42043
 453,82; 1837,036;   83,451; 1800,660;102,11831
 454,40; 1837,472;   65,450; 1786,682;102,95081
 454,99; 1952,008;  101,253; 1871,891;104,52476
 455,58; 1898,473;   69,747; 1832,095;103,76646
 456,17; 1950,180;   63,852; 1873,634;104,22958
 456,76; 1969,924;   67,751; 1918,820;102,76080
 457,35; 2025,453;   78,348; 1930,490;105,12720
 457,94; 2083,860;   66,954; 1978,929;105,48810
 458,53; 2113,248;   67,350; 2010,101;105,30934
 459,12; 2209,659;   82,657; 2111,116;104,85802
 459,71; 2195,577;   58,148; 2060,071;106,76880
 460,30; 2265,589;   84,448; 2087,511;108,89027
 460,89; 2288,724;   57,551; 2129,920;107,66294
 461,48; 2360,260;   75,954; 2173,829;108,88665
 462,06; 2376,208;   68,050; 2187,303;108,91374
 462,65; 2389,704;   48,249; 2176,527;110,01640
 463,24; 2498,267;   87,456; 2288,680;109,52138
 463,83; 2503,308;   54,450; 2229,803;112,57289
 464,42; 2567,492;   88,349; 2333,687;110,41293
 465,01; 2609,872;   73,050; 2336,482;112,07857
 465,60; 2663,884;   64,050; 2384,322;112,04867
 466,19; 2728,360;   73,354; 2462,829;111,11253
 466,77; 2723,800;   81,551; 2462,939;110,95417
 467,36; 2768,971;   69,457; 2459,256;112,95986
 467,95; 2819,188;   79,551; 2466,098;114,79500
 468,54; 2806,711;   71,954; 2513,866;111,99244
 469,13; 2867,952;   69,452; 2535,977;113,45922
 469,72; 2910,839;   67,555; 2582,723;113,04549
 470,31; 2915,615;   87,855; 2629,242;111,26837
 470,90; 2923,820;   76,750; 2652,044;110,55322
 471,48; 2921,247;   32,057; 2671,875;109,44655
 472,07; 3004,661;  125,747; 2686,454;112,42651
 472,66; 2973,344;   67,853; 2748,412;108,39122
 473,25; 2975,600;   68,351; 2723,339;109,50141
 473,84; 2990,475;   55,955; 2766,545;108,26132
 474,43; 3001,391;   55,459; 2843,049;105,68024
 475,01; 3005,800;   69,254; 2885,926;104,25586
 475,60; 2986,551;   49,755; 2882,364;103,67814
 476,19; 3003,875;   74,158; 2956,932;101,62838
 476,78; 2964,471;   71,057; 2964,456;100,00051
 477,37; 2937,951;   59,355; 2945,364;99,74315
 477,95; 2927,591;   75,656; 3018,661;96,90554
 478,54; 2939,308;   63,253; 3023,691;97,14964
 479,13; 2903,008;   56,253; 3070,291;94,44987
 479,72; 2900,835;   81,154; 3090,147;93,70846
 480,31; 2871,267;   63,459; 3167,468;90,45746
 480,89; 2846,399;   60,254; 3171,026;89,56443
 481,48; 2851,482;   46,260; 3214,084;88,55360
 482,07; 2858,911;   61,654; 3233,866;88,18001
 482,66; 2848,496;   52,853; 3253,650;87,34207
 483,25; 2857,083;   78,960; 3319,884;85,72007
 483,83; 2857,887;   59,954; 3325,385;85,68342
 484,42; 2878,060;   54,354; 3355,129;85,54676
 485,01; 2881,999;   65,958; 3400,413;84,45281
 485,60; 2963,558;   73,764; 3490,590;84,57538
 486,18; 2942,491;   66,956; 3490,761;83,98653
 486,77; 2985,340;   67,252; 3519,736;84,52139
 487,36; 3021,746;   58,464; 3561,750;84,58578
 487,95; 3078,522;   59,161; 3640,781;84,30155
 488,53; 3074,534;   54,461; 3642,522;84,17007
 489,12; 3126,206;   50,563; 3722,252;83,76643
 489,71; 3147,226;   38,062; 3680,357;85,36277
 490,30; 3206,858;   61,460; 3742,503;85,44856
 490,88; 3264,710;   87,561; 3859,141;84,23921
 491,47; 3272,294;   60,663; 3867,512;84,36455
 492,06; 3299,554;   62,563; 3920,615;83,90222
 492,65; 3338,686;   59,161; 3947,060;84,35212
 493,23; 3403,794;   54,860; 3982,825;85,25877
 493,82; 3371,220;   65,853; 4018,031;83,63405
 494,41; 3405,762;   51,361; 4066,179;83,55052
 494,99; 3447,375;   73,655; 4126,945;83,23413
 495,58; 3485,259;   86,060; 4224,403;82,13911
 496,17; 3407,267;   56,356; 4198,681;80,89446
 496,76; 3478,691;   65,356; 4276,761;81,04979
 497,34; 3480,135;   54,557; 4305,235;80,58898
 497,93; 3469,247;   66,057; 4350,675;79,42808
 498,52; 3485,843;   60,059; 4454,387;77,95922
 499,10; 3495,914;   75,862; 4533,217;76,72829
 499,69; 3438,119;   55,360; 4537,006;75,48028
 500,28; 3411,167;   37,959; 4592,068;74,06954
 500,86; 3437,450;   62,862; 4698,539;72,79603
 501,45; 3435,950;   53,462; 4730,438;72,32212
 502,04; 3398,526;   53,362; 4813,958;70,26777
 502,62; 3390,067;   70,956; 4856,181;69,36166
 503,21; 3349,343;   57,856; 4939,699;67,42304
 503,80; 3348,202;   69,662; 5015,577;66,28784
 504,38; 3311,495;   58,460; 5081,425;64,76324
 504,97; 3291,402;   49,962; 5122,776;63,89826
 505,56; 3264,203;   70,859; 5194,989;62,31972
 506,14; 3266,334;   64,064; 5263,709;61,58631
 506,73; 3176,474;   23,565; 5292,507;59,83951
 507,32; 3190,126;   62,865; 5376,045;58,85855
 507,90; 3180,383;   70,860; 5443,284;57,87932
 508,49; 3130,962;   58,865; 5500,366;56,45679
 509,08; 3182,170;   67,264; 5571,931;56,58664
 509,66; 3154,271;   69,960; 5677,644;55,00151
 510,25; 3159,998;   63,561; 5737,400;54,57393
 510,83; 3144,774;   45,165; 5855,607;53,34549
 511,42; 3180,049;   61,968; 5895,913;53,44721
 512,01; 3179,110;   59,164; 5980,328;52,69142
 512,59; 3202,402;   46,562; 6041,676;52,64020
 513,18; 3240,262;   59,961; 6114,379;52,52860
 513,77; 3254,083;   42,257; 6171,797;52,39914
 514,35; 3297,066;   37,763; 6190,255;52,97534
 514,94; 3366,314;   58,662; 6323,517;52,79695
 515,52; 3388,466;   48,166; 6358,342;52,93512
 516,11; 3480,386;   80,665; 6474,047;53,17562
 516,69; 3417,655;   41,959; 6446,727;52,70597
 517,28; 3510,087;   83,358; 6541,973;53,05672
 517,87; 3545,911;   45,558; 6604,054;53,37128
 518,45; 3588,963;   74,858; 6626,192;53,63953
 519,04; 3596,827;   54,258; 6707,970;53,24198
 519,62; 3624,554;   55,863; 6774,114;53,11935
 520,21; 3653,854;   24,466; 6828,002;53,34561
 520,79; 3747,697;   52,068; 7000,875;53,18365
 521,38; 3767,746;   52,960; 6995,363;53,50865
 521,97; 3840,061;   43,068; 7141,554;53,49018
 522,55; 3856,115;   67,759; 7195,230;53,15147
 523,14; 3876,103;   26,759; 7180,289;53,81041
 523,72; 3956,734;   77,561; 7383,422;53,09673
 524,31; 3959,574;   71,665; 7406,107;53,00893
 524,89; 4034,809;   48,468; 7526,815;53,30511
 525,48; 4009,917;   21,666; 7603,580;52,60217
 526,06; 4055,510;   56,264; 7633,128;52,78233
 526,65; 4155,869;   72,370; 7803,105;52,82160
 527,23; 4144,378;   46,262; 7840,596;52,57814
 527,82; 4175,958;   37,967; 7905,978;52,59259
 528,41; 4207,129;   67,366; 8041,021;51,91802
 528,99; 4277,962;   66,365; 8108,167;52,37131
 529,58; 4328,590;   42,562; 8168,736;52,74350
 530,16; 4387,462;   49,461; 8315,379;52,48057
 530,75; 4425,622;   73,964; 8417,069;52,15873
 531,33; 4439,518;   45,566; 8440,980;52,33752
 531,92; 4490,871;   48,560; 8567,344;52,14724
 532,50; 4635,917;   87,770; 8706,468;52,77070
 533,09; 4702,213;   65,665; 8807,204;53,04041
 533,67; 4766,739;   63,458; 8952,011;52,91391
 534,26; 4839,307;   65,760; 9007,665;53,38400
 534,84; 4895,786;   68,461; 9127,061;53,28997
 535,42; 5004,922;   61,564; 9205,969;54,05883
 536,01; 5109,854;   79,263; 9330,215;54,37917
 536,59; 5201,554;   43,366; 9482,202;54,64856
 537,18; 5345,519;   77,360; 9568,605;55,50545
 537,76; 5433,548;   56,972; 9764,700;55,38450
 538,35; 5538,673;   59,368; 9892,694;55,72179
 538,93; 5693,610;   72,664; 9941,828;56,95463
 539,52; 5809,669;   57,370;10111,405;57,21383
 540,10; 5959,165;   63,269;10309,029;57,54474
 540,69; 6083,682;   68,763;10444,071;57,97340
 541,27; 6190,614;   58,262;10514,917;58,64545
 541,85; 6321,377;   47,366;10658,783;59,12510
 542,44; 6393,283;   56,460;10765,484;59,17274
 543,02; 6580,565;   80,369;10952,729;59,78643
 543,61; 6680,869;   77,067;11102,218;59,89761
 544,19; 6757,490;   55,066;11264,023;59,79525
 544,78; 6794,642;   62,766;11296,562;59,92521
 545,36; 6968,889;   77,469;11521,011;60,22104
 545,94; 7024,722;   54,564;11563,069;60,56527
 546,53; 7101,373;   52,771;11724,882;60,38840
 547,11; 7235,237;   90,668;11879,873;60,60264
 547,70; 7259,719;   75,860;11954,706;60,47607
 548,28; 7299,162;   47,965;12093,066;60,20038
 548,86; 7436,662;   81,365;12327,767;60,06088
 549,45; 7426,761;   33,768;12364,953;59,95363
 550,03; 7534,245;   76,467;12507,537;59,99305
 550,62; 7673,065;   63,566;12662,842;60,39632
 551,20; 7781,369;   61,467;12808,418;60,56274
 551,78; 7775,446;   61,164;12952,850;59,83920
 552,37; 7876,922;   55,864;13112,469;59,90116
 552,95; 7917,486;   56,765;13214,547;59,74199
 553,54; 8068,074;   49,965;13393,207;60,09116
 554,12; 8113,033;   67,167;13498,797;59,90238
 554,70; 8255,237;   67,568;13736,973;59,89777
 555,29; 8212,737;   61,965;13856,285;59,08789
 555,87; 8321,793;   60,170;13987,786;59,31828
 556,45; 8432,526;   57,162;14154,058;59,41283
 557,04; 8470,793;   43,667;14376,600;58,79555
 557,62; 8559,493;   68,867;14525,499;58,73170
 558,20; 8650,860;   42,671;14799,940;58,33186
 558,79; 8778,697;  100,368;14905,875;58,61555
 559,37; 8790,869;   49,867;15000,418;58,46609
 559,95; 8915,813;   46,669;15169,691;58,64664
 560,54; 8964,350;   71,768;15324,613;58,30113
 561,12; 9050,142;   50,866;15485,562;58,30549
 561,70; 9130,401;   50,369;15679,551;58,09666
 562,29; 9231,173;   61,768;15810,994;58,22130
 562,87; 9306,261;   73,168;16023,953;57,88488
 563,45; 9423,062;   71,068;16194,754;58,00159
 564,04; 9408,378;   54,362;16227,195;57,83783
 564,62; 9501,225;   37,769;16438,332;57,70202
 565,20; 9589,851;   59,962;16715,838;57,21638
 565,78; 9718,350;   70,765;16797,326;57,67823
 566,37; 9781,277;   71,066;17011,283;57,32047
 566,95; 9839,265;   52,969;17124,330;57,32581
 567,53; 9914,227;   67,262;17308,857;57,11168
 568,12; 9964,162;   62,265;17367,766;57,21821
 568,70;10106,498;   85,264;17565,889;57,32766
 569,28;10139,001;   61,069;17745,252;56,98840
 569,86;10196,481;   67,767;17910,758;56,76579
 570,45;10315,453;   78,569;18124,689;56,72623
 571,03;10350,738;   53,962;18259,898;56,55725
 571,61;10513,745;   46,571;18424,824;56,95413
 572,19;10447,242;   54,263;18395,773;56,66370
 572,78;10526,697;   70,668;18668,975;56,22033
 573,36;10633,422;   84,264;18797,668;56,37220
 573,94;10761,346;   44,064;18892,750;56,85957
 574,52;10759,566;   54,559;19030,768;56,41278
 575,11;10840,770;   37,264;19159,830;56,49611
 575,69;10920,018;   53,566;19268,680;56,55159
 576,27;10933,022;   47,161;19391,381;56,27449
 576,85;11023,622;   43,264;19549,668;56,29104
 577,44;11120,326;   30,262;19814,158;56,05602
 578,02;11142,742;   32,159;19753,887;56,33676
 578,60;11254,558;   50,464;20073,791;55,95521
 579,18;11315,206;   51,963;20160,752;56,01154
 579,76;11384,210;   40,264;20300,129;55,99221
 580,35;11458,229;   60,170;20436,707;55,93717
 580,93;11537,821;   59,667;20641,557;55,76822
 581,51;11545,417;   24,770;20697,168;55,72961
 582,09;11662,866;   58,663;20755,756;56,06683
 582,67;11756,770;   49,567;20971,318;55,95709
 583,26;11826,350;   28,568;21227,014;55,65399
 583,84;11925,434;   14,164;21413,709;55,66132
 584,42;11979,098;   48,064;21513,287;55,58309
 585,00;12128,718;   81,366;21772,180;55,54126
 585,58;12220,993;   25,167;21912,299;55,72145
 586,17;12169,135;   46,761;21948,521;55,34886
 586,75;12227,953;    6,666;22026,902;55,50025
 587,33;12296,957;   47,767;22191,678;55,31629
 587,91;12388,054;   74,866;22390,201;55,17814
 588,49;12291,626;   63,962;22349,758;54,86752
 589,07;12399,810;   45,468;22403,215;55,25754
 589,65;12320,006;   28,267;22444,439;54,83425
 590,24;12375,038;   42,562;22447,799;55,04283
 590,82;12340,786;   28,261;22484,160;54,82980
 591,40;12323,233;   41,464;22520,209;54,63726
 591,98;12350,755;   45,759;22558,227;54,65858
 592,56;12363,286;   61,161;22699,961;54,34089
 593,14;12347,755;   43,359;22728,928;54,23887
 593,72;12390,474;   29,765;22889,107;54,07290
 594,30;12366,843;   36,759;22797,486;54,17263
 594,89;12298,109;   41,364;22862,428;53,70804
 595,47;12420,135;   38,961;22922,623;54,10486
 596,05;12385,493;   30,267;23003,799;53,78027
 596,63;12404,993;   31,167;23056,199;53,74076
 597,21;12384,065;   36,766;23145,441;53,43145
 597,79;12393,506;   35,467;23166,039;53,42730
 598,37;12449,641;   36,669;23222,748;53,53631
 598,95;12448,453;   50,766;23305,301;53,31299
 599,53;12333,783;   46,757;23207,996;53,04995
 600,11;12477,086;   48,665;23341,947;53,35625
 600,70;12419,794;   57,363;23315,111;53,15403
 601,28;12434,034;   38,564;23424,809;53,00325
 601,86;12415,653;   61,766;23355,102;53,03615
 602,44;12417,187;   23,661;23449,660;52,90500
 603,02;12445,479;   38,656;23576,521;52,71006
 603,60;12529,875;   54,858;23663,232;52,84149
 604,18;12468,830;   69,263;23594,734;52,70699
 604,76;12454,566;   59,263;23642,154;52,56058
 605,34;12314,102;   27,565;23530,764;52,27602
 605,92;12215,074;   59,561;23453,719;51,95961
 606,50;12171,139;   17,662;23498,998;51,75803
 607,08;12074,518;   31,666;23394,881;51,54621
 607,66;12013,365;   39,266;23561,643;50,90514
 608,24;11897,182;   46,067;23522,059;50,48185
 608,82;11788,470;   26,164;23532,031;50,03987
 609,40;11618,229;   46,466;23471,021;49,40014
 609,98;11498,710;   18,864;23505,928;48,87731
 610,56;11318,646;   43,861;23497,662;48,07232
 611,14;11095,338;   30,765;23481,086;47,18303
 611,72;10955,861;   42,665;23572,467;46,38032
 612,30;10785,479;   24,962;23468,496;45,89972
 612,88;10617,215;   60,659;23517,730;45,00373
 613,46;10425,438;   21,862;23505,697;44,30101
 614,04;10276,837;   30,068;23461,873;43,73017
 614,62;10104,723;   41,561;23489,982;42,91616
 615,20; 9999,409;   52,768;23402,416;42,59868
 615,78; 9923,765;   25,569;23463,430;42,23165
 616,36; 9961,446;   41,364;23400,150;42,46831
 616,94; 9859,166;    7,666;23272,242;42,34550
 617,52; 9853,121;   24,067;23373,656;42,09519
 618,10; 9949,079;   63,559;23336,107;42,47717
 618,68; 9907,478;   17,966;23253,184;42,56260
 619,26; 9955,885;   39,268;23398,834;42,45206
 619,84; 9899,130;   18,963;23277,133;42,48041
 620,42; 9884,574;   31,165;23313,506;42,32139
 621,00; 9883,574;   28,865;23209,607;42,51248
 621,58; 9848,019;   38,760;23216,406;42,32207
 622,16; 9818,657;   49,270;23335,164;41,95410
 622,74; 9834,266;   47,066;23327,742;42,04001
 623,32; 9667,890;   42,166;23291,223;41,40264
 623,90; 9611,333;   66,971;23311,484;41,06071
 624,48; 9535,938;   32,662;23196,598;41,02617
 625,05; 9530,538;   34,562;23105,098;41,16062
 625,63; 9543,838;   52,962;23188,799;41,02240
 626,21; 9452,979;   38,262;23117,596;40,79284
 626,79; 9447,569;   53,967;23219,719;40,54953
 627,37; 9352,414;   28,162;23090,717;40,43027
 627,95; 9462,709;   72,768;23200,215;40,60086
 628,53; 9476,273;   49,365;23176,607;40,76106
 629,11; 9396,391;   48,259;23043,449;40,65255
 629,69; 9520,725;   53,369;23256,932;40,80130
 630,27; 9586,030;   80,763;23105,434;41,28297
 630,84; 9544,538;   43,862;23021,197;41,34803
 631,42; 9597,722;   54,367;23319,656;41,01971
 632,00; 9643,767;   45,459;23125,768;41,58656
 632,58; 9647,782;   50,263;23105,172;41,62896
 633,16; 9658,969;   49,870;23096,906;41,69342
 633,74; 9653,098;   56,264;23018,488;41,79401
 634,32; 9585,610;   45,661;23007,842;41,54636
 634,90; 9597,980;   51,970;23195,746;41,24656
 635,47; 9431,070;   38,860;23035,645;40,84141
 636,05; 9305,610;   37,461;22989,342;40,38078
 636,63; 9212,374;   45,965;23104,807;39,75225
 637,21; 9128,609;   67,464;23150,529;39,25451
 637,79; 9020,514;   71,465;23192,904;38,70455
 638,37; 8830,827;   54,055;23070,883;38,13198
 638,94; 8733,737;   33,265;23100,686;37,71758
 639,52; 8597,138;   41,665;23195,285;36,95091
 640,10; 8467,968;   64,264;23215,900;36,29853
 640,68; 8329,326;   54,164;23175,334;35,79041
 641,26; 8251,484;   35,864;23250,268;35,39019
 641,84; 8167,543;   39,164;23235,002;35,04240
 642,41; 8077,201;   28,264;23192,936;34,74661
 642,99; 8144,760;   48,464;23145,568;35,05329
 643,57; 8135,818;   22,064;23158,402;35,06931
 644,15; 8191,076;   27,064;23178,035;35,26423
 644,73; 8333,635;   37,564;23277,568;35,69737
 645,30; 8412,192;   55,264;23230,303;36,06004
 645,88; 8497,751;   44,964;23362,635;36,25056
 646,46; 8592,109;   59,264;23447,568;36,48339
 647,04; 8683,167;   51,864;23367,902;37,01874
 647,61; 8743,826;   46,564;23396,336;37,24774
 648,19; 8811,284;   61,664;23433,369;37,43681
 648,77; 8871,643;   26,264;23442,002;37,77536
 649,35; 8857,301;   51,064;23590,137;37,41114
 649,92; 8882,659;   42,464;23596,070;37,53224
 650,50; 8845,817;   30,064;23551,104;37,48029
 651,08; 8873,375;   39,964;23450,537;37,73257
 651,66; 8808,534;   21,864;23534,770;37,36956
 652,23; 8735,992;   39,064;23561,004;36,97368
 652,81; 8674,050;   36,464;23644,137;36,58804
 653,39; 8606,408;   56,164;23647,170;36,24366
 653,97; 8567,767;   37,065;23882,504;35,77498
 654,54; 8415,425;   23,565;23823,137;35,26055
 655,12; 8380,783;   30,965;23831,971;35,08179
 655,70; 8295,042;   42,065;23962,805;34,50135
 656,28; 8233,900;   32,765;23947,037;34,29390
 656,85; 8156,758;   44,065;24051,070;33,79303
 657,43; 8104,417;   -1,035;23831,305;34,01031
 658,01; 8181,975;   21,465;24078,539;33,92146
 658,58; 8332,533;   55,165;24234,371;34,23342
 659,16; 8266,392;   51,965;24154,105;34,08173
 659,74; 8370,550;   59,465;24338,039;34,23218
 660,32; 8417,908;   71,665;24327,672;34,40897
 660,89; 8519,466;   34,265;24347,305;34,89979
 661,47; 8734,024;   51,665;24464,939;35,56409
 662,05; 8771,482;   25,365;24587,373;35,60832
 662,62; 8974,441;   59,665;24584,006;36,35073
 663,20; 9073,899;   80,665;24740,139;36,46969
 663,78; 9206,457;   47,965;24902,773;36,84797
 664,35; 9306,315;   52,465;24921,006;37,21107
 664,93; 9346,074;   64,465;25123,539;37,03892
 665,51; 9389,232;   49,565;25170,973;37,17812
 666,08; 9413,490;   30,165;25185,707;37,30122
 666,66; 9527,648;   47,465;25667,539;37,00295
 667,23; 9529,907;   51,765;25732,773;36,90720
 667,81; 9530,565;   65,865;25889,307;36,65158
 668,39; 9559,724;   43,265;26047,141;36,59631
 668,96; 9550,982;   54,665;26309,074;36,17037
 669,54; 9483,340;   38,765;26408,408;35,81609
 670,12; 9436,198;   51,165;26808,740;35,07430
 670,69; 9506,157;   64,165;26950,674;35,11795
 671,27; 9424,115;   25,565;27096,008;34,71886
 671,84; 9316,974;   40,665;27105,240;34,27472
 672,42; 9379,031;   66,265;27253,875;34,25371
 673,00; 9376,689;   57,165;27531,408;33,92095
 673,57; 9334,448;   59,965;27276,441;34,07672
 674,15; 9375,307;   64,065;27613,475;33,79833
 674,72; 9306,465;   58,565;27536,209;33,65609
 675,30; 9411,123;   69,466;27513,541;34,03889
 675,88; 9496,481;   36,266;27573,176;34,35467
 676,45; 9633,439;   59,466;27677,309;34,66590
 677,03; 9743,397;   67,866;27525,043;35,23863
 677,60; 9877,756;   41,466;27770,576;35,47279
 678,18;10046,015;   59,466;27877,510;35,89954
 678,76;10128,072;   40,766;27809,143;36,32660
 679,33;10240,731;   57,666;27813,176;36,68845
 679,91;10378,089;   44,266;27813,311;37,21346
 680,48;10467,348;   28,766;27740,242;37,66880
 681,06;10561,206;   50,866;27735,176;37,96497
 681,63;10565,464;   37,566;27736,209;38,00871
 682,21;10592,622;   67,966;27797,543;37,95462
 682,78;10557,780;   20,566;27459,576;38,40231
 683,36;10590,739;   46,966;27565,510;38,31516
 683,93;10566,598;   30,466;27450,645;38,42474
 684,51;10457,056;   26,166;27477,277;37,99806
 685,08;10489,813;   38,966;27733,711;37,73585
 685,66;10387,772;   53,066;27694,045;37,38908
 686,24;10334,330;   33,766;27796,578;37,10202
 686,81;10263,789;   57,666;27899,910;36,65697
 687,39;10177,747;   38,866;27807,844;36,51154
 687,96;10133,505;   54,166;27850,479;36,26142
 688,54;10064,264;   30,866;27984,811;35,89260
 689,11;10045,922;   26,966;28043,545;35,76081
 689,69; 9937,280;   29,666;28019,279;35,39747
 690,26;10053,938;   59,466;28289,313;35,40392
 690,84;10002,097;   50,066;28239,846;35,30368
 691,41;10081,655;   35,966;28403,879;35,41215
 691,98;10047,413;   31,466;28427,912;35,27183
 692,56;10180,972;   32,866;28437,445;35,72700
 693,13;10305,229;   64,866;28655,080;35,81772
 693,71;10403,488;   24,466;28657,912;36,24790
 694,28;10489,046;   41,966;28715,945;36,43401
 694,86;10707,805;   47,266;28928,879;36,91116
 695,43;10867,563;   61,366;29100,912;37,21200
 696,01;11050,121;   36,266;29145,547;37,83623
 696,58;11098,079;   42,167;29083,879;38,06908
 697,16;11250,438;   38,067;29126,414;38,54592
 697,73;11479,096;   63,467;29338,246;38,99476
 698,30;11591,054;   51,867;29223,980;39,55554
 698,88;11650,813;   40,467;29558,613;39,33291
 699,45;11783,971;   35,367;29765,848;39,51703
 700,03;11860,629;   56,067;29750,980;39,75281
 700,60;11971,888;   56,267;29850,613;39,99289
 701,18;12078,245;   61,867;29963,947;40,18576
 701,75;12110,204;   74,367;30094,682;40,09231
 702,32;12006,262;   50,367;29901,914;40,05117
 702,90;12052,021;   52,467;30254,148;39,73141
 703,47;12048,579;   51,367;30428,881;39,49373
 704,05;12020,037;   67,767;30546,715;39,21484
 704,62;11971,795;   39,867;30587,848;39,05963
 705,19;11975,854;   43,667;30586,982;39,06644
 705,77;11852,012;   29,967;30618,314;38,64885
 706,34;11840,970;   61,667;30627,049;38,53805
 706,91;11906,229;   46,367;30673,883;38,72290
 707,49;12011,986;   57,267;30976,316;38,66458
 708,06;12007,145;   66,367;31089,049;38,49047
 708,64;11886,604;   25,767;31093,582;38,17725
 709,21;12012,461;   58,167;31179,316;38,41212
 709,78;12075,319;   41,367;31281,150;38,52124
 710,36;12178,478;   61,667;31419,684;38,64023
 710,93;12443,536;   50,567;31562,416;39,32797
 711,50;12510,994;   44,467;31506,049;39,62460
 712,08;12703,953;   76,567;31925,383;39,64790
 712,65;12698,911;   73,667;31775,916;39,82444
 713,22;12893,669;   69,067;31900,250;40,28943
 713,80;13054,128;   84,167;31966,883;40,68023
 714,37;13107,286;   55,767;31827,018;41,07965
 714,94;13364,145;   53,967;31727,551;42,02296
 715,52;13504,402;   47,867;31732,984;42,46958
 716,09;13664,661;   65,467;31891,918;42,72922
 716,66;13718,519;   73,467;31935,051;42,82603
 717,23;13908,577;   66,867;31908,484;43,47050
 717,81;13799,735;   50,168;31812,018;43,28957
 718,38;13768,894;   47,468;31671,252;43,38958
 718,95;13842,552;   59,068;31618,984;43,67402
 719,53;13959,410;   56,568;31661,418;43,98959
 720,10;13924,669;   59,968;31481,252;44,12519
 720,67;13863,327;   35,768;31355,984;44,14899
 721,24;13896,785;   59,468;31256,020;44,35528
 721,82;13808,743;   49,968;31236,053;44,11832
 722,39;13851,502;   64,068;31235,885;44,23045
 722,96;13890,260;   64,968;31261,420;44,31687
 723,53;13795,918;   88,268;31151,953;44,12757
 724,11;13948,776;   61,568;31207,486;44,58757
 724,68;13930,635;   71,568;31242,020;44,46219
 725,25;14003,193;   72,768;31399,953;44,46753
 725,82;14147,151;   96,068;31564,387;44,65152
 726,40;14116,109;   62,668;31714,820;44,39964
 726,97;14187,368;   62,168;31875,354;44,40046
 727,54;14269,126;   46,968;31801,486;44,78782
 728,11;14336,585;   49,568;32045,820;44,65216
 728,69;14412,143;   39,568;31938,953;45,05596
 729,26;14503,001;   53,568;32105,088;45,08190
 729,83;14691,260;   53,268;32264,621;45,44358
 730,40;14841,218;   66,768;32291,754;45,84781
 730,97;15043,976;   44,268;32590,588;46,08726
 731,55;15155,834;   41,468;32755,820;46,20102
 732,12;15324,192;   86,268;32841,656;46,52036
 732,69;15395,551;   66,968;32889,988;46,70071
 733,26;15357,209;   55,168;32930,520;46,54563
 733,83;15545,468;   41,168;32979,055;47,07132
 734,41;15714,825;   65,468;32991,590;47,52870
 734,98;15834,784;   51,368;33155,621;47,67791
 735,55;16062,942;   43,168;33183,656;48,33898
 736,12;16157,900;   65,968;33377,289;48,30770
 736,69;16232,459;   76,968;33377,922;48,51360
 737,26;16180,217;   57,468;33552,254;48,13510
 737,84;16254,976;   70,768;33487,188;48,43190
 738,41;16280,533;   63,168;33492,422;48,51249
 738,98;16290,492;   63,569;33375,055;48,71270
 739,55;16283,050;   49,669;33377,789;48,70776
 740,12;16480,309;   62,969;33678,023;48,83925
 740,69;16531,268;   70,569;33575,656;49,12895
 741,26;16466,625;   56,269;33557,391;48,98450
 741,83;16530,184;   53,869;33719,523;48,94102
 742,41;16475,641;   56,169;33833,055;48,61156
 742,98;16568,500;   91,469;33874,590;48,77297
 743,55;16568,059;   53,569;33836,824;48,88365
 744,12;16636,916;   50,469;33859,855;49,05870
 744,69;16685,375;   59,569;33848,492;49,20490
 745,26;16749,434;   42,169;33677,723;49,67144
 745,83;16766,891;   58,769;33854,355;49,43877
 746,40;16753,250;   57,969;33844,789;49,41359
 746,97;16778,309;   44,769;33828,125;49,53190
 747,55;16857,666;   62,269;33966,957;49,53709
 748,12;16912,824;   57,869;33910,191;49,78966
 748,69;17040,883;   68,769;33877,625;50,20020
 749,26;17089,541;   65,069;33958,559;50,22933
 749,83;17083,600;   42,569;33911,992;50,31391
 750,40;17200,857;   89,669;34158,824;50,22487
 750,97;17378,115;   96,269;34144,160;50,75746
 751,54;17237,373;   40,569;33980,793;50,66792
 752,11;17287,633;   52,969;33874,727;50,95733
 752,68;17276,990;   87,869;33912,859;50,81782
 753,25;17264,850;   60,269;33774,594;51,03048
 753,82;17259,707;   65,069;33810,527;50,95393
 754,39;17261,865;   75,169;33727,160;51,07185
 754,96;17207,623;   60,069;33616,395;51,10081
 755,53;17401,182;   29,469;33796,527;51,44574
 756,10;17275,240;   64,169;33720,961;51,13699
 756,67;17381,699;   73,369;33813,395;51,29910
 757,24;17249,156;   72,769;33740,426;51,01747
 757,81;17193,314;   16,469;33677,762;51,02848
 758,38;17192,373;   54,569;33822,695;50,75142
 758,95;17154,732;   79,469;33743,426;50,72269
 759,52;17128,189;   57,469;33615,859;50,86871
 760,09;17082,148;   68,570;33306,992;51,18648
 760,66;17174,006;   59,570;33309,727;51,47175
 761,23;17047,865;   91,070;33353,961;50,97812
 761,80;16918,023;   56,270;33295,793;50,72803
 762,37;16929,182;   68,970;33167,727;50,93911
 762,94;17003,240;   70,970;33187,461;51,12942
 763,51;16912,297;   36,070;32949,793;51,27414
 764,08;16898,355;   66,270;32998,527;51,11124
 764,65;16802,014;   69,570;32798,961;51,12360
 765,22;16789,572;   54,670;32804,496;51,09921
 765,79;16747,631;   77,370;32691,928;51,11295
 766,36;16821,289;   73,170;32743,063;51,26469
 766,93;16970,146;   68,970;32551,295;52,03192
 767,50;16923,506;   89,470;32828,328;51,41913
 768,07;16889,264;   63,870;32699,262;51,55567
 768,64;16967,422;   86,470;32572,596;51,96357
 769,21;16843,980;   57,970;32359,729;51,96624
 769,78;16842,338;   78,770;32244,963;52,11549
 770,34;16682,297;   45,570;32031,195;52,01314
 770,91;16665,156;   58,470;31921,430;52,11910
 771,48;16562,914;   62,370;31836,863;51,93016
 772,05;16580,473;   66,470;31610,697;52,35190
 772,62;16454,230;   42,670;31443,029;52,26552
 773,19;16560,389;   59,370;31579,764;52,35029
 773,76;16540,047;   71,070;31506,297;52,39020
 774,33;16471,105;   74,170;31447,330;52,26421
 774,90;16362,663;   52,870;31206,064;52,35352
 775,47;16267,521;   59,970;30957,498;52,45582
 776,03;16202,680;   73,470;30984,330;52,17975
 776,60;16103,438;   55,970;30757,863;52,26866
 777,17;16208,097;   65,470;30698,098;52,69749
 777,74;15927,455;   30,870;30522,031;52,13506
 778,31;16012,113;   68,970;30582,064;52,25017
 778,88;15727,371;   30,470;30366,898;51,74275
 779,45;15695,930;   75,770;30358,131;51,58171
 780,01;15654,088;   58,370;30299,664;51,57093
 780,58;15505,646;   60,570;30177,998;51,28285
 781,15;15503,204;   38,771;29979,432;51,65027
 781,72;15430,862;   66,771;29962,266;51,39267
 782,29;15339,521;   51,771;29667,100;51,62107
 782,86;15351,179;   55,571;29617,732;51,74049
 783,42;15325,938;   56,171;29598,166;51,68834
 783,99;15272,996;   66,671;29482,100;51,69507
 784,56;15231,454;   55,171;29320,232;51,85803
 785,13;15185,612;   40,271;29247,266;51,85519
 785,70;15053,271;   49,071;29060,299;51,71860
 786,26;15007,229;   51,671;28910,732;51,82274
 786,83;14907,787;   84,371;28889,166;51,46163
 787,40;14864,045;   57,171;28783,500;51,54461
 787,97;14751,504;   43,971;28581,133;51,53818
 788,54;14764,862;   70,371;28515,268;51,65950
 789,10;14882,320;   57,971;28344,400;52,40799
 789,67;14760,979;   70,371;28245,334;52,14065
 790,24;14630,037;   51,071;28193,768;51,80373
 790,81;14574,795;   88,271;27914,400;52,06087
 791,37;14469,653;   73,671;27872,135;51,78697
 791,94;14589,312;   70,771;27886,367;52,19568
 792,51;14404,270;   46,271;27539,201;52,22433
 793,08;14346,229;   69,771;27555,234;51,94185
 793,64;14252,486;   71,271;27455,168;51,78670
 794,21;14218,245;   69,671;27250,602;52,05331
 794,78;14130,003;   53,071;27147,035;51,95597
 795,35;13954,761;   73,471;27007,969;51,53721
 795,91;13934,920;   48,071;26789,301;51,93048
 796,48;13776,978;   55,771;26710,734;51,47712
 797,05;13759,836;   57,671;26624,369;51,57647
 797,62;13735,494;   41,971;26600,701;51,55940
 798,18;13586,753;   57,471;26410,736;51,33816
 798,75;13441,711;   56,571;26279,770;51,04312
 799,32;13428,569;   60,771;26209,102;51,12295
 799,88;13311,827;   55,971;26051,535;50,99276
 800,45;13227,586;   33,971;25945,270;50,91838
 801,02;13190,644;   65,271;25880,104;50,84431
 801,58;13206,303;   90,872;25660,436;51,29314
 802,15;13120,360;   72,872;25615,270;51,08169
 802,72;12946,318;   66,172;25404,703;50,83225
 803,28;12891,677;   49,172;25288,938;50,88203
 803,85;12846,136;   41,972;25144,871;51,00671
 804,42;12900,794;   77,772;24948,004;51,55972
 804,98;12897,052;  100,672;24935,537;51,52587
 805,55;12686,811;   56,972;24702,371;51,24623
 806,12;12625,068;   83,572;24611,004;51,13253
 806,68;12579,526;   66,472;24493,738;51,22577
 807,25;12604,985;   74,972;24436,271;51,43409
 807,82;12560,543;   86,872;24407,805;51,28780
 808,38;12496,201;   73,672;24367,037;51,13548
 808,95;12518,560;   62,972;24166,971;51,67436
 809,52;12397,118;   50,272;24162,004;51,20680
 810,08;12423,876;   55,172;23994,938;51,66594
 810,65;12490,335;   77,172;24169,672;51,52293
 811,21;12448,693;   69,972;24123,404;51,46343
 811,78;12514,352;   92,472;24337,539;51,23467
 812,35;12408,810;   64,972;24173,871;51,20034
 812,91;12426,468;   90,072;24239,705;51,08316
 813,48;12437,526;   68,172;24202,738;51,25161
 814,04;12415,385;   64,172;24088,373;51,41154
 814,61;12365,942;   77,572;24176,006;50,99240
 815,18;12138,101;   67,772;23892,539;50,66294
 815,74;12154,259;   69,772;23709,172;51,12011
 816,31;12071,317;   83,372;23614,406;50,94525
 816,87;11884,676;   43,272;23489,641;50,50421
 817,44;11794,234;   76,972;23452,273;50,12668
 818,00;11654,393;   43,272;23159,506;50,22929
 818,57;11644,851;   71,872;23076,340;50,30753
 819,14;11554,709;   82,872;22924,273;50,22387
 819,70;11485,867;   72,672;22792,707;50,23406
 820,27;11428,426;   62,972;22691,941;50,22524
 820,83;11318,084;   70,072;22541,373;50,05501
 821,40;11283,842;   98,072;22431,908;50,08441
 821,96;11290,101;   75,272;22315,541;50,42578
 822,53;11240,858;   70,973;22257,574;50,34519
 823,09;11157,017;   81,073;22073,309;50,36297
 823,66;11038,675;   68,173;21862,541;50,33641
 824,22;11053,033;   77,173;21851,674;50,40694
 824,79;10979,092;   75,473;21561,408;50,74770
 825,35;10934,050;   65,173;21648,041;50,35882
 825,92;10802,309;   75,173;21398,875;50,30616
 826,48;10840,366;   87,673;21501,309;50,21424
 827,05;10773,725;   89,573;21448,242;50,02255
 827,61;10666,883;   75,273;21249,076;50,02224
 828,18;10653,441;   60,873;21191,209;50,12967
 828,74;10675,399;   91,673;21053,543;50,49037
 829,31;10610,258;   83,373;21002,176;50,32260
 829,87;10512,517;   73,073;20733,709;50,52818
 830,44;10456,274;   85,173;20631,443;50,47681
 831,00;10437,833;   91,273;20673,977;50,26823
 831,57;10418,391;  101,573;20631,609;50,25231
 832,13;10196,449;   72,073;20323,344;49,99378
 832,69;10128,008;   58,173;20309,477;49,72438
 833,26;10162,866;   85,473;20322,711;49,79629
 833,82;10090,724;   93,073;20197,744;49,72800
 834,39;10007,282;   78,773;20137,477;49,49726
 834,95; 9965,041;   57,173;19959,410;49,78268
 835,52; 9907,699;   87,873;19851,744;49,68574
 836,08; 9880,558;   95,573;19951,877;49,27898
 836,64; 9811,415;   76,273;19800,711;49,35574
 837,21; 9711,174;   88,673;19552,443;49,43801
 837,77; 9671,532;   91,873;19491,777;49,37993
 838,34; 9605,891;   67,473;19470,012;49,16067
 838,90; 9530,349;   64,473;19306,045;49,19492
 839,46; 9536,407;   83,873;19312,479;49,15871
 840,03; 9559,765;   76,173;19300,811;49,33040
 840,59; 9511,924;   85,873;19175,645;49,37749
 841,16; 9483,582;  105,173;19156,578;49,22686
 841,72; 9407,140;   59,373;18965,512;49,44302
 842,28; 9438,898;   77,873;18857,246;49,84738
 842,85; 9364,356;   95,573;18812,578;49,52065
 843,41; 9382,515;  105,374;18740,813;49,78225
 843,97; 9299,673;   89,174;18686,846;49,52501
 844,54; 9188,631;  104,774;18624,979;49,04836
 845,10; 9119,689;   89,174;18523,713;48,98694
 845,67; 9119,248;   68,774;18413,445;49,33571
 846,23; 9076,506;   78,674;18361,080;49,21580
 846,79; 8967,364;   90,474;18265,613;48,84084
 847,36; 8875,123;   55,774;18179,047;48,66312
 847,92; 8833,381;   84,874;18034,680;48,73873
 848,48; 8816,339;   41,874;18039,213;48,75424
 849,04; 8748,298;   62,374;17949,447;48,55978
 849,61; 8718,256;   56,274;17918,580;48,49308
 850,17; 8715,014;   68,174;17819,514;48,71091
 850,73; 8582,372;   71,474;17764,848;48,10218
 851,30; 8484,931;   46,074;17669,881;47,88328
 851,86; 8438,688;   75,874;17597,914;47,72740
 852,42; 8420,947;   51,174;17568,348;47,78039
 852,99; 8426,506;   79,274;17583,082;47,68809
 853,55; 8332,563;   83,174;17542,514;47,24915
 854,11; 8267,422;   70,074;17432,049;47,21437
 854,67; 8270,480;   85,474;17420,881;47,21554
 855,24; 8219,339;   51,874;17213,414;47,59168
 855,80; 8281,197;   76,874;17244,848;47,78854
 856,36; 8249,455;   80,574;17175,881;47,78435
 856,92; 8151,613;   54,474;17027,215;47,70673
 857,49; 8202,172;   81,274;17048,248;47,86297
 858,05; 8127,830;   67,274;16968,482;47,69219
 858,61; 8151,388;   65,774;17003,316;47,73782
 859,17; 8140,646;   77,374;16904,250;47,91901
 859,74; 8051,305;   82,074;16836,883;47,56384
 860,30; 7984,163;   93,074;16663,016;47,62291
 860,86; 7961,721;   72,074;16692,350;47,47001
 861,42; 7929,580;   74,674;16545,883;47,68870
 861,99; 7868,938;   54,674;16506,717;47,49722
 862,55; 7820,796;   66,374;16393,051;47,49541
 863,11; 7780,055;   75,174;16437,283;47,08978
 863,67; 7758,713;   61,274;16290,117;47,43061
 864,23; 7758,371;   80,175;16199,351;47,63393
 864,80; 7676,929;   69,175;16081,384;47,51221
 865,36; 7621,988;   71,875;16120,817;47,04430
 865,92; 7546,746;   96,175;16088,751;46,58768
 866,48; 7501,404;   67,375;15987,384;46,69614
 867,04; 7387,563;   60,675;15891,418;46,28265
 867,60; 7382,421;   99,375;15884,451;46,13881
 868,17; 7376,479;   93,675;15884,685;46,11994
 868,73; 7303,137;   82,775;15672,618;46,31453
 869,29; 7243,896;   59,475;15470,151;46,61976
 869,85; 7212,654;  100,475;15369,685;46,57857
 870,41; 7134,112;   80,575;15293,418;46,36568
 870,97; 7110,170;   92,975;15232,252;46,35093
 871,54; 7042,329;   84,175;15178,686;46,09725
 872,10; 7031,987;   84,275;15055,419;46,40735
 872,66; 6970,145;   66,775;14910,652;46,50652
 873,22; 6897,104;   81,975;14890,586;46,02139
 873,78; 6793,162;   65,275;14742,419;45,83921
 874,34; 6806,320;   95,075;14662,652;46,06974
 874,90; 6681,620;  109,775;14536,053;45,55468
 875,46; 6726,020;   96,375;14412,952;46,30747
 876,03; 6635,720;   86,475;14363,353;45,87309
 876,59; 6555,120;   64,475;14153,253;46,06961
 877,15; 6601,620;  101,475;14166,853;46,21380
 877,71; 6581,820;   78,275;14064,652;46,49914
 878,27; 6475,120;   95,675;13910,553;46,17808
 878,83; 6511,020;  114,275;13971,753;46,16096
 879,39; 6435,720;   91,075;14082,753;45,34585
 879,95; 6336,620;   86,275;13964,253;45,03787
 880,51; 6297,620;   75,175;13927,253;44,92066
 881,07; 6287,520;   82,375;13978,753;44,65297
 881,63; 6304,220;   92,575;13971,253;44,75675
 882,19; 6307,520;   82,675;13921,553;44,98085
 882,75; 6257,720;   86,275;14019,553;44,29285
 883,31; 6300,020;   95,575;14187,853;44,02727
 883,88; 6280,620;   96,375;14174,353;43,92851
 884,44; 6277,420;   76,175;14175,753;43,98178
 885,00; 6346,720;  106,075;14266,952;44,06962
 885,56; 6353,920;  101,675;14299,452;44,03679
 886,12; 6331,920;  109,875;14421,152;43,47652
 886,68; 6332,720;   90,775;14436,753;43,51007
 887,24; 6397,120;  102,475;14574,952;43,49390
 887,80; 6357,320;   86,975;14671,753;42,99239
 888,36; 6442,320;  106,275;14715,652;43,36971
 888,92; 6453,620;   98,975;14773,353;43,30436
 889,48; 6552,320;   99,575;14973,853;43,38190
 890,04; 6541,020;   95,275;14803,053;43,82542
 890,60; 6603,520;  117,475;15014,652;43,53875
 891,16; 6583,920;   99,875;15075,853;43,29631
 891,72; 6576,420;  113,275;15058,452;43,24569
 892,28; 6588,220;  112,475;15126,053;43,13259
 892,84; 6510,920;   93,775;15039,853;42,93531
 893,39; 6562,120;  117,575;15112,952;42,97688
 893,95; 6502,120;  112,975;15044,753;42,78891
 894,51; 6399,220;   66,375;14891,253;42,71769
 895,07; 6430,720;  127,375;14906,353;42,65075
 895,63; 6249,320;   74,275;14689,952;42,24946
 896,19; 6204,620;   90,375;14601,952;42,13357
 896,75; 6150,420;  105,175;14460,152;42,11254
 897,31; 5991,620;   82,775;14295,853;41,57330
 897,87; 5915,420;   98,175;14146,853;41,40778
 898,43; 5849,820;   87,775;14075,753;41,19284
 898,99; 5710,720;  109,175;14002,753;40,31751
 899,55; 5744,920;  109,475;13940,652;40,74451
 900,11; 5603,920;  104,975;13747,553;40,30723
 900,67; 5506,720;   91,375;13658,652;39,91475
 901,22; 5432,820;  108,375;13601,952;39,45911
 901,78; 5318,720;   91,275;13560,053;38,81158
 902,34; 5265,220;  103,075;13451,152;38,67332
 902,90; 5202,020;   73,575;13350,652;38,62631
 903,46; 5115,320;   95,775;13236,353;38,19881
 904,02; 5042,120;   88,075;13091,553;38,09785
 904,58; 4976,020;   67,075;12918,152;38,19870
 905,14; 4991,120;   63,975;12874,553;38,46154
 905,70; 4917,420;   66,775;12696,053;38,40794
 906,25; 4879,620;   84,375;12708,452;37,98492
 906,81; 4841,020;   87,675;12732,152;37,59226
 907,37; 4819,320;   79,275;12616,152;37,80882
 907,93; 4781,720;   74,775;12588,152;37,61531
 908,49; 4748,520;  101,875;12497,652;37,48571
 909,05; 4709,620;   89,675;12425,553;37,45129
 909,60; 4698,620;   86,575;12340,452;37,63744
 910,16; 4604,320;   67,675;12291,853;37,11207
 910,72; 4560,520;  100,475;12207,753;36,83772
 911,28; 4473,620;   90,875;12156,053;36,32557
 911,84; 4454,420;   79,575;12106,753;36,37466
 912,39; 4348,420;   73,475;12049,353;35,69630
 912,95; 4356,120;  104,475;12001,452;35,73719
 913,51; 4261,420;   85,375;11945,253;35,21153
 914,07; 4169,920;   83,775;11813,452;34,83595
 914,63; 4136,020;   64,775;11748,053;34,84677
 915,18; 4071,320;   77,475;11617,853;34,60758
 915,74; 3976,320;   63,975;11632,652;33,81843
 916,30; 3886,420;   61,475;11588,553;33,18226
 916,86; 3871,320;   83,575;11514,652;33,13550
 917,42; 3811,520;   82,275;11425,152;32,87742
 917,97; 3718,220;   75,375;11265,452;32,55424
 918,53; 3624,920;   67,775;11196,253;31,96434
 919,09; 3627,620;   88,975;11223,753;31,78011
 919,65; 3572,620;   83,375;11083,452;31,72019
 920,20; 3523,620;   61,875;10983,053;31,69754
 920,76; 3433,220;   65,475;10849,452;31,22916
 921,32; 3426,420;   82,675;10770,952;31,28423
 921,87; 3398,020;   97,475;10670,253;31,21739
 922,43; 3281,720;   64,675;10561,353;30,64822
 922,99; 3240,220;   61,875;10406,753;30,72385
 923,55; 3188,520;   63,775;10357,353;30,35626
 924,10; 3186,620;   73,575;10282,853;30,49232
 924,66; 3143,020;   78,675;10170,152;30,36567
 925,22; 3063,020;   43,275;10093,952;30,04519
 925,77; 3051,520;   66,075; 9927,053;30,27534
 926,33; 2992,420;   90,375; 9903,253;29,57384
 926,89; 2979,620;   71,975; 9692,753;30,22256
 927,44; 2887,620;   52,175; 9580,553;29,75790
 928,00; 2844,320;   66,875; 9533,753;29,33855
 928,56; 2815,920;   80,375; 9372,253;29,44017
 929,12; 2726,320;   72,775; 9275,152;28,83543
 929,67; 2655,520;   67,575; 9091,053;28,68013
 930,23; 2575,720;   50,975; 8915,253;28,48224
 930,78; 2598,320;  100,675; 8842,553;28,57104
 931,34; 2470,620;   61,975; 8632,152;28,10496
 931,90; 2415,920;   61,675; 8494,353;27,91812
 932,45; 2301,420;   78,775; 8290,753;27,06589
 933,01; 2208,520;   52,975; 8024,453;27,04072
 933,57; 2112,520;   72,175; 7753,252;26,56327
 934,12; 2001,520;   70,475; 7399,553;26,34772
 934,68; 1853,420;   59,075; 7020,252;25,77646
 935,24; 1769,720;   67,875; 6614,752;25,99476
 935,79; 1654,420;   72,975; 6254,853;25,58195
 936,35; 1556,620;   91,375; 5812,252;25,61224
 936,90; 1439,520;   80,275; 5348,752;25,79958
 937,46; 1294,820;   72,775; 4956,953;25,02049
 938,02; 1183,020;   63,375; 4549,152;24,95989
 938,57; 1128,120;   73,175; 4265,053;25,16641
 939,13; 1050,120;   70,575; 3986,752;25,01278
 939,68;  951,820;   57,375; 3713,452;24,46461
 940,24;  916,420;   68,775; 3504,052;24,67472
 940,79;  915,820;   91,875; 3391,052;24,97426
 941,35;  854,220;   79,675; 3217,552;24,68372
 941,91;  817,320;   71,375; 3122,252;24,45018
 942,46;  799,520;   75,075; 3063,552;24,24127
 943,02;  790,520;   65,375; 3050,752;24,28989
 943,57;  754,620;   61,275; 2982,452;23,73512
 944,13;  773,920;   67,375; 2974,452;24,30431
 944,68;  788,420;   65,975; 3041,752;24,27752
 945,24;  796,620;   82,275; 3060,052;23,98920
 945,79;  778,520;   68,775; 3104,052;23,38320
 946,35;  776,420;   51,775; 3194,752;23,05600
 946,90;  822,820;   98,575; 3283,552;22,73941
 947,46;  792,720;   52,175; 3311,052;22,72393
 948,01;  801,420;   51,575; 3390,052;22,46069
 948,57;  830,320;   86,775; 3552,952;21,45144
 949,12;  847,520;   65,875; 3613,353;22,03383
 949,68;  866,520;   76,275; 3732,653;21,61278
 950,23;  865,520;   70,075; 3833,252;21,13759
 950,79;  860,120;   75,775; 3933,452;20,33205
 951,34;  872,420;   83,275; 4070,952;19,78959
 951,90;  869,120;   57,475; 4140,853;19,87681
 952,45;  905,220;   81,075; 4292,152;19,57088
 953,01;  884,620;   65,975; 4364,252;19,04589
 953,56;  894,720;   87,975; 4500,853;18,28161
 954,12;  876,820;   42,075; 4567,553;18,44546
 954,67;  900,220;   70,875; 4720,453;17,83700
 955,23;  910,220;   61,975; 4804,553;17,88574
 955,78;  907,020;   67,175; 4882,953;17,43945
 956,33;  887,520;   58,575; 4947,252;16,95643
 956,89;  886,020;   53,475; 5038,553;16,70074
 957,44;  889,520;   53,675; 5170,752;16,33442
 958,00;  919,720;   49,475; 5238,353;16,77135
 958,55;  936,120;   70,475; 5313,953;16,50899
 959,10;  933,920;   52,375; 5370,252;16,57701
 959,66;  948,320;   74,275; 5488,752;16,14274
 960,21;  953,320;   78,475; 5567,453;15,93821
 960,77;  945,820;   54,275; 5606,152;16,05844
 961,32;  955,720;   48,375; 5663,453;16,15908
 961,87;  986,220;   79,775; 5738,752;16,01782
 962,43;  960,720;   68,975; 5780,652;15,61266
 962,98;  974,920;   76,175; 5828,652;15,62362
 963,54;  923,620;   27,075; 5820,652;15,47481
 964,09;  942,320;   56,275; 5873,953;15,23022
 964,64;  951,220;   64,975; 5901,053;15,18563
 965,20;  916,320;   44,375; 5966,652;14,72314
 965,75;  954,320;   66,575; 5976,353;15,02163
 966,30;  926,720;   75,275; 6068,553;14,20667
 966,86;  921,720;   62,975; 6121,953;14,17310
 967,41;  919,420;   81,075; 6084,453;13,96456
 967,96;  923,920;   75,175; 6108,953;14,06656
 968,52;  902,820;   81,775; 6126,353;13,58317
 969,07;  875,920;   72,975; 6120,152;13,27801
 969,62;  872,020;   77,175; 6134,953;13,12107
 970,18;  864,920;   57,575; 6147,652;13,25673
 970,73;  826,820;   66,475; 6203,553;12,38937
 971,28;  848,920;   95,775; 6197,053;12,34405
 971,84;  804,920;   55,075; 6118,752;12,36618
 972,39;  822,720;   95,875; 6148,652;12,00845
 972,94;  774,620;   54,975; 6140,652;11,82522
 973,49;  772,520;   64,575; 6141,252;11,65020
 974,05;  769,220;   64,375; 6178,053;11,52898
 974,60;  763,220;   88,575; 6213,252;11,01519
 975,15;  750,320;   77,675; 6231,553;10,93043
 975,71;  730,320;   62,375; 6121,453;11,02387
 976,26;  741,920;   77,575; 6110,252;11,01244
 976,81;  752,220;   90,675; 6134,152;10,94643
 977,36;  754,020;   84,775; 6156,953;11,02150
 977,92;  750,720;   90,175; 6209,353;10,79467
 978,47;  718,420;   77,175; 6060,252;10,71764
 979,02;  734,720;   95,475; 6085,652;10,67155
 979,57;  713,020;   86,775; 6058,453;10,48692
 980,13;  712,120;   76,175; 6038,752;10,66561
 980,68;  708,620;   77,075; 6010,553;10,64376
 981,23;  712,420;   89,175; 6054,652;10,44753
 981,78;  709,620;   82,075; 5974,152;10,65066
 982,33;  692,820;   79,275; 5893,252;10,55293
 982,89;  684,220;   94,375; 5938,152;10,09356
 983,44;  676,820;   65,675; 5935,853;10,41101
 983,99;  691,920;  104,775; 5949,453;10,04581
 984,54;  657,420;   81,475; 5900,053; 9,89838
 985,09;  667,420;   87,275; 5873,752;10,02587
 985,65;  645,920;   69,375; 5811,853;10,04000
 986,20;  660,620;  106,575; 5791,152; 9,74646
 986,75;  656,720;   95,875; 5823,953; 9,79116
 987,30;  634,120;   97,175; 5726,053; 9,53911
 987,85;  613,220;   92,475; 5721,353; 9,25131
 988,40;  615,220;   96,675; 5693,953; 9,26424
 988,96;  621,820;  114,875; 5666,553; 9,13138
 989,51;  620,420;  108,875; 5644,053; 9,24171
 990,06;  599,920;  128,275; 5680,853; 8,49416
 990,61;  564,520;   93,575; 5569,053; 8,60099
 991,16;  562,420;  104,375; 5558,053; 8,39883
 991,71;  532,220;   79,875; 5505,853; 8,33665
 992,26;  534,220;   93,475; 5457,252; 8,21706
 992,81;  524,820;   75,075; 5427,053; 8,40334
 993,37;  552,320;  113,475; 5390,553; 8,31606
 993,92;  534,820;  108,375; 5368,953; 8,10643
 994,47;  546,320;  117,475; 5329,652; 8,22775
 995,02;  531,320;  118,475; 5313,252; 7,94731
 995,57;  506,720;   90,875; 5274,652; 8,02205
 996,12;  547,620;  133,575; 5247,553; 8,09634
 996,67;  525,720;  132,375; 5191,652; 7,77473
 997,22;  510,320;   99,875; 5128,652; 8,16192
 997,77;  502,720;  115,275; 5110,553; 7,75623
 998,32;  493,920;  103,775; 5015,652; 7,94289
 998,87;  509,020;  114,275; 5018,752; 8,04867
 999,42;  486,120;  101,675; 4972,553; 7,89273
 999,97;  482,520;  109,975; 4956,353; 7,68708
1000,53;  500,420;  123,475; 4993,752; 7,73970
1001,08;  488,220;   98,375; 4879,053; 8,15460
1001,63;  507,520;  144,475; 4878,053; 7,66957
1002,18;  434,220;   85,075; 4777,453; 7,44068
1002,73;  499,820;  131,375; 4813,853; 7,86859
1003,28;  472,720;  103,575; 4811,953; 7,84017
1003,83;  482,620;  119,075; 4691,752; 7,95037
1004,38;  500,420;  137,775; 4703,152; 7,94337
1004,93;  475,720;  114,375; 4680,953; 7,91282
1005,48;  454,820;  104,075; 4573,053; 7,84844
1006,03;  434,520;  112,775; 4525,652; 7,29105
1006,58;  440,220;  111,475; 4486,553; 7,51404
1007,13;  410,920;   94,475; 4466,252; 7,23836
1007,68;  438,020;  104,975; 4462,453; 7,64307
1008,23;  424,020;  114,575; 4425,853; 7,17757
1008,78;  424,920;  107,375; 4384,152; 7,42487
1009,33;  425,520;  121,875; 4307,752; 7,25403
1009,88;  378,020;   84,775; 4329,553; 6,90837
1010,43;  415,720;  118,875; 4320,752; 7,06458
1010,98;  389,220;  100,675; 4310,053; 6,85481
1011,52;  384,720;   97,075; 4264,953; 6,90147
1012,07;  446,720;  144,475; 4319,252; 7,23979
1012,62;  373,320;  103,875; 4259,152; 6,48440
1013,17;  378,820;   97,175; 4172,053; 6,91174
1013,72;  376,520;   94,575; 4143,453; 6,96353
1014,27;  369,120;  100,275; 4105,853; 6,71177
1014,82;  338,120;   86,875; 4042,952; 6,35086
1015,37;  342,520;   84,375; 3964,853; 6,65240
1015,92;  365,720;  109,475; 3894,252; 6,77041
1016,47;  331,120;   90,275; 3819,452; 6,45839
1017,02;  310,720;   81,075; 3732,153; 6,28979
1017,57;  338,520;   96,475; 3718,853; 6,68194
1018,11;  331,820;   77,275; 3656,252; 7,11223
1018,66;  354,820;  120,175; 3636,552; 6,67292
1019,21;  329,620;  109,675; 3579,552; 6,33870
1019,76;  304,220;   77,675; 3497,353; 6,62475
1020,31;  307,320;   71,975; 3446,452; 6,97427
1020,86;  310,720;   96,175; 3448,052; 6,40074
1021,41;  298,420;   80,175; 3387,052; 6,59973
1021,96;  297,720;   83,675; 3385,853; 6,48193
1022,50;  332,520;  105,975; 3332,952; 7,02035
1023,05;  308,220;   94,675; 3288,052; 6,68712
1023,60;  312,620;   97,975; 3251,353; 6,80683
1024,15;  290,720;   81,075; 3184,853; 6,75451
1024,70;  302,420;   95,075; 3176,252; 6,72941
1025,25;  282,620;   81,175; 3127,452; 6,61282
1025,79;  309,720;  101,175; 3110,752; 6,92938
1026,34;  296,520;   83,475; 3044,653; 7,19460
1026,89;  298,020;  102,175; 3039,052; 6,66848
1027,44;  278,320;   95,875; 2952,952; 6,38572
1027,99;  274,720;   93,475; 2944,552; 6,35707
1028,53;  275,720;   89,675; 2900,052; 6,61993
1029,08;  289,320;  114,775; 2876,653; 6,31980
1029,63;  276,120;  114,875; 2854,952; 5,88469
1030,18;  266,020;   92,075; 2788,552; 6,45082
1030,73;  254,020;   91,175; 2739,552; 6,14886
1031,27;  251,420;   85,875; 2715,252; 6,29598
1031,82;  249,320;   81,875; 2686,452; 6,42887
1032,37;  267,020;   98,875; 2688,853; 6,49214
1032,92;  270,620;  100,575; 2675,452; 6,60400
1033,46;  258,920;   99,775; 2599,252; 6,36713
1034,01;  232,920;   78,375; 2582,952; 6,17050
1034,56;  266,120;   98,875; 2559,252; 6,79753
1035,11;  260,520;   92,375; 2523,552; 6,91620
1035,65;  235,820;   87,575; 2478,052; 6,20148
1036,20;  247,520;   99,375; 2454,452; 6,29045
1036,75;  266,320;  118,675; 2446,353; 6,34302
1037,29;  236,520;   90,275; 2398,252; 6,33650
1037,84;  220,520;   78,375; 2347,252; 6,26499
1038,39;  236,220;   91,075; 2329,952; 6,48294
1038,94;  208,920;   73,075; 2277,153; 6,16335
1039,48;  239,920;   83,575; 2278,552; 7,12285
1040,03;  231,320;  102,875; 2245,252; 5,99544
1040,58;  230,220;  101,175; 2194,552; 6,16444
1041,12;  232,320;   91,375; 2191,653; 6,71078
1041,67;  224,920;  101,075; 2166,752; 5,99537
1042,22;  252,220;  118,475; 2145,252; 6,59890
1042,76;  223,420;   99,275; 2118,452; 6,14830
1043,31;  218,420;   90,675; 2060,653; 6,48459
1043,86;  225,820;   98,875; 2044,252; 6,52547
1044,40;  230,920;   92,975; 2018,052; 7,16569
1044,95;  221,120;   94,175; 1988,552; 6,70115
1045,50;  198,120;   75,375; 1934,353; 6,60282
1046,04;  228,620;  114,375; 1930,453; 6,29076
1046,59;  208,620;   96,175; 1878,353; 6,30942
1047,13;  229,320;  121,075; 1879,453; 6,15596
1047,68;  234,220;  115,675; 1860,052; 6,79583
1048,23;  223,920;  118,775; 1866,752; 6,01524
1048,77;  193,320;   90,175; 1784,953; 6,08605
1049,32;  207,420;  104,175; 1785,953; 6,13904
1049,86;  211,520;   92,675; 1760,552; 7,12552
1050,41;  191,620;   82,475; 1735,552; 6,60253
1050,96;  210,320;  100,875; 1698,652; 6,84983
1051,50;  205,320;  101,675; 1663,252; 6,63720
1052,05;  203,620;   94,675; 1664,052; 6,94192
1052,59;  194,820;   82,975; 1624,152; 7,25711
1053,14;  177,720;   84,475; 1582,652; 6,22390
1053,69;  194,120;   98,475; 1571,453; 6,49331
1054,23;  200,720;  104,575; 1569,052; 6,56514
1054,78;  196,620;  100,775; 1550,152; 6,61284
1055,32;  204,220;  123,075; 1550,453; 5,68490
1055,87;  161,320;   68,875; 1491,752; 6,49705
1056,41;  171,020;   78,775; 1469,552; 6,63262
1056,96;  178,820;   96,775; 1451,052; 6,05821
1057,50;  210,820;  113,375; 1470,853; 7,17839
1058,05;  151,820;   82,075; 1401,953; 5,28420
1058,59;  185,820;   95,875; 1396,552; 6,91524
1059,14;  179,320;  103,575; 1370,453; 5,97887
1059,68;  163,520;   75,975; 1329,353; 6,98473
1060,23;  211,220;  126,875; 1383,752; 6,71068
1060,77;  182,920;   97,375; 1317,052; 7,01374
1061,32;  184,520;  108,575; 1320,652; 6,26569
1061,86;  179,320;  111,175; 1289,752; 5,78197
1062,41;  173,620;   93,975; 1242,953; 6,93182
1062,95;  181,820;  109,575; 1230,853; 6,44310
1063,50;  182,320;  111,075; 1230,052; 6,36697
1064,04;  158,320;   90,475; 1197,453; 6,12885
1064,59;  185,220;  114,775; 1210,052; 6,43170
1065,13;  174,720;  103,475; 1170,552; 6,67665
1065,68;  168,420;  107,275; 1161,353; 5,80081
1066,22;  180,620;  115,875; 1166,453; 6,16280
1066,76;  197,420;  130,175; 1145,252; 6,62462
1067,31;  173,620;   99,875; 1110,552; 7,29659
1067,85;  170,720;  100,975; 1090,252; 7,05010
1068,40;  177,920;  110,275; 1095,353; 6,86697
1068,94;  168,120;   99,175; 1079,353; 7,03393
1069,49;  151,220;   98,175; 1041,652; 5,62229
1070,03;  164,920;  111,175; 1034,353; 5,82174
1070,57;  141,920;   88,775; 1012,852; 5,75114
1071,12;  138,220;   75,875;  987,153; 6,84149
1071,66;  196,820;  131,775; 1039,953; 7,16215
1072,21;  162,720;  112,475; 1011,352; 5,58975
1072,75;  169,520;  104,475;  978,552; 7,44156
1073,29;  140,920;   77,075;  942,453; 7,37771
1073,84;  167,220;   95,975;  941,153; 8,42959
1074,38;  143,620;   93,875;  928,253; 5,96193
1074,92;  159,620;  107,275;  940,153; 6,28484
1075,47;  160,720;  112,775;  938,852; 5,80393
1076,01;  171,220;  121,775;  926,253; 6,14623
1076,56;  149,920;   97,275;  891,953; 6,62470
1077,10;  135,320;   86,075;  865,253; 6,32013
1077,64;  153,420;   97,875;  884,453; 7,06161
1078,19;  167,320;  123,175;  887,753; 5,77378
1078,73;  155,820;   98,775;  853,852; 7,55485
1079,27;  176,520;  121,075;  875,552; 7,34880
1079,81;  172,620;  121,375;  860,953; 6,92896
1080,36;  150,620;  105,975;  836,052; 6,11510
1080,90;  148,020;   96,375;  819,753; 7,13943
1081,44;  149,020;   82,475;  789,552; 9,41127
1081,99;  118,320;   70,375;  771,753; 6,83583
1082,53;  159,320;  113,075;  798,653; 6,74541
1083,07;  154,520;  104,175;  791,453; 7,32528
1083,62;  159,020;  101,275;  772,552; 8,60226
1084,16;  154,320;   98,975;  782,453; 8,09756
1084,70;  159,820;  107,475;  767,153; 7,93494
1085,24;  154,820;  108,775;  750,653; 7,17349
1085,79;  148,820;  109,175;  747,552; 6,21028
1086,33;  128,820;   99,075;  711,453; 4,85730
1086,87;  144,020;  102,075;  714,852; 6,84506
1087,41;  133,020;   84,475;  686,852; 8,05890
1087,96;  165,920;  124,575;  732,552; 6,80042
1088,50;  148,020;  112,075;  696,953; 6,14573
1089,04;  158,720;  121,775;  715,153; 6,22622
1089,58;  122,320;   82,375;  655,953; 6,96419
1090,13;  132,720;  102,975;  653,153; 5,40644
1090,67;  145,820;  101,775;  678,753; 7,63375
1091,21;  133,620;   92,075;  651,852; 7,42170
1091,75;  136,620;  106,875;  647,153; 5,50550
1092,29;  156,320;  105,875;  642,552; 9,39950
1092,84;  139,420;  105,975;  628,352; 6,40246
1093,38;  162,320;  128,175;  662,753; 6,38729
1093,92;  152,020;  113,475;  640,052; 7,31991
1094,46;  155,220;  128,175;  638,852; 5,29591
1095,00;  136,220;   93,975;  602,052; 8,31468
1095,54;  132,420;   89,975;  591,352; 8,46568
1096,09;  146,520;  114,975;  597,352; 6,53949
1096,63;  151,220;  117,175;  598,453; 7,07388
1097,17;  141,520;  102,575;  573,052; 8,27776
1097,71;  154,420;  122,875;  582,453; 6,86391
1098,25;  127,720;  103,275;  553,653; 5,42767
1098,79;  153,520;  104,775;  568,753;10,50590
1099,33;  145,320;  111,975;  572,052; 7,24769
1099,88;  137,420;  110,775;  562,253; 5,90173
1100,42;  112,320;   83,275;  521,253; 6,63162

