PE UV       SUBTECH     SPECTRUM    ASCII       PEDS        4.00        
   -1
CICIMAUCR0018-6.Sample.ASC
24/04/25
15:28:28.00
24/04/25
15:28:28.00
Vinicio Soto Monge
C. cupreomarginata
250,000000
1
Lambda 1050
1050L1511233
PerkinElmer UV WinLab 6.3.2.0749 / 2.02.05 Lambda 900 UV/VIS/NIR, Aug  7 2015 09:38:08

0
0
3350/servo 860,8/2
0
0
UV/VIS
1
1
1
DoubleDePol,CommonBeamDepol,RBeamAtt,SBeamAtt,60mm sphere, WB InGaAs Detector
0
0
0
0
Program
Program
3350/servo 860,8/2
3350/0,2 860,8/0,2
3350/0,2 860,8/0,2
0
15.00
 
 
 
0
 
860,8
319,2
860,8
Front
100
on
S:100 R:100
0
0
0
0
 
0
 
 
 
0
 
 
0
0
0
0
0
 
 
 
 
0
0


0
0
#HDR
-1
-1
#GR
nm
%R
1.0
0.0
2500,000000
-1,000000
2251
8
70,559000
5,550100
#DATA
2482.000000	7.022112
2481.000000	6.998345
2480.000000	7.002697
2479.000000	7.022782
2478.000000	6.993213
2477.000000	6.967325
2476.000000	6.967995
2475.000000	6.972235
2474.000000	6.969892
2473.000000	6.963197
2472.000000	7.003143
2471.000000	6.930280
2470.000000	6.976587
2469.000000	6.910418
2468.000000	6.905955
2467.000000	6.961746
2466.000000	6.997118
2465.000000	6.983393
2464.000000	6.976922
2463.000000	7.013521
2462.000000	7.046661
2461.000000	7.035056
2460.000000	7.069870
2459.000000	7.072325
2458.000000	7.164269
2457.000000	7.153557
2456.000000	7.188817
2455.000000	7.242265
2454.000000	7.273508
2453.000000	7.270942
2452.000000	7.327402
2451.000000	7.382747
2450.000000	7.415218
2449.000000	7.466769
2448.000000	7.485849
2447.000000	7.544430
2446.000000	7.593750
2445.000000	7.612607
2444.000000	7.664158
2443.000000	7.722293
2442.000000	7.776076
2441.000000	7.823164
2440.000000	7.855188
2439.000000	7.886542
2438.000000	7.924815
2437.000000	7.943003
2436.000000	8.001249
2435.000000	8.049118
2434.000000	8.090850
2433.000000	8.132470
2432.000000	8.153002
2431.000000	8.162932
2430.000000	8.218835
2429.000000	8.241040
2428.000000	8.258559
2427.000000	8.266816
2426.000000	8.294042
2425.000000	8.330418
2424.000000	8.359987
2423.000000	8.374158
2422.000000	8.379737
2421.000000	8.401273
2420.000000	8.412208
2419.000000	8.438764
2418.000000	8.458961
2417.000000	8.457957
2416.000000	8.479938
2415.000000	8.501362
2414.000000	8.521893
2413.000000	8.520443
2412.000000	8.525799
2411.000000	8.575899
2410.000000	8.629794
2409.000000	8.710133
2408.000000	8.793820
2407.000000	8.844479
2406.000000	8.883756
2405.000000	8.890785
2404.000000	8.906742
2403.000000	8.924372
2402.000000	8.934860
2401.000000	8.972687
2400.000000	9.044323
2399.000000	9.062288
2398.000000	9.072330
2397.000000	9.108929
2396.000000	9.153451
2395.000000	9.161931
2394.000000	9.198976
2393.000000	9.220958
2392.000000	9.243163
2391.000000	9.268269
2390.000000	9.287350
2389.000000	9.309220
2388.000000	9.310112
2387.000000	9.336669
2386.000000	9.349166
2385.000000	9.344703
2384.000000	9.348720
2383.000000	9.337115
2382.000000	9.343587
2381.000000	9.350952
2380.000000	9.335665
2379.000000	9.348832
2378.000000	9.362556
2377.000000	9.348385
2376.000000	9.338566
2375.000000	9.329193
2374.000000	9.306988
2373.000000	9.301074
2372.000000	9.302079
2371.000000	9.275076
2370.000000	9.245618
2369.000000	9.219619
2368.000000	9.198195
2367.000000	9.171081
2366.000000	9.152446
2365.000000	9.129126
2364.000000	9.084939
2363.000000	9.048786
2362.000000	9.009398
2361.000000	8.961529
2360.000000	8.927831
2359.000000	8.898931
2358.000000	8.882193
2357.000000	8.854298
2356.000000	8.811673
2355.000000	8.807768
2354.000000	8.803081
2353.000000	8.791700
2352.000000	8.792258
2351.000000	8.806875
2350.000000	8.810669
2349.000000	8.830754
2348.000000	8.864787
2347.000000	8.890339
2346.000000	8.930062
2345.000000	8.988197
2344.000000	9.021448
2343.000000	9.033946
2342.000000	9.063292
2341.000000	9.111272
2340.000000	9.135932
2339.000000	9.151442
2338.000000	9.166283
2337.000000	9.169853
2336.000000	9.170411
2335.000000	9.180454
2334.000000	9.170634
2333.000000	9.161261
2332.000000	9.152112
2331.000000	9.126224
2330.000000	9.073557
2329.000000	9.069764
2328.000000	9.046220
2327.000000	9.004042
2326.000000	8.965211
2325.000000	8.906295
2324.000000	8.864787
2323.000000	8.856083
2322.000000	8.796163
2321.000000	8.731222
2320.000000	8.666058
2319.000000	8.609932
2318.000000	8.545549
2317.000000	8.495560
2316.000000	8.432069
2315.000000	8.385316
2314.000000	8.319371
2313.000000	8.264361
2312.000000	8.214707
2311.000000	8.170520
2310.000000	8.129569
2309.000000	8.126556
2308.000000	8.098214
2307.000000	8.098103
2306.000000	8.082481
2305.000000	8.075228
2304.000000	8.135148
2303.000000	8.154675
2302.000000	8.208570
2301.000000	8.273176
2300.000000	8.308994
2299.000000	8.357644
2298.000000	8.427383
2297.000000	8.486856
2296.000000	8.575676
2295.000000	8.608593
2294.000000	8.664161
2293.000000	8.714373
2292.000000	8.738587
2291.000000	8.763135
2290.000000	8.801519
2289.000000	8.810223
2288.000000	8.828634
2287.000000	8.823055
2286.000000	8.837337
2285.000000	8.819038
2284.000000	8.795605
2283.000000	8.785005
2282.000000	8.761796
2281.000000	8.745505
2280.000000	8.703996
2279.000000	8.683911
2278.000000	8.675654
2277.000000	8.641175
2276.000000	8.611829
2275.000000	8.608035
2274.000000	8.616292
2273.000000	8.599443
2272.000000	8.625665
2271.000000	8.608370
2270.000000	8.630463
2269.000000	8.659028
2268.000000	8.709352
2267.000000	8.760345
2266.000000	8.832874
2265.000000	8.910535
2264.000000	8.999690
2263.000000	9.109487
2262.000000	9.250862
2261.000000	9.401052
2260.000000	9.544994
2259.000000	9.675434
2258.000000	9.839237
2257.000000	10.018438
2256.000000	10.176328
2255.000000	10.330535
2254.000000	10.524577
2253.000000	10.698534
2252.000000	10.837231
2251.000000	10.998245
2250.000000	11.152675
2249.000000	11.309560
2248.000000	11.418688
2247.000000	11.543214
2246.000000	11.695189
2245.000000	11.790592
2244.000000	11.907419
2243.000000	12.003827
2242.000000	12.084501
2241.000000	12.169527
2240.000000	12.257007
2239.000000	12.353526
2238.000000	12.424827
2237.000000	12.457075
2236.000000	12.536522
2235.000000	12.625564
2234.000000	12.672652
2233.000000	12.724761
2232.000000	12.764373
2231.000000	12.774639
2230.000000	12.830542
2229.000000	12.847279
2228.000000	12.888118
2227.000000	12.916014
2226.000000	12.907534
2225.000000	12.919138
2224.000000	12.903293
2223.000000	12.923267
2222.000000	12.916237
2221.000000	12.919584
2220.000000	12.890796
2219.000000	12.855871
2218.000000	12.851742
2217.000000	12.865802
2216.000000	12.844713
2215.000000	12.832439
2214.000000	12.811573
2213.000000	12.793496
2212.000000	12.804208
2211.000000	12.787359
2210.000000	12.742391
2209.000000	12.736701
2208.000000	12.741164
2207.000000	12.722418
2206.000000	12.714496
2205.000000	12.694969
2204.000000	12.691175
2203.000000	12.671536
2202.000000	12.677674
2201.000000	12.682472
2200.000000	12.674772
2199.000000	12.661606
2198.000000	12.632594
2197.000000	12.656696
2196.000000	12.611951
2195.000000	12.628242
2194.000000	12.614295
2193.000000	12.613625
2192.000000	12.608939
2191.000000	12.593875
2190.000000	12.592759
2189.000000	12.584502
2188.000000	12.589635
2187.000000	12.590528
2186.000000	12.553036
2185.000000	12.550358
2184.000000	12.543440
2183.000000	12.510634
2182.000000	12.531389
2181.000000	12.525363
2180.000000	12.506841
2179.000000	12.500480
2178.000000	12.485417
2177.000000	12.481846
2176.000000	12.483743
2175.000000	12.492112
2174.000000	12.490996
2173.000000	12.506283
2172.000000	12.489657
2171.000000	12.475709
2170.000000	12.511973
2169.000000	12.526033
2168.000000	12.527037
2167.000000	12.530161
2166.000000	12.549912
2165.000000	12.557276
2164.000000	12.569996
2163.000000	12.596330
2162.000000	12.598115
2161.000000	12.623668
2160.000000	12.610947
2159.000000	12.638396
2158.000000	12.655692
2157.000000	12.663949
2156.000000	12.707020
2155.000000	12.744511
2154.000000	12.734357
2153.000000	12.767497
2152.000000	12.785016
2151.000000	12.807221
2150.000000	12.848953
2149.000000	12.874282
2148.000000	12.895817
2147.000000	12.912890
2146.000000	12.916237
2145.000000	12.941231
2144.000000	12.969685
2143.000000	12.988431
2142.000000	12.991332
2141.000000	12.991667
2140.000000	13.010190
2139.000000	13.017777
2138.000000	13.056831
2137.000000	13.068436
2136.000000	13.072118
2135.000000	13.060290
2134.000000	13.068659
2133.000000	13.087516
2132.000000	13.073010
2131.000000	13.064530
2130.000000	13.064865
2129.000000	13.059732
2128.000000	13.052145
2127.000000	13.042883
2126.000000	13.036300
2125.000000	13.013091
2124.000000	12.994233
2123.000000	12.986199
2122.000000	12.956741
2121.000000	12.932974
2120.000000	12.923044
2119.000000	12.908426
2118.000000	12.883766
2117.000000	12.841142
2116.000000	12.809229
2115.000000	12.786243
2114.000000	12.771068
2113.000000	12.755558
2112.000000	12.743619
2111.000000	12.702891
2110.000000	12.666850
2109.000000	12.635942
2108.000000	12.603360
2107.000000	12.578142
2106.000000	12.546341
2105.000000	12.516548
2104.000000	12.497691
2103.000000	12.483520
2102.000000	12.457298
2101.000000	12.420476
2100.000000	12.392692
2099.000000	12.377963
2098.000000	12.341364
2097.000000	12.307666
2096.000000	12.295615
2095.000000	12.281779
2094.000000	12.256115
2093.000000	12.244175
2092.000000	12.224425
2091.000000	12.201886
2090.000000	12.201328
2089.000000	12.177337
2088.000000	12.163055
2087.000000	12.150111
2086.000000	12.127460
2085.000000	12.113624
2084.000000	12.099676
2083.000000	12.080037
2082.000000	12.060845
2081.000000	12.043104
2080.000000	12.030160
2079.000000	12.014092
2078.000000	11.991106
2077.000000	11.958189
2076.000000	11.945915
2075.000000	11.946473
2074.000000	11.916457
2073.000000	11.898269
2072.000000	11.907531
2071.000000	11.884210
2070.000000	11.855980
2069.000000	11.851182
2068.000000	11.849396
2067.000000	11.824290
2066.000000	11.811793
2065.000000	11.800970
2064.000000	11.795502
2063.000000	11.791597
2062.000000	11.778653
2061.000000	11.761358
2060.000000	11.749976
2059.000000	11.768499
2058.000000	11.791373
2057.000000	11.792378
2056.000000	11.814583
2055.000000	11.843817
2054.000000	11.890012
2053.000000	11.923041
2052.000000	11.966893
2051.000000	12.020676
2050.000000	12.082046
2049.000000	12.153794
2048.000000	12.208581
2047.000000	12.264483
2046.000000	12.349732
2045.000000	12.447813
2044.000000	12.532616
2043.000000	12.648997
2042.000000	12.749086
2041.000000	12.839580
2040.000000	12.922151
2039.000000	13.002602
2038.000000	13.105369
2037.000000	13.217175
2036.000000	13.290820
2035.000000	13.370155
2034.000000	13.454623
2033.000000	13.526593
2032.000000	13.611396
2031.000000	13.672655
2030.000000	13.749424
2029.000000	13.799859
2028.000000	13.850964
2027.000000	13.920703
2026.000000	13.967456
2025.000000	14.022578
2024.000000	14.068438
2023.000000	14.112402
2022.000000	14.186493
2021.000000	14.199101
2020.000000	14.240722
2019.000000	14.305998
2018.000000	14.336571
2017.000000	14.353755
2016.000000	14.416018
2015.000000	14.436214
2014.000000	14.462102
2013.000000	14.472032
2012.000000	14.518562
2011.000000	14.513987
2010.000000	14.524365
2009.000000	14.540767
2008.000000	14.526708
2007.000000	14.543557
2006.000000	14.546904
2005.000000	14.545900
2004.000000	14.546346
2003.000000	14.517112
2002.000000	14.522802
2001.000000	14.507627
2000.000000	14.491448
1999.000000	14.470135
1998.000000	14.455964
1997.000000	14.409881
1996.000000	14.395375
1995.000000	14.354536
1994.000000	14.320392
1993.000000	14.288144
1992.000000	14.238602
1991.000000	14.200552
1990.000000	14.154357
1989.000000	14.108943
1988.000000	14.072678
1987.000000	14.027488
1986.000000	13.971585
1985.000000	13.916574
1984.000000	13.883769
1983.000000	13.853084
1982.000000	13.791044
1981.000000	13.731794
1980.000000	13.675891
1979.000000	13.634717
1978.000000	13.594547
1977.000000	13.535520
1976.000000	13.474819
1975.000000	13.432083
1974.000000	13.401844
1973.000000	13.356542
1972.000000	13.293498
1971.000000	13.263705
1970.000000	13.237260
1969.000000	13.160603
1968.000000	13.119764
1967.000000	13.088855
1966.000000	13.049132
1965.000000	12.995126
1964.000000	12.956072
1963.000000	12.934090
1962.000000	12.888118
1961.000000	12.844713
1960.000000	12.807221
1959.000000	12.763704
1958.000000	12.718290
1957.000000	12.686489
1956.000000	12.652233
1955.000000	12.604810
1954.000000	12.552924
1953.000000	12.528376
1952.000000	12.490884
1951.000000	12.455847
1950.000000	12.441007
1949.000000	12.388452
1948.000000	12.373946
1947.000000	12.358994
1946.000000	12.319717
1945.000000	12.321725
1944.000000	12.279547
1943.000000	12.275418
1942.000000	12.296954
1941.000000	12.274414
1940.000000	12.291263
1939.000000	12.285461
1938.000000	12.274861
1937.000000	12.296731
1936.000000	12.320609
1935.000000	12.343930
1934.000000	12.360891
1933.000000	12.426055
1932.000000	12.465220
1931.000000	12.522574
1930.000000	12.570108
1929.000000	12.620097
1928.000000	12.698986
1927.000000	12.784570
1926.000000	12.835005
1925.000000	12.914452
1924.000000	13.020344
1923.000000	13.119875
1922.000000	13.191623
1921.000000	13.311239
1920.000000	13.433087
1919.000000	13.527040
1918.000000	13.663840
1917.000000	13.793834
1916.000000	13.916128
1915.000000	14.065760
1914.000000	14.214946
1913.000000	14.356879
1912.000000	14.517893
1911.000000	14.652127
1910.000000	14.802205
1909.000000	14.966008
1908.000000	15.158934
1907.000000	15.354650
1906.000000	15.532290
1905.000000	15.714504
1904.000000	15.893259
1903.000000	16.080160
1902.000000	16.299420
1901.000000	16.482861
1900.000000	16.687057
1899.000000	16.880207
1898.000000	17.104153
1897.000000	17.294290
1896.000000	17.486769
1895.000000	17.712724
1894.000000	17.930980
1893.000000	18.173560
1892.000000	18.413462
1891.000000	18.631941
1890.000000	18.850308
1889.000000	19.096794
1888.000000	19.391149
1887.000000	19.692087
1886.000000	20.007307
1885.000000	20.379882
1884.000000	20.782025
1883.000000	21.210948
1882.000000	21.650472
1881.000000	22.129831
1880.000000	22.592229
1879.000000	23.044361
1878.000000	23.479421
1877.000000	23.894620
1876.000000	24.272215
1875.000000	24.648695
1874.000000	24.990137
1873.000000	25.297882
1872.000000	25.578847
1871.000000	25.805694
1870.000000	25.974184
1869.000000	26.147695
1868.000000	26.259612
1867.000000	26.345531
1866.000000	26.434350
1865.000000	26.522724
1864.000000	26.596368
1863.000000	26.654168
1862.000000	26.734396
1861.000000	26.775681
1860.000000	26.799783
1859.000000	26.804470
1858.000000	26.781818
1857.000000	26.754369
1856.000000	26.740644
1855.000000	26.704603
1854.000000	26.628727
1853.000000	26.539126
1852.000000	26.483335
1851.000000	26.448968
1850.000000	26.421407
1849.000000	26.369744
1848.000000	26.274118
1847.000000	26.129507
1846.000000	25.997281
1845.000000	25.957781
1844.000000	25.951979
1843.000000	25.956442
1842.000000	25.923191
1841.000000	25.859812
1840.000000	25.793643
1839.000000	25.750349
1838.000000	25.705381
1837.000000	25.618905
1836.000000	25.519820
1835.000000	25.427429
1834.000000	25.332249
1833.000000	25.266639
1832.000000	25.202144
1831.000000	25.112655
1830.000000	25.027629
1829.000000	24.939814
1828.000000	24.826781
1827.000000	24.723232
1826.000000	24.630284
1825.000000	24.546374
1824.000000	24.506204
1823.000000	24.505311
1822.000000	24.502856
1821.000000	24.454876
1820.000000	24.400312
1819.000000	24.352443
1818.000000	24.335371
1817.000000	24.335929
1816.000000	24.324436
1815.000000	24.301450
1814.000000	24.278241
1813.000000	24.269203
1812.000000	24.271881
1811.000000	24.242758
1810.000000	24.175027
1809.000000	24.146239
1808.000000	24.125261
1807.000000	24.088327
1806.000000	24.043917
1805.000000	23.977637
1804.000000	23.933674
1803.000000	23.892277
1802.000000	23.845970
1801.000000	23.775227
1800.000000	23.703925
1799.000000	23.655610
1798.000000	23.614771
1797.000000	23.582747
1796.000000	23.539118
1795.000000	23.482323
1794.000000	23.422737
1793.000000	23.383460
1792.000000	23.324991
1791.000000	23.253244
1790.000000	23.205933
1789.000000	23.146236
1788.000000	23.075493
1787.000000	22.993703
1786.000000	22.916711
1785.000000	22.835813
1784.000000	22.748221
1783.000000	22.670002
1782.000000	22.586761
1781.000000	22.510662
1780.000000	22.421842
1779.000000	22.314834
1778.000000	22.222332
1777.000000	22.116999
1776.000000	22.009210
1775.000000	21.889482
1774.000000	21.757591
1773.000000	21.621237
1772.000000	21.477631
1771.000000	21.335921
1770.000000	21.219875
1769.000000	21.079616
1768.000000	20.958772
1767.000000	20.843284
1766.000000	20.756361
1765.000000	20.704698
1764.000000	20.665087
1763.000000	20.636968
1762.000000	20.678923
1761.000000	20.720878
1760.000000	20.785373
1759.000000	20.862141
1758.000000	20.943039
1757.000000	20.997379
1756.000000	21.051497
1755.000000	21.085864
1754.000000	21.093340
1753.000000	21.115322
1752.000000	21.095907
1751.000000	21.050716
1750.000000	20.998495
1749.000000	20.941811
1748.000000	20.863369
1747.000000	20.760936
1746.000000	20.647122
1745.000000	20.509987
1744.000000	20.354664
1743.000000	20.155489
1742.000000	19.958323
1741.000000	19.726119
1740.000000	19.493805
1739.000000	19.283472
1738.000000	19.062873
1737.000000	18.884564
1736.000000	18.781015
1735.000000	18.697105
1734.000000	18.699114
1733.000000	18.711946
1732.000000	18.744193
1731.000000	18.866264
1730.000000	18.971487
1729.000000	19.100141
1728.000000	19.208153
1727.000000	19.329109
1726.000000	19.443704
1725.000000	19.530850
1724.000000	19.582066
1723.000000	19.601035
1722.000000	19.616545
1721.000000	19.617326
1720.000000	19.649351
1719.000000	19.649016
1718.000000	19.661178
1717.000000	19.722549
1716.000000	19.787601
1715.000000	19.847075
1714.000000	19.891038
1713.000000	19.925406
1712.000000	19.963567
1711.000000	20.010767
1710.000000	19.998939
1709.000000	19.984879
1708.000000	19.965352
1707.000000	19.948950
1706.000000	19.897845
1705.000000	19.843504
1704.000000	19.780572
1703.000000	19.688070
1702.000000	19.566556
1701.000000	19.432881
1700.000000	19.282914
1699.000000	19.115317
1698.000000	18.986550
1697.000000	18.877869
1696.000000	18.824533
1695.000000	18.844283
1694.000000	18.929085
1693.000000	19.038213
1692.000000	19.194987
1691.000000	19.358678
1690.000000	19.520473
1689.000000	19.619893
1688.000000	19.693761
1687.000000	19.707039
1686.000000	19.711948
1685.000000	19.725896
1684.000000	19.825986
1683.000000	20.062206
1682.000000	20.412687
1681.000000	20.904654
1680.000000	21.405660
1679.000000	21.985554
1678.000000	22.540566
1677.000000	23.088213
1676.000000	23.569692
1675.000000	23.958892
1674.000000	24.331577
1673.000000	24.638987
1672.000000	24.935350
1671.000000	25.151374
1670.000000	25.353450
1669.000000	25.512009
1668.000000	25.655504
1667.000000	25.803909
1666.000000	25.904333
1665.000000	25.989359
1664.000000	26.055528
1663.000000	26.126271
1662.000000	26.169788
1661.000000	26.214086
1660.000000	26.252359
1659.000000	26.279139
1658.000000	26.289628
1657.000000	26.303687
1656.000000	26.304580
1655.000000	26.291859
1654.000000	26.262178
1653.000000	26.247115
1652.000000	26.218884
1651.000000	26.188422
1650.000000	26.137094
1649.000000	26.084204
1648.000000	26.030533
1647.000000	25.967824
1646.000000	25.904668
1645.000000	25.859254
1644.000000	25.780923
1643.000000	25.710626
1642.000000	25.644792
1641.000000	25.577062
1640.000000	25.505872
1639.000000	25.435463
1638.000000	25.347871
1637.000000	25.264184
1636.000000	25.181836
1635.000000	25.112878
1634.000000	25.037560
1633.000000	24.939256
1632.000000	24.858916
1631.000000	24.758380
1630.000000	24.676367
1629.000000	24.592904
1628.000000	24.505088
1627.000000	24.420509
1626.000000	24.318968
1625.000000	24.236509
1624.000000	24.165654
1623.000000	24.052621
1622.000000	23.981766
1621.000000	23.895959
1620.000000	23.803345
1619.000000	23.723676
1618.000000	23.629277
1617.000000	23.552954
1616.000000	23.479087
1615.000000	23.402876
1614.000000	23.307584
1613.000000	23.255587
1612.000000	23.173350
1611.000000	23.102830
1610.000000	23.038001
1609.000000	22.971944
1608.000000	22.903544
1607.000000	22.832577
1606.000000	22.770984
1605.000000	22.691314
1604.000000	22.628716
1603.000000	22.561543
1602.000000	22.507091
1601.000000	22.429653
1600.000000	22.360137
1599.000000	22.305573
1598.000000	22.248889
1597.000000	22.199346
1596.000000	22.142439
1595.000000	22.079730
1594.000000	22.035655
1593.000000	21.996936
1592.000000	21.956431
1591.000000	21.916485
1590.000000	21.871740
1589.000000	21.848419
1588.000000	21.824875
1587.000000	21.786156
1586.000000	21.761720
1585.000000	21.749892
1584.000000	21.716864
1583.000000	21.693208
1582.000000	21.685732
1581.000000	21.667209
1580.000000	21.656832
1579.000000	21.671561
1578.000000	21.668771
1577.000000	21.668102
1576.000000	21.677810
1575.000000	21.689861
1574.000000	21.718426
1573.000000	21.735275
1572.000000	21.746545
1571.000000	21.769642
1570.000000	21.798877
1569.000000	21.830120
1568.000000	21.866496
1567.000000	21.899301
1566.000000	21.927531
1565.000000	21.971495
1564.000000	22.010102
1563.000000	22.027175
1562.000000	22.051611
1561.000000	22.083635
1560.000000	22.099034
1559.000000	22.129607
1558.000000	22.175133
1557.000000	22.183837
1556.000000	22.183167
1555.000000	22.198454
1554.000000	22.200016
1553.000000	22.216753
1552.000000	22.226461
1551.000000	22.231371
1550.000000	22.239963
1549.000000	22.227912
1548.000000	22.226573
1547.000000	22.221217
1546.000000	22.219431
1545.000000	22.215861
1544.000000	22.214522
1543.000000	22.220659
1542.000000	22.222332
1541.000000	22.220882
1540.000000	22.228804
1539.000000	22.219320
1538.000000	22.231259
1537.000000	22.245542
1536.000000	22.230366
1535.000000	22.224899
1534.000000	22.233379
1533.000000	22.219543
1532.000000	22.189192
1531.000000	22.194883
1530.000000	22.185287
1529.000000	22.161520
1528.000000	22.159846
1527.000000	22.130835
1526.000000	22.105282
1525.000000	22.080288
1524.000000	22.050830
1523.000000	22.031526
1522.000000	22.004189
1521.000000	21.983992
1520.000000	21.955539
1519.000000	21.947616
1518.000000	21.929986
1517.000000	21.907335
1516.000000	21.888478
1515.000000	21.835699
1514.000000	21.812490
1513.000000	21.782809
1512.000000	21.747326
1511.000000	21.716864
1510.000000	21.692650
1509.000000	21.649468
1508.000000	21.621460
1507.000000	21.589213
1506.000000	21.554734
1505.000000	21.528177
1504.000000	21.495261
1503.000000	21.468592
1502.000000	21.450628
1501.000000	21.437349
1500.000000	21.403986
1499.000000	21.365602
1498.000000	21.351096
1497.000000	21.343062
1496.000000	21.330788
1495.000000	21.313381
1494.000000	21.299768
1493.000000	21.279906
1492.000000	21.298429
1491.000000	21.310034
1490.000000	21.291511
1489.000000	21.266628
1488.000000	21.250895
1487.000000	21.282807
1486.000000	21.287606
1485.000000	21.283142
1484.000000	21.268860
1483.000000	21.292738
1482.000000	21.305124
1481.000000	21.305459
1480.000000	21.324986
1479.000000	21.345740
1478.000000	21.389815
1477.000000	21.374305
1476.000000	21.407892
1475.000000	21.448396
1474.000000	21.472944
1473.000000	21.508762
1472.000000	21.546700
1471.000000	21.550829
1470.000000	21.583746
1469.000000	21.601487
1468.000000	21.654824
1467.000000	21.704813
1466.000000	21.740742
1465.000000	21.759153
1464.000000	21.810370
1463.000000	21.963349
1462.000000	22.112982
1461.000000	22.186626
1460.000000	22.271429
1459.000000	22.336928
1458.000000	22.424185
1457.000000	22.542686
1456.000000	22.661745
1455.000000	22.771430
1454.000000	22.851881
1453.000000	22.981094
1452.000000	23.087432
1451.000000	23.212851
1450.000000	23.296426
1449.000000	23.413030
1448.000000	23.564559
1447.000000	23.700801
1446.000000	23.855231
1445.000000	23.944944
1444.000000	24.067796
1443.000000	24.197009
1442.000000	24.372974
1441.000000	24.502522
1440.000000	24.630284
1439.000000	24.778019
1438.000000	24.933677
1437.000000	25.040238
1436.000000	25.193329
1435.000000	25.333588
1434.000000	25.469942
1433.000000	25.635419
1432.000000	25.772777
1431.000000	25.904222
1430.000000	26.087329
1429.000000	26.275457
1428.000000	26.469276
1427.000000	26.651490
1426.000000	26.910138
1425.000000	27.117905
1424.000000	27.386484
1423.000000	27.595255
1422.000000	27.825561
1421.000000	28.080193
1420.000000	28.331588
1419.000000	28.620922
1418.000000	28.879793
1417.000000	29.102177
1416.000000	29.384927
1415.000000	29.667231
1414.000000	29.893186
1413.000000	30.122823
1412.000000	30.326907
1411.000000	30.671028
1410.000000	30.991828
1409.000000	31.347999
1408.000000	31.709973
1407.000000	32.092924
1406.000000	32.467172
1405.000000	32.856595
1404.000000	33.220577
1403.000000	33.612009
1402.000000	33.989046
1401.000000	34.410940
1400.000000	34.720804
1399.000000	34.952003
1398.000000	35.187219
1397.000000	35.436495
1396.000000	35.672046
1395.000000	35.835402
1394.000000	35.983584
1393.000000	36.129980
1392.000000	36.316435
1391.000000	36.491061
1390.000000	36.702622
1389.000000	36.977673
1388.000000	37.280396
1387.000000	37.589926
1386.000000	37.972097
1385.000000	38.379596
1384.000000	38.829832
1383.000000	39.268574
1382.000000	39.593837
1381.000000	39.815998
1380.000000	39.931709
1379.000000	40.022984
1378.000000	40.110130
1377.000000	40.230750
1376.000000	40.373688
1375.000000	40.563043
1374.000000	40.867329
1373.000000	41.226290
1372.000000	41.582350
1371.000000	41.939525
1370.000000	42.263784
1369.000000	42.574653
1368.000000	42.859077
1367.000000	43.110696
1366.000000	43.330067
1365.000000	43.537834
1364.000000	43.699963
1363.000000	43.867448
1362.000000	44.025896
1361.000000	44.117728
1360.000000	44.154327
1359.000000	44.214693
1358.000000	44.325272
1357.000000	44.529468
1356.000000	44.848705
1355.000000	45.270599
1354.000000	45.729203
1353.000000	46.200974
1352.000000	46.776294
1351.000000	47.296938
1350.000000	47.760005
1349.000000	48.179667
1348.000000	48.572661
1347.000000	48.920910
1346.000000	49.245057
1345.000000	49.559497
1344.000000	49.884760
1343.000000	50.181347
1342.000000	50.432296
1341.000000	50.691167
1340.000000	50.946133
1339.000000	51.191615
1338.000000	51.424599
1337.000000	51.636606
1336.000000	51.830313
1335.000000	52.026699
1334.000000	52.208243
1333.000000	52.389007
1332.000000	52.569324
1331.000000	52.726098
1330.000000	52.872383
1329.000000	53.027594
1328.000000	53.162944
1327.000000	53.271513
1326.000000	53.397713
1325.000000	53.514875
1324.000000	53.620544
1323.000000	53.731903
1322.000000	53.839134
1321.000000	53.939223
1320.000000	54.025030
1319.000000	54.101688
1318.000000	54.197649
1317.000000	54.273190
1316.000000	54.347392
1315.000000	54.429071
1314.000000	54.502715
1313.000000	54.576136
1312.000000	54.642751
1311.000000	54.687384
1310.000000	54.739605
1309.000000	54.790710
1308.000000	54.837351
1307.000000	54.876517
1306.000000	54.907648
1305.000000	54.939784
1304.000000	54.956521
1303.000000	54.969019
1302.000000	54.984975
1301.000000	54.998253
1300.000000	55.017780
1299.000000	55.031728
1298.000000	55.026707
1297.000000	55.015772
1296.000000	55.019231
1295.000000	55.021909
1294.000000	55.005952
1293.000000	55.001043
1292.000000	55.001378
1291.000000	54.983971
1290.000000	54.951389
1289.000000	54.915124
1288.000000	54.883435
1287.000000	54.850630
1286.000000	54.797516
1285.000000	54.751321
1284.000000	54.701444
1283.000000	54.643867
1282.000000	54.589415
1281.000000	54.547013
1280.000000	54.502715
1279.000000	54.447147
1278.000000	54.401510
1277.000000	54.364576
1276.000000	54.333110
1275.000000	54.291601
1274.000000	54.260358
1273.000000	54.230342
1272.000000	54.202223
1271.000000	54.178568
1270.000000	54.153462
1269.000000	54.127240
1268.000000	54.102580
1267.000000	54.073569
1266.000000	54.045673
1265.000000	54.006619
1264.000000	53.980063
1263.000000	53.938777
1262.000000	53.911216
1261.000000	53.872162
1260.000000	53.831881
1259.000000	53.793162
1258.000000	53.769060
1257.000000	53.714273
1256.000000	53.657812
1255.000000	53.596107
1254.000000	53.551920
1253.000000	53.504275
1252.000000	53.442569
1251.000000	53.372384
1250.000000	53.286800
1249.000000	53.192625
1248.000000	53.106260
1247.000000	53.014985
1246.000000	52.900725
1245.000000	52.785571
1244.000000	52.672427
1243.000000	52.531833
1242.000000	52.401058
1241.000000	52.268386
1240.000000	52.132033
1239.000000	51.981954
1238.000000	51.830983
1237.000000	51.697753
1236.000000	51.554928
1235.000000	51.390790
1234.000000	51.218953
1233.000000	51.069320
1232.000000	50.887218
1231.000000	50.728770
1230.000000	50.547895
1229.000000	50.371148
1228.000000	50.181235
1227.000000	50.013750
1226.000000	49.846599
1225.000000	49.665166
1224.000000	49.480050
1223.000000	49.327071
1222.000000	49.165945
1221.000000	48.989980
1220.000000	48.818031
1219.000000	48.678999
1218.000000	48.526466
1217.000000	48.402832
1216.000000	48.266479
1215.000000	48.136485
1214.000000	48.002474
1213.000000	47.884308
1212.000000	47.783661
1211.000000	47.678215
1210.000000	47.569422
1209.000000	47.487744
1208.000000	47.390444
1207.000000	47.322156
1206.000000	47.276853
1205.000000	47.252082
1204.000000	47.238580
1203.000000	47.206110
1202.000000	47.166721
1201.000000	47.152996
1200.000000	47.099325
1199.000000	47.031483
1198.000000	46.913540
1197.000000	46.758664
1196.000000	46.541859
1195.000000	46.287897
1194.000000	45.923245
1193.000000	45.548328
1192.000000	45.067630
1191.000000	44.608914
1190.000000	44.141049
1189.000000	43.792688
1188.000000	43.520650
1187.000000	43.411522
1186.000000	43.428483
1185.000000	43.575660
1184.000000	43.828953
1183.000000	44.240804
1182.000000	44.757654
1181.000000	45.290461
1180.000000	45.834202
1179.000000	46.331637
1178.000000	46.796379
1177.000000	47.163931
1176.000000	47.529364
1175.000000	47.849383
1174.000000	48.169736
1173.000000	48.518097
1172.000000	48.861995
1171.000000	49.217943
1170.000000	49.580140
1169.000000	49.948251
1168.000000	50.322275
1167.000000	50.704111
1166.000000	51.083715
1165.000000	51.451937
1164.000000	51.837008
1163.000000	52.244731
1162.000000	52.595435
1161.000000	52.960979
1160.000000	53.297401
1159.000000	53.642749
1158.000000	53.943463
1157.000000	54.236814
1156.000000	54.424049
1155.000000	54.655360
1154.000000	54.775534
1153.000000	54.858663
1152.000000	54.894928
1151.000000	54.927510
1150.000000	54.929518
1149.000000	54.950273
1148.000000	54.980846
1147.000000	55.053263
1146.000000	55.174777
1145.000000	55.372724
1144.000000	55.644205
1143.000000	55.925058
1142.000000	56.234923
1141.000000	56.552710
1140.000000	56.888015
1139.000000	57.209708
1138.000000	57.567553
1137.000000	57.930531
1136.000000	58.276437
1135.000000	58.636960
1134.000000	58.956644
1133.000000	59.209936
1132.000000	59.469700
1131.000000	59.697217
1130.000000	59.933214
1129.000000	60.123463
1128.000000	60.273541
1127.000000	60.398625
1126.000000	60.498268
1125.000000	60.592556
1124.000000	60.682826
1123.000000	60.748325
1122.000000	60.800545
1121.000000	60.853547
1120.000000	60.873074
1119.000000	60.910008
1118.000000	60.934779
1117.000000	60.940135
1116.000000	60.933552
1115.000000	60.953860
1114.000000	60.966915
1113.000000	60.974726
1112.000000	60.978743
1111.000000	60.976511
1110.000000	60.984099
1109.000000	60.987111
1108.000000	60.976176
1107.000000	60.999609
1106.000000	60.989566
1105.000000	60.995368
1104.000000	60.990570
1103.000000	60.991909
1102.000000	60.997377
1101.000000	60.994253
1100.000000	60.990570
1099.000000	60.977738
1098.000000	60.945714
1097.000000	60.945045
1096.000000	60.921055
1095.000000	60.921836
1094.000000	60.910566
1093.000000	60.873855
1092.000000	60.845290
1091.000000	60.825317
1090.000000	60.816390
1089.000000	60.775774
1088.000000	60.746428
1087.000000	60.735827
1086.000000	60.703134
1085.000000	60.676466
1084.000000	60.633953
1083.000000	60.607173
1082.000000	60.591440
1081.000000	60.556961
1080.000000	60.512997
1079.000000	60.508088
1078.000000	60.498715
1077.000000	60.470819
1076.000000	60.448949
1075.000000	60.421499
1074.000000	60.404093
1073.000000	60.367382
1072.000000	60.358009
1071.000000	60.334911
1070.000000	60.309024
1069.000000	60.295076
1068.000000	60.276888
1067.000000	60.266958
1066.000000	60.260821
1065.000000	60.233483
1064.000000	60.216522
1063.000000	60.191528
1062.000000	60.173451
1061.000000	60.167538
1060.000000	60.139642
1059.000000	60.125025
1058.000000	60.113643
1057.000000	60.085636
1056.000000	60.066109
1055.000000	60.070238
1054.000000	60.060642
1053.000000	60.045689
1052.000000	60.053947
1051.000000	60.050934
1050.000000	60.050711
1049.000000	60.055286
1048.000000	60.059637
1047.000000	60.074366
1046.000000	60.087868
1045.000000	60.099919
1044.000000	60.107841
1043.000000	60.126698
1042.000000	60.158611
1041.000000	60.180370
1040.000000	60.192644
1039.000000	60.210274
1038.000000	60.230359
1037.000000	60.236384
1036.000000	60.248770
1035.000000	60.267739
1034.000000	60.259035
1033.000000	60.261936
1032.000000	60.280794
1031.000000	60.284365
1030.000000	60.293849
1029.000000	60.296081
1028.000000	60.294853
1027.000000	60.309024
1026.000000	60.308690
1025.000000	60.284476
1024.000000	60.280124
1023.000000	60.287600
1022.000000	60.291617
1021.000000	60.290502
1020.000000	60.282691
1019.000000	60.283918
1018.000000	60.282356
1017.000000	60.275773
1016.000000	60.285815
1015.000000	60.315273
1014.000000	60.332568
1013.000000	60.363477
1012.000000	60.401973
1011.000000	60.431207
1010.000000	60.455421
1009.000000	60.505856
1008.000000	60.566780
1007.000000	60.597688
1006.000000	60.634064
1005.000000	60.694319
1004.000000	60.737724
1003.000000	60.777559
1002.000000	60.825651
1001.000000	60.879434
1000.000000	60.949620
999.000000	60.999609
998.000000	61.030182
997.000000	61.091776
996.000000	61.136409
995.000000	61.171557
994.000000	61.240292
993.000000	61.297646
992.000000	61.341386
991.000000	61.396508
990.000000	61.461560
989.000000	61.534424
988.000000	61.613647
987.000000	61.702355
986.000000	61.778120
985.000000	61.868725
984.000000	61.960557
983.000000	62.033979
982.000000	62.129382
981.000000	62.224004
980.000000	62.313047
979.000000	62.424629
978.000000	62.521260
977.000000	62.647348
976.000000	62.763840
975.000000	62.849982
974.000000	62.963684
973.000000	63.105060
972.000000	63.246211
971.000000	63.355228
970.000000	63.481427
969.000000	63.622691
968.000000	63.761834
967.000000	63.889373
966.000000	64.017024
965.000000	64.155944
964.000000	64.284375
963.000000	64.434119
962.000000	64.584867
961.000000	64.702922
960.000000	64.845524
959.000000	64.990135
958.000000	65.132738
957.000000	65.241419
956.000000	65.349542
955.000000	65.479648
954.000000	65.598148
953.000000	65.685406
952.000000	65.801563
951.000000	65.908906
950.000000	65.981769
949.000000	66.069473
948.000000	66.144791
947.000000	66.252915
946.000000	66.328233
945.000000	66.395852
944.000000	66.483221
943.000000	66.538901
942.000000	66.605962
941.000000	66.694335
940.000000	66.732943
939.000000	66.801901
938.000000	66.865168
937.000000	66.930555
936.000000	67.012345
935.000000	67.117456
934.000000	67.163540
933.000000	67.243098
932.000000	67.315961
931.000000	67.428214
930.000000	67.487910
929.000000	67.576060
928.000000	67.698690
927.000000	67.768094
926.000000	67.862158
925.000000	67.954548
924.000000	68.062560
923.000000	68.182623
922.000000	68.291751
921.000000	68.399763
920.000000	68.488694
919.000000	68.567918
918.000000	68.666780
917.000000	68.738416
916.000000	68.836497
915.000000	68.912261
914.000000	69.000635
913.000000	69.090347
912.000000	69.236409
911.000000	69.286509
910.000000	69.387045
909.000000	69.410366
908.000000	69.540471
907.000000	69.629179
906.000000	69.742435
905.000000	69.837727
904.000000	69.961137
903.000000	70.078745
902.000000	70.200482
901.000000	70.326793
900.000000	70.403450
899.000000	70.517599
898.000000	70.585330
897.000000	70.647705
896.000000	70.690441
895.000000	70.742550
894.000000	70.792316
893.000000	70.834940
892.000000	70.892851
891.000000	70.919296
890.000000	70.886603
889.000000	70.905795
888.000000	70.898654
887.000000	70.872878
886.000000	70.792985
885.000000	70.747906
884.000000	70.653730
883.000000	70.608204
882.000000	70.554422
881.000000	70.451877
880.000000	70.282718
879.000000	70.188542
878.000000	69.984458
877.000000	69.867631
876.000000	69.655289
875.000000	69.482894
874.000000	69.231722
873.000000	69.001081
872.000000	68.666110
871.000000	68.196125
870.000000	67.698355
869.000000	67.333815
868.000000	66.758495
867.000000	66.182729
866.000000	65.766750
865.000000	65.673020
864.000000	65.756930
863.000000	65.866504
862.000000	65.963023
861.000000	66.018257
860.000000	66.064675
859.000000	66.108415
858.000000	67.585433
857.000000	67.787400
856.000000	67.293400
855.000000	67.675500
854.000000	68.091000
853.000000	67.758500
852.000000	67.729000
851.000000	67.782000
850.000000	68.009000
849.000000	68.012900
848.000000	68.131900
847.000000	67.977700
846.000000	68.166100
845.000000	68.168500
844.000000	68.092700
843.000000	67.865400
842.000000	67.844300
841.000000	68.002000
840.000000	68.078100
839.000000	67.821900
838.000000	67.715300
837.000000	67.818800
836.000000	67.742800
835.000000	67.833800
834.000000	67.920600
833.000000	67.764200
832.000000	67.774800
831.000000	67.681500
830.000000	67.554600
829.000000	67.457600
828.000000	67.483600
827.000000	67.516800
826.000000	67.409400
825.000000	67.453600
824.000000	67.337200
823.000000	67.277500
822.000000	67.189600
821.000000	67.073500
820.000000	66.999700
819.000000	66.907000
818.000000	66.947400
817.000000	66.961400
816.000000	66.837200
815.000000	66.661800
814.000000	66.648100
813.000000	66.543000
812.000000	66.443200
811.000000	66.395700
810.000000	66.201300
809.000000	66.052500
808.000000	66.016700
807.000000	65.909400
806.000000	65.727600
805.000000	65.611000
804.000000	65.501400
803.000000	65.390800
802.000000	65.213800
801.000000	65.115900
800.000000	65.064700
799.000000	64.925000
798.000000	64.660500
797.000000	64.572000
796.000000	64.528700
795.000000	64.444000
794.000000	64.414700
793.000000	64.270100
792.000000	64.088900
791.000000	63.907700
790.000000	63.775200
789.000000	63.593300
788.000000	63.486600
787.000000	63.369300
786.000000	63.212200
785.000000	63.159900
784.000000	62.970000
783.000000	62.809800
782.000000	62.684700
781.000000	62.651000
780.000000	62.517900
779.000000	62.346200
778.000000	62.255300
777.000000	62.159500
776.000000	61.997400
775.000000	61.914400
774.000000	61.841500
773.000000	61.807200
772.000000	61.669600
771.000000	61.584200
770.000000	61.563800
769.000000	61.561800
768.000000	61.389400
767.000000	61.217400
766.000000	61.155900
765.000000	61.162500
764.000000	61.083100
763.000000	60.976500
762.000000	60.964500
761.000000	60.955700
760.000000	60.840700
759.000000	60.760000
758.000000	60.716100
757.000000	60.695700
756.000000	60.657600
755.000000	60.613600
754.000000	60.578200
753.000000	60.538600
752.000000	60.498900
751.000000	60.468500
750.000000	60.478800
749.000000	60.483100
748.000000	60.439200
747.000000	60.348300
746.000000	60.335200
745.000000	60.336100
744.000000	60.243900
743.000000	60.152600
742.000000	60.146500
741.000000	60.144700
740.000000	60.045300
739.000000	59.906400
738.000000	59.864100
737.000000	59.831400
736.000000	59.713700
735.000000	59.642400
734.000000	59.590700
733.000000	59.481200
732.000000	59.376100
731.000000	59.237700
730.000000	59.162000
729.000000	59.085500
728.000000	59.009600
727.000000	58.968600
726.000000	58.901000
725.000000	58.735500
724.000000	58.605800
723.000000	58.497200
722.000000	58.369000
721.000000	58.217900
720.000000	58.055800
719.000000	57.947000
718.000000	57.803900
717.000000	57.666400
716.000000	57.531300
715.000000	57.389700
714.000000	57.241100
713.000000	57.091300
712.000000	56.934200
711.000000	56.757800
710.000000	56.563800
709.000000	56.445700
708.000000	56.292500
707.000000	56.150800
706.000000	55.994900
705.000000	55.818100
704.000000	55.711800
703.000000	55.584900
702.000000	55.453400
701.000000	55.305200
700.000000	55.210300
699.000000	55.054800
698.000000	54.927500
697.000000	54.840700
696.000000	54.683100
695.000000	54.572700
694.000000	54.527500
693.000000	54.439900
692.000000	54.336200
691.000000	54.275800
690.000000	54.237400
689.000000	54.174800
688.000000	54.199800
687.000000	54.184000
686.000000	54.214000
685.000000	54.236500
684.000000	54.285700
683.000000	54.333200
682.000000	54.376400
681.000000	54.407900
680.000000	54.509600
679.000000	54.496700
678.000000	54.542500
677.000000	54.591700
676.000000	54.604400
675.000000	54.588300
674.000000	54.636500
673.000000	54.605700
672.000000	54.592200
671.000000	54.560600
670.000000	54.508100
669.000000	54.467400
668.000000	54.423000
667.000000	54.358800
666.000000	54.262600
665.000000	54.132200
664.000000	54.034800
663.000000	53.891500
662.000000	53.720800
661.000000	53.544700
660.000000	53.409900
659.000000	53.166100
658.000000	52.905700
657.000000	52.596800
656.000000	52.277900
655.000000	51.944600
654.000000	51.541700
653.000000	51.134600
652.000000	50.682100
651.000000	50.228800
650.000000	49.699700
649.000000	49.240000
648.000000	48.791100
647.000000	48.319300
646.000000	47.933700
645.000000	47.556600
644.000000	47.193100
643.000000	46.930900
642.000000	46.687100
641.000000	46.566700
640.000000	46.469100
639.000000	46.460300
638.000000	46.562300
637.000000	46.734000
636.000000	46.971800
635.000000	47.282700
634.000000	47.689400
633.000000	48.208900
632.000000	48.770600
631.000000	49.370200
630.000000	50.075200
629.000000	50.785400
628.000000	51.600400
627.000000	52.376900
626.000000	53.162600
625.000000	53.986100
624.000000	54.788800
623.000000	55.617300
622.000000	56.444300
621.000000	57.298000
620.000000	58.068900
619.000000	58.789800
618.000000	59.531700
617.000000	60.226100
616.000000	60.926100
615.000000	61.489600
614.000000	62.054400
613.000000	62.618000
612.000000	63.135700
611.000000	63.587500
610.000000	64.030900
609.000000	64.427900
608.000000	64.801200
607.000000	65.118400
606.000000	65.482700
605.000000	65.747500
604.000000	66.116000
603.000000	66.384800
602.000000	66.677000
601.000000	66.954200
600.000000	67.285000
599.000000	67.535200
598.000000	67.730100
597.000000	67.993000
596.000000	68.210000
595.000000	68.394300
594.000000	68.602300
593.000000	68.803800
592.000000	68.995100
591.000000	69.147300
590.000000	69.275000
589.000000	69.416800
588.000000	69.510600
587.000000	69.612400
586.000000	69.698500
585.000000	69.781800
584.000000	69.864700
583.000000	69.903100
582.000000	69.967400
581.000000	70.038700
580.000000	70.105600
579.000000	70.178300
578.000000	70.231700
577.000000	70.315800
576.000000	70.373500
575.000000	70.436900
574.000000	70.530700
573.000000	70.491000
572.000000	70.521600
571.000000	70.528100
570.000000	70.559000
569.000000	70.518000
568.000000	70.458600
567.000000	70.459000
566.000000	70.364000
565.000000	70.288400
564.000000	70.195900
563.000000	70.106100
562.000000	69.922800
561.000000	69.748200
560.000000	69.586100
559.000000	69.320400
558.000000	69.138600
557.000000	68.947600
556.000000	68.676700
555.000000	68.394700
554.000000	68.069300
553.000000	67.721100
552.000000	67.346500
551.000000	66.903400
550.000000	66.387200
549.000000	65.839900
548.000000	65.221600
547.000000	64.554800
546.000000	63.800100
545.000000	62.972000
544.000000	62.049500
543.000000	61.089700
542.000000	60.072900
541.000000	59.000600
540.000000	57.865100
539.000000	56.743900
538.000000	55.590300
537.000000	54.445100
536.000000	53.284000
535.000000	52.142300
534.000000	50.998600
533.000000	49.876400
532.000000	48.749800
531.000000	47.660100
530.000000	46.626200
529.000000	45.631500
528.000000	44.688400
527.000000	43.800600
526.000000	42.921900
525.000000	42.081100
524.000000	41.264000
523.000000	40.444300
522.000000	39.657800
521.000000	38.898300
520.000000	38.153800
519.000000	37.422300
518.000000	36.729100
517.000000	36.043000
516.000000	35.354400
515.000000	34.721700
514.000000	34.095500
513.000000	33.428800
512.000000	32.804700
511.000000	32.221200
510.000000	31.652200
509.000000	31.101000
508.000000	30.551200
507.000000	30.041200
506.000000	29.547000
505.000000	29.081200
504.000000	28.620800
503.000000	28.179200
502.000000	27.759600
501.000000	27.365000
500.000000	26.996600
499.000000	26.644800
498.000000	26.307300
497.000000	25.997400
496.000000	25.681400
495.000000	25.387700
494.000000	25.139600
493.000000	24.869100
492.000000	24.616600
491.000000	24.366000
490.000000	24.091500
489.000000	23.849400
488.000000	23.610100
487.000000	23.359800
486.000000	23.096300
485.000000	22.826500
484.000000	22.548900
483.000000	22.220200
482.000000	21.862100
481.000000	21.494200
480.000000	21.112700
479.000000	20.724400
478.000000	20.332800
477.000000	19.918500
476.000000	19.504800
475.000000	19.106800
474.000000	18.714700
473.000000	18.330300
472.000000	17.956000
471.000000	17.616300
470.000000	17.297500
469.000000	16.999700
468.000000	16.730500
467.000000	16.495500
466.000000	16.300700
465.000000	16.125500
464.000000	15.977200
463.000000	15.876700
462.000000	15.785700
461.000000	15.706600
460.000000	15.665300
459.000000	15.659700
458.000000	15.679500
457.000000	15.705000
456.000000	15.740500
455.000000	15.792200
454.000000	15.841400
453.000000	15.911800
452.000000	15.992900
451.000000	16.060000
450.000000	16.133700
449.000000	16.189000
448.000000	16.236800
447.000000	16.289100
446.000000	16.319100
445.000000	16.324600
444.000000	16.330200
443.000000	16.338700
442.000000	16.306800
441.000000	16.247300
440.000000	16.194800
439.000000	16.127300
438.000000	16.040500
437.000000	15.959300
436.000000	15.861300
435.000000	15.759300
434.000000	15.659000
433.000000	15.558100
432.000000	15.428000
431.000000	15.287300
430.000000	15.163100
429.000000	15.033500
428.000000	14.909100
427.000000	14.750200
426.000000	14.585600
425.000000	14.440600
424.000000	14.290000
423.000000	14.129600
422.000000	13.950200
421.000000	13.784300
420.000000	13.609900
419.000000	13.417100
418.000000	13.218000
417.000000	13.039000
416.000000	12.860100
415.000000	12.647500
414.000000	12.416200
413.000000	12.197600
412.000000	11.981600
411.000000	11.748700
410.000000	11.517000
409.000000	11.257900
408.000000	11.019100
407.000000	10.780700
406.000000	10.524100
405.000000	10.293600
404.000000	10.036100
403.000000	9.795800
402.000000	9.565900
401.000000	9.316000
400.000000	9.085800
399.000000	8.864400
398.000000	8.638300
397.000000	8.415000
396.000000	8.232900
395.000000	8.042100
394.000000	7.863800
393.000000	7.673800
392.000000	7.519700
391.000000	7.371100
390.000000	7.227900
389.000000	7.088000
388.000000	6.969600
387.000000	6.843800
386.000000	6.740400
385.000000	6.657700
384.000000	6.579100
383.000000	6.496000
382.000000	6.413600
381.000000	6.351900
380.000000	6.294600
379.000000	6.236600
378.000000	6.193400
377.000000	6.154000
376.000000	6.264400
375.000000	5.822200
374.000000	5.685700
373.000000	5.731600
372.000000	5.769700
371.000000	5.788500
370.000000	5.743600
369.000000	5.756800
368.000000	5.824300
367.000000	5.799100
366.000000	5.596300
365.000000	5.612700
364.000000	5.764900
363.000000	5.730300
362.000000	5.715600
361.000000	5.805200
360.000000	5.739800
359.000000	5.772800
358.000000	5.750300
357.000000	5.756700
356.000000	5.827300
355.000000	5.765000
354.000000	5.711500
353.000000	5.698200
352.000000	5.846800
351.000000	5.594300
350.000000	5.636100
349.000000	5.682300
348.000000	5.714700
347.000000	5.600200
346.000000	5.801000
345.000000	5.831300
344.000000	5.696100
343.000000	5.635500
342.000000	5.767300
341.000000	5.754700
340.000000	5.550100
339.000000	5.713500
338.000000	5.725800
337.000000	5.669800
336.000000	5.685900
335.000000	5.679500
334.000000	5.835500
333.000000	5.808000
332.000000	5.960200
331.000000	5.970700
330.000000	5.925900
329.000000	5.933900
328.000000	6.111800
327.000000	5.948800
326.000000	6.029700
325.000000	6.119100
324.000000	6.631300
323.000000	6.147800
322.000000	6.220200
321.000000	6.291800
320.000000	6.358800
319.000000	6.671300
318.000000	6.645100
317.000000	6.689700
316.000000	5.747900
315.000000	5.658700
314.000000	5.572700
313.000000	5.634900
312.000000	5.646200
311.000000	5.633800
310.000000	5.655500
309.000000	5.688800
308.000000	5.687200
307.000000	5.626100
306.000000	5.629100
305.000000	5.706400
304.000000	5.633900
303.000000	5.750100
302.000000	5.632000
301.000000	5.623800
300.000000	5.726400
299.000000	5.742000
298.000000	5.724400
297.000000	5.667100
296.000000	5.712100
295.000000	5.731700
294.000000	5.719700
293.000000	5.666100
292.000000	5.728300
291.000000	5.799000
290.000000	5.765000
289.000000	5.768400
288.000000	5.790100
287.000000	5.730700
286.000000	5.767300
285.000000	5.815500
284.000000	5.801400
283.000000	5.756200
282.000000	5.799300
281.000000	5.766800
280.000000	5.829700
279.000000	5.844900
278.000000	5.889700
277.000000	5.910500
276.000000	5.831200
275.000000	5.835700
274.000000	5.946500
273.000000	5.911300
272.000000	5.805100
271.000000	5.918500
270.000000	5.947000
269.000000	5.989000
268.000000	6.009600
267.000000	6.030800
266.000000	6.060000
265.000000	6.136000
264.000000	6.128400
263.000000	6.112700
262.000000	6.225800
261.000000	6.224600
260.000000	6.246300
259.000000	6.280800
258.000000	6.337700
257.000000	6.376700
256.000000	6.329400
255.000000	6.358500
254.000000	6.364100
253.000000	6.429100
252.000000	6.375600
251.000000	6.420400
250.000000	6.444000
