PE UV       SUBTECH     SPECTRUM    ASCII       PEDS        4.00        
   -1
CICIMAUCR0015-2.Sample.ASC
24/04/12
12:09:01.00
24/04/12
12:09:01.00
Vinicio Soto Monge
C. resplendens
250,000000
1
Lambda 1050
1050L1511233
PerkinElmer UV WinLab 6.3.2.0749 / 2.02.05 Lambda 900 UV/VIS/NIR, Aug  7 2015 09:38:08

0
0
3350/servo 860,8/2
0
0
UV/VIS
1
1
1
DoubleDePol,CommonBeamDepol,RBeamAtt,SBeamAtt,60mm sphere, WB InGaAs Detector
0
0
0
0
Program
Program
3350/servo 860,8/2
3350/0,2 860,8/0,2
3350/0,2 860,8/0,2
0
15.00
 
 
 
0
 
860,8
319,2
860,8
Front
100
on
S:100 R:100
0
0
0
0
 
0
 
 
 
0
 
 
0
0
0
0
0
 
 
 
 
0
0


0
0
#HDR
-1
-1
#GR
nm
%R
1.0
0.0
2500,000000
-1,000000
2251
8
80,862600
5,142300
#DATA
2500,000000	7,865100
2499,000000	7,771700
2498,000000	7,828000
2497,000000	7,828200
2496,000000	7,754600
2495,000000	7,787000
2494,000000	7,686800
2493,000000	7,727800
2492,000000	7,591700
2491,000000	7,637300
2490,000000	7,596200
2489,000000	7,637000
2488,000000	7,617400
2487,000000	7,602100
2486,000000	7,610100
2485,000000	7,625100
2484,000000	7,581400
2483,000000	7,581500
2482,000000	7,585400
2481,000000	7,618400
2480,000000	7,550000
2479,000000	7,539000
2478,000000	7,554200
2477,000000	7,522800
2476,000000	7,563500
2475,000000	7,557200
2474,000000	7,564200
2473,000000	7,592100
2472,000000	7,610100
2471,000000	7,606800
2470,000000	7,626900
2469,000000	7,601000
2468,000000	7,648800
2467,000000	7,649400
2466,000000	7,638000
2465,000000	7,681600
2464,000000	7,712300
2463,000000	7,745200
2462,000000	7,807100
2461,000000	7,812500
2460,000000	7,864400
2459,000000	7,920000
2458,000000	7,977100
2457,000000	8,020600
2456,000000	8,102100
2455,000000	8,160200
2454,000000	8,223200
2453,000000	8,292400
2452,000000	8,369700
2451,000000	8,436800
2450,000000	8,501100
2449,000000	8,578500
2448,000000	8,672500
2447,000000	8,722600
2446,000000	8,818800
2445,000000	8,891800
2444,000000	8,982800
2443,000000	9,024800
2442,000000	9,101500
2441,000000	9,183200
2440,000000	9,265400
2439,000000	9,322700
2438,000000	9,395000
2437,000000	9,448800
2436,000000	9,533000
2435,000000	9,605500
2434,000000	9,646200
2433,000000	9,697900
2432,000000	9,771500
2431,000000	9,818900
2430,000000	9,875900
2429,000000	9,929300
2428,000000	9,954500
2427,000000	9,981600
2426,000000	9,985600
2425,000000	10,026200
2424,000000	10,061700
2423,000000	10,095700
2422,000000	10,123200
2421,000000	10,152300
2420,000000	10,186700
2419,000000	10,226800
2418,000000	10,270800
2417,000000	10,302400
2416,000000	10,330000
2415,000000	10,349800
2414,000000	10,389700
2413,000000	10,429800
2412,000000	10,469600
2411,000000	10,496600
2410,000000	10,511000
2409,000000	10,538300
2408,000000	10,560300
2407,000000	10,584700
2406,000000	10,612100
2405,000000	10,630300
2404,000000	10,657400
2403,000000	10,696700
2402,000000	10,731200
2401,000000	10,758300
2400,000000	10,809300
2399,000000	10,827400
2398,000000	10,844300
2397,000000	10,874800
2396,000000	10,912700
2395,000000	10,956600
2394,000000	10,981900
2393,000000	11,001300
2392,000000	11,022400
2391,000000	11,051800
2390,000000	11,077300
2389,000000	11,093900
2388,000000	11,105400
2387,000000	11,108600
2386,000000	11,110500
2385,000000	11,114700
2384,000000	11,115200
2383,000000	11,130100
2382,000000	11,119600
2381,000000	11,103600
2380,000000	11,093200
2379,000000	11,083800
2378,000000	11,054300
2377,000000	11,037400
2376,000000	11,041800
2375,000000	11,021900
2374,000000	10,987500
2373,000000	10,950700
2372,000000	10,926100
2371,000000	10,911200
2370,000000	10,892400
2369,000000	10,850100
2368,000000	10,790800
2367,000000	10,742600
2366,000000	10,707500
2365,000000	10,657500
2364,000000	10,587100
2363,000000	10,517400
2362,000000	10,457600
2361,000000	10,398500
2360,000000	10,330500
2359,000000	10,269800
2358,000000	10,227700
2357,000000	10,189800
2356,000000	10,143500
2355,000000	10,116200
2354,000000	10,108300
2353,000000	10,096300
2352,000000	10,086100
2351,000000	10,100300
2350,000000	10,130600
2349,000000	10,165900
2348,000000	10,210300
2347,000000	10,249800
2346,000000	10,295500
2345,000000	10,331200
2344,000000	10,382400
2343,000000	10,427700
2342,000000	10,444500
2341,000000	10,470600
2340,000000	10,508400
2339,000000	10,546400
2338,000000	10,554000
2337,000000	10,544200
2336,000000	10,541700
2335,000000	10,527100
2334,000000	10,495300
2333,000000	10,466500
2332,000000	10,448700
2331,000000	10,410200
2330,000000	10,365000
2329,000000	10,308800
2328,000000	10,263800
2327,000000	10,208600
2326,000000	10,128900
2325,000000	10,068600
2324,000000	10,008700
2323,000000	9,918000
2322,000000	9,832900
2321,000000	9,732800
2320,000000	9,641000
2319,000000	9,548900
2318,000000	9,453600
2317,000000	9,337800
2316,000000	9,216500
2315,000000	9,117100
2314,000000	9,008000
2313,000000	8,911900
2312,000000	8,842800
2311,000000	8,774100
2310,000000	8,703500
2309,000000	8,656600
2308,000000	8,617300
2307,000000	8,584200
2306,000000	8,596000
2305,000000	8,620200
2304,000000	8,651900
2303,000000	8,686800
2302,000000	8,739800
2301,000000	8,811900
2300,000000	8,883900
2299,000000	8,963500
2298,000000	9,050300
2297,000000	9,125300
2296,000000	9,212000
2295,000000	9,286300
2294,000000	9,340800
2293,000000	9,398200
2292,000000	9,461000
2291,000000	9,499700
2290,000000	9,530700
2289,000000	9,529600
2288,000000	9,522500
2287,000000	9,517000
2286,000000	9,493100
2285,000000	9,477300
2284,000000	9,451300
2283,000000	9,422100
2282,000000	9,371700
2281,000000	9,350500
2280,000000	9,296100
2279,000000	9,264400
2278,000000	9,217800
2277,000000	9,198200
2276,000000	9,157500
2275,000000	9,142300
2274,000000	9,114100
2273,000000	9,109700
2272,000000	9,099000
2271,000000	9,153400
2270,000000	9,162500
2269,000000	9,210500
2268,000000	9,271800
2267,000000	9,347700
2266,000000	9,444900
2265,000000	9,585100
2264,000000	9,712500
2263,000000	9,877700
2262,000000	10,051700
2261,000000	10,257500
2260,000000	10,493600
2259,000000	10,699100
2258,000000	10,945100
2257,000000	11,206400
2256,000000	11,454300
2255,000000	11,735600
2254,000000	11,946800
2253,000000	12,213400
2252,000000	12,460200
2251,000000	12,705100
2250,000000	12,908300
2249,000000	13,135100
2248,000000	13,340500
2247,000000	13,515300
2246,000000	13,669900
2245,000000	13,853800
2244,000000	13,998300
2243,000000	14,168300
2242,000000	14,290600
2241,000000	14,435300
2240,000000	14,531100
2239,000000	14,654200
2238,000000	14,743600
2237,000000	14,859800
2236,000000	14,956400
2235,000000	14,999900
2234,000000	15,077300
2233,000000	15,154900
2232,000000	15,195800
2231,000000	15,255100
2230,000000	15,289100
2229,000000	15,301700
2228,000000	15,333000
2227,000000	15,335900
2226,000000	15,338100
2225,000000	15,354400
2224,000000	15,339200
2223,000000	15,328600
2222,000000	15,329500
2221,000000	15,296200
2220,000000	15,278800
2219,000000	15,259600
2218,000000	15,224500
2217,000000	15,181200
2216,000000	15,176300
2215,000000	15,121300
2214,000000	15,096100
2213,000000	15,065400
2212,000000	15,044600
2211,000000	14,998300
2210,000000	14,969800
2209,000000	14,962500
2208,000000	14,950700
2207,000000	14,937200
2206,000000	14,916900
2205,000000	14,880300
2204,000000	14,885500
2203,000000	14,885300
2202,000000	14,860300
2201,000000	14,842600
2200,000000	14,853300
2199,000000	14,832400
2198,000000	14,833700
2197,000000	14,823900
2196,000000	14,799600
2195,000000	14,806100
2194,000000	14,779200
2193,000000	14,759400
2192,000000	14,754800
2191,000000	14,736300
2190,000000	14,724700
2189,000000	14,713000
2188,000000	14,688900
2187,000000	14,677300
2186,000000	14,670700
2185,000000	14,662600
2184,000000	14,639400
2183,000000	14,621100
2182,000000	14,608400
2181,000000	14,615600
2180,000000	14,602400
2179,000000	14,580900
2178,000000	14,560500
2177,000000	14,536800
2176,000000	14,534000
2175,000000	14,542900
2174,000000	14,554100
2173,000000	14,557900
2172,000000	14,564500
2171,000000	14,570100
2170,000000	14,570000
2169,000000	14,577800
2168,000000	14,599500
2167,000000	14,623100
2166,000000	14,638400
2165,000000	14,671800
2164,000000	14,682800
2163,000000	14,710700
2162,000000	14,735800
2161,000000	14,772500
2160,000000	14,809500
2159,000000	14,868300
2158,000000	14,910500
2157,000000	14,933200
2156,000000	14,980100
2155,000000	15,038000
2154,000000	15,088000
2153,000000	15,141300
2152,000000	15,198200
2151,000000	15,260100
2150,000000	15,323600
2149,000000	15,359100
2148,000000	15,400500
2147,000000	15,453300
2146,000000	15,508300
2145,000000	15,561900
2144,000000	15,603400
2143,000000	15,657400
2142,000000	15,704800
2141,000000	15,744300
2140,000000	15,786700
2139,000000	15,848600
2138,000000	15,892100
2137,000000	15,928300
2136,000000	15,958200
2135,000000	15,981900
2134,000000	16,016300
2133,000000	16,060600
2132,000000	16,087300
2131,000000	16,111900
2130,000000	16,138100
2129,000000	16,159100
2128,000000	16,172500
2127,000000	16,188600
2126,000000	16,204500
2125,000000	16,202500
2124,000000	16,211800
2123,000000	16,225300
2122,000000	16,219000
2121,000000	16,200400
2120,000000	16,193100
2119,000000	16,180900
2118,000000	16,164400
2117,000000	16,156900
2116,000000	16,133600
2115,000000	16,107500
2114,000000	16,082000
2113,000000	16,055800
2112,000000	16,037300
2111,000000	16,017400
2110,000000	15,992500
2109,000000	15,969100
2108,000000	15,940200
2107,000000	15,916200
2106,000000	15,887900
2105,000000	15,863600
2104,000000	15,836800
2103,000000	15,800500
2102,000000	15,783200
2101,000000	15,762700
2100,000000	15,734200
2099,000000	15,694500
2098,000000	15,655300
2097,000000	15,643600
2096,000000	15,634400
2095,000000	15,607300
2094,000000	15,597500
2093,000000	15,595100
2092,000000	15,573700
2091,000000	15,557300
2090,000000	15,542900
2089,000000	15,526300
2088,000000	15,518600
2087,000000	15,498700
2086,000000	15,480900
2085,000000	15,461300
2084,000000	15,436300
2083,000000	15,417800
2082,000000	15,409700
2081,000000	15,381900
2080,000000	15,352800
2079,000000	15,316200
2078,000000	15,280200
2077,000000	15,251100
2076,000000	15,219600
2075,000000	15,188600
2074,000000	15,153500
2073,000000	15,103400
2072,000000	15,058600
2071,000000	15,017400
2070,000000	14,985400
2069,000000	14,951500
2068,000000	14,900000
2067,000000	14,863900
2066,000000	14,820700
2065,000000	14,779900
2064,000000	14,736000
2063,000000	14,705300
2062,000000	14,685600
2061,000000	14,669400
2060,000000	14,660100
2059,000000	14,649200
2058,000000	14,636200
2057,000000	14,640700
2056,000000	14,674100
2055,000000	14,709500
2054,000000	14,753200
2053,000000	14,812200
2052,000000	14,886700
2051,000000	14,970100
2050,000000	15,076600
2049,000000	15,184300
2048,000000	15,304000
2047,000000	15,439900
2046,000000	15,578600
2045,000000	15,743500
2044,000000	15,910600
2043,000000	16,047400
2042,000000	16,228600
2041,000000	16,378600
2040,000000	16,534200
2039,000000	16,693800
2038,000000	16,845100
2037,000000	16,981900
2036,000000	17,131000
2035,000000	17,263600
2034,000000	17,413800
2033,000000	17,541900
2032,000000	17,669400
2031,000000	17,798400
2030,000000	17,896600
2029,000000	17,999600
2028,000000	18,113200
2027,000000	18,223500
2026,000000	18,335700
2025,000000	18,430500
2024,000000	18,517100
2023,000000	18,608700
2022,000000	18,694600
2021,000000	18,773200
2020,000000	18,856300
2019,000000	18,948400
2018,000000	18,996500
2017,000000	19,064400
2016,000000	19,130900
2015,000000	19,194500
2014,000000	19,247200
2013,000000	19,320400
2012,000000	19,340700
2011,000000	19,386400
2010,000000	19,411900
2009,000000	19,435000
2008,000000	19,464000
2007,000000	19,478400
2006,000000	19,493900
2005,000000	19,504000
2004,000000	19,486500
2003,000000	19,497900
2002,000000	19,467900
2001,000000	19,472500
2000,000000	19,452900
1999,000000	19,408300
1998,000000	19,393300
1997,000000	19,373500
1996,000000	19,311200
1995,000000	19,283100
1994,000000	19,231600
1993,000000	19,175500
1992,000000	19,118700
1991,000000	19,071400
1990,000000	18,999700
1989,000000	18,951000
1988,000000	18,902000
1987,000000	18,799500
1986,000000	18,733200
1985,000000	18,658600
1984,000000	18,583500
1983,000000	18,513300
1982,000000	18,438300
1981,000000	18,330400
1980,000000	18,256500
1979,000000	18,192100
1978,000000	18,079900
1977,000000	18,003600
1976,000000	17,935500
1975,000000	17,824000
1974,000000	17,772300
1973,000000	17,657500
1972,000000	17,611200
1971,000000	17,536000
1970,000000	17,452900
1969,000000	17,394700
1968,000000	17,293800
1967,000000	17,229000
1966,000000	17,152200
1965,000000	17,088200
1964,000000	16,999900
1963,000000	16,910000
1962,000000	16,867700
1961,000000	16,778600
1960,000000	16,692900
1959,000000	16,610200
1958,000000	16,541600
1957,000000	16,453400
1956,000000	16,402200
1955,000000	16,306700
1954,000000	16,233300
1953,000000	16,184800
1952,000000	16,086100
1951,000000	16,030600
1950,000000	15,945600
1949,000000	15,873200
1948,000000	15,829600
1947,000000	15,765700
1946,000000	15,717200
1945,000000	15,665300
1944,000000	15,614900
1943,000000	15,587900
1942,000000	15,533300
1941,000000	15,532400
1940,000000	15,530400
1939,000000	15,522400
1938,000000	15,536700
1937,000000	15,549100
1936,000000	15,560600
1935,000000	15,584700
1934,000000	15,608300
1933,000000	15,657500
1932,000000	15,692800
1931,000000	15,773900
1930,000000	15,824000
1929,000000	15,928400
1928,000000	16,054200
1927,000000	16,158200
1926,000000	16,292200
1925,000000	16,433900
1924,000000	16,530300
1923,000000	16,647500
1922,000000	16,800600
1921,000000	17,032100
1920,000000	17,243900
1919,000000	17,464300
1918,000000	17,657000
1917,000000	17,801200
1916,000000	17,932000
1915,000000	18,141700
1914,000000	18,419000
1913,000000	18,743600
1912,000000	19,058900
1911,000000	19,321700
1910,000000	19,572300
1909,000000	19,732500
1908,000000	19,960500
1907,000000	20,254700
1906,000000	20,628000
1905,000000	21,032600
1904,000000	21,420600
1903,000000	21,707500
1902,000000	22,000700
1901,000000	22,308900
1900,000000	22,680800
1899,000000	23,118500
1898,000000	23,503600
1897,000000	23,820100
1896,000000	24,120600
1895,000000	24,359200
1894,000000	24,671900
1893,000000	25,011100
1892,000000	25,414800
1891,000000	25,842800
1890,000000	26,213000
1889,000000	26,543800
1888,000000	26,917100
1887,000000	27,247500
1886,000000	27,633400
1885,000000	28,084500
1884,000000	28,607400
1883,000000	29,144200
1882,000000	29,653500
1881,000000	30,137400
1880,000000	30,629100
1879,000000	31,082500
1878,000000	31,525600
1877,000000	31,960100
1876,000000	32,351200
1875,000000	32,721400
1874,000000	33,054100
1873,000000	33,383800
1872,000000	33,730800
1871,000000	34,039500
1870,000000	34,287100
1869,000000	34,489200
1868,000000	34,672700
1867,000000	34,773100
1866,000000	34,831100
1865,000000	34,893900
1864,000000	34,918000
1863,000000	34,930100
1862,000000	34,979900
1861,000000	35,037300
1860,000000	35,098000
1859,000000	35,147600
1858,000000	35,175100
1857,000000	35,171900
1856,000000	35,123100
1855,000000	35,089100
1854,000000	35,084700
1853,000000	35,039300
1852,000000	34,973900
1851,000000	34,912400
1850,000000	34,816100
1849,000000	34,761800
1848,000000	34,775500
1847,000000	34,803200
1846,000000	34,733600
1845,000000	34,578800
1844,000000	34,451600
1843,000000	34,377000
1842,000000	34,404300
1841,000000	34,456300
1840,000000	34,425800
1839,000000	34,354700
1838,000000	34,272300
1837,000000	34,237000
1836,000000	34,216100
1835,000000	34,159900
1834,000000	34,053000
1833,000000	33,920700
1832,000000	33,809900
1831,000000	33,733800
1830,000000	33,677600
1829,000000	33,600400
1828,000000	33,506500
1827,000000	33,432300
1826,000000	33,376200
1825,000000	33,300200
1824,000000	33,219300
1823,000000	33,146200
1822,000000	33,127800
1821,000000	33,162500
1820,000000	33,178700
1819,000000	33,143200
1818,000000	33,088000
1817,000000	33,054600
1816,000000	33,055900
1815,000000	33,060200
1814,000000	33,053700
1813,000000	33,027600
1812,000000	33,006600
1811,000000	32,989200
1810,000000	32,929100
1809,000000	32,864800
1808,000000	32,821300
1807,000000	32,793100
1806,000000	32,742500
1805,000000	32,676500
1804,000000	32,613300
1803,000000	32,560300
1802,000000	32,514600
1801,000000	32,463200
1800,000000	32,395800
1799,000000	32,317700
1798,000000	32,257400
1797,000000	32,205700
1796,000000	32,147400
1795,000000	32,084800
1794,000000	32,033700
1793,000000	31,963100
1792,000000	31,889600
1791,000000	31,830100
1790,000000	31,764900
1789,000000	31,687100
1788,000000	31,616500
1787,000000	31,535000
1786,000000	31,458000
1785,000000	31,377000
1784,000000	31,268900
1783,000000	31,179000
1782,000000	31,079700
1781,000000	30,978800
1780,000000	30,874700
1779,000000	30,769200
1778,000000	30,652100
1777,000000	30,539100
1776,000000	30,396700
1775,000000	30,257800
1774,000000	30,089300
1773,000000	29,930100
1772,000000	29,762300
1771,000000	29,586700
1770,000000	29,430900
1769,000000	29,266300
1768,000000	29,118800
1767,000000	28,978000
1766,000000	28,844700
1765,000000	28,765300
1764,000000	28,693500
1763,000000	28,661100
1762,000000	28,666100
1761,000000	28,708400
1760,000000	28,756200
1759,000000	28,813600
1758,000000	28,896600
1757,000000	28,954600
1756,000000	28,998300
1755,000000	29,040100
1754,000000	29,051100
1753,000000	29,041800
1752,000000	29,019900
1751,000000	28,973900
1750,000000	28,903300
1749,000000	28,809100
1748,000000	28,719400
1747,000000	28,596800
1746,000000	28,458900
1745,000000	28,294600
1744,000000	28,100500
1743,000000	27,857300
1742,000000	27,609400
1741,000000	27,337000
1740,000000	27,056500
1739,000000	26,775000
1738,000000	26,519000
1737,000000	26,312200
1736,000000	26,123400
1735,000000	25,998600
1734,000000	25,951400
1733,000000	25,948300
1732,000000	26,009000
1731,000000	26,100700
1730,000000	26,204200
1729,000000	26,331100
1728,000000	26,452800
1727,000000	26,592500
1726,000000	26,698700
1725,000000	26,806100
1724,000000	26,867900
1723,000000	26,928800
1722,000000	26,936700
1721,000000	26,982800
1720,000000	27,021600
1719,000000	27,077800
1718,000000	27,139700
1717,000000	27,248700
1716,000000	27,326100
1715,000000	27,430200
1714,000000	27,528000
1713,000000	27,630000
1712,000000	27,714900
1711,000000	27,778900
1710,000000	27,813200
1709,000000	27,831200
1708,000000	27,830100
1707,000000	27,851900
1706,000000	27,805700
1705,000000	27,771700
1704,000000	27,691700
1703,000000	27,616800
1702,000000	27,523400
1701,000000	27,364400
1700,000000	27,192300
1699,000000	27,006800
1698,000000	26,828400
1697,000000	26,712100
1696,000000	26,612300
1695,000000	26,595200
1694,000000	26,642100
1693,000000	26,748300
1692,000000	26,920600
1691,000000	27,122000
1690,000000	27,311300
1689,000000	27,476500
1688,000000	27,543400
1687,000000	27,599700
1686,000000	27,625100
1685,000000	27,670800
1684,000000	27,757500
1683,000000	28,015200
1682,000000	28,393000
1681,000000	28,888700
1680,000000	29,522700
1679,000000	30,208900
1678,000000	30,830400
1677,000000	31,440100
1676,000000	31,970100
1675,000000	32,433300
1674,000000	32,863800
1673,000000	33,216100
1672,000000	33,540600
1671,000000	33,798900
1670,000000	34,020700
1669,000000	34,232700
1668,000000	34,418300
1667,000000	34,617600
1666,000000	34,741100
1665,000000	34,864100
1664,000000	34,967200
1663,000000	35,064100
1662,000000	35,126100
1661,000000	35,194700
1660,000000	35,251100
1659,000000	35,307000
1658,000000	35,341300
1657,000000	35,355500
1656,000000	35,386600
1655,000000	35,385800
1654,000000	35,382500
1653,000000	35,366100
1652,000000	35,351600
1651,000000	35,321500
1650,000000	35,274900
1649,000000	35,238900
1648,000000	35,201200
1647,000000	35,158100
1646,000000	35,096500
1645,000000	35,035500
1644,000000	34,978900
1643,000000	34,931800
1642,000000	34,864700
1641,000000	34,787900
1640,000000	34,719400
1639,000000	34,652600
1638,000000	34,582800
1637,000000	34,495100
1636,000000	34,420000
1635,000000	34,336400
1634,000000	34,249300
1633,000000	34,176200
1632,000000	34,102000
1631,000000	34,011400
1630,000000	33,905900
1629,000000	33,812300
1628,000000	33,715700
1627,000000	33,627000
1626,000000	33,545100
1625,000000	33,463200
1624,000000	33,351700
1623,000000	33,264700
1622,000000	33,181300
1621,000000	33,090900
1620,000000	33,002700
1619,000000	32,925600
1618,000000	32,825500
1617,000000	32,751800
1616,000000	32,686100
1615,000000	32,611700
1614,000000	32,531500
1613,000000	32,449500
1612,000000	32,364500
1611,000000	32,295500
1610,000000	32,235800
1609,000000	32,152300
1608,000000	32,077800
1607,000000	32,011100
1606,000000	31,926800
1605,000000	31,843400
1604,000000	31,770600
1603,000000	31,703900
1602,000000	31,629600
1601,000000	31,560500
1600,000000	31,493000
1599,000000	31,416500
1598,000000	31,342800
1597,000000	31,289700
1596,000000	31,236500
1595,000000	31,176600
1594,000000	31,113500
1593,000000	31,057700
1592,000000	31,005800
1591,000000	30,959800
1590,000000	30,914900
1589,000000	30,879400
1588,000000	30,843400
1587,000000	30,811200
1586,000000	30,789000
1585,000000	30,748600
1584,000000	30,709500
1583,000000	30,701900
1582,000000	30,686500
1581,000000	30,655200
1580,000000	30,639600
1579,000000	30,629400
1578,000000	30,626000
1577,000000	30,637100
1576,000000	30,635600
1575,000000	30,636300
1574,000000	30,644500
1573,000000	30,659800
1572,000000	30,693900
1571,000000	30,719600
1570,000000	30,743100
1569,000000	30,784000
1568,000000	30,813200
1567,000000	30,838300
1566,000000	30,874100
1565,000000	30,910600
1564,000000	30,950700
1563,000000	30,976300
1562,000000	30,989900
1561,000000	31,018400
1560,000000	31,042400
1559,000000	31,059900
1558,000000	31,078100
1557,000000	31,080500
1556,000000	31,093800
1555,000000	31,098400
1554,000000	31,081900
1553,000000	31,068200
1552,000000	31,055800
1551,000000	31,038400
1550,000000	31,018200
1549,000000	30,991600
1548,000000	30,970500
1547,000000	30,942300
1546,000000	30,922800
1545,000000	30,911300
1544,000000	30,900900
1543,000000	30,884700
1542,000000	30,868800
1541,000000	30,845600
1540,000000	30,838800
1539,000000	30,845500
1538,000000	30,835000
1537,000000	30,810200
1536,000000	30,793200
1535,000000	30,794000
1534,000000	30,770500
1533,000000	30,733400
1532,000000	30,726200
1531,000000	30,708800
1530,000000	30,689500
1529,000000	30,659000
1528,000000	30,628700
1527,000000	30,609700
1526,000000	30,572800
1525,000000	30,537500
1524,000000	30,512500
1523,000000	30,482600
1522,000000	30,452400
1521,000000	30,424400
1520,000000	30,386000
1519,000000	30,360200
1518,000000	30,336700
1517,000000	30,292300
1516,000000	30,260400
1515,000000	30,218300
1514,000000	30,188100
1513,000000	30,150600
1512,000000	30,122400
1511,000000	30,093200
1510,000000	30,057400
1509,000000	30,031400
1508,000000	29,992500
1507,000000	29,959900
1506,000000	29,926500
1505,000000	29,898800
1504,000000	29,880900
1503,000000	29,857300
1502,000000	29,830600
1501,000000	29,815900
1500,000000	29,792700
1499,000000	29,782200
1498,000000	29,775100
1497,000000	29,775600
1496,000000	29,766000
1495,000000	29,779700
1494,000000	29,786300
1493,000000	29,808000
1492,000000	29,828800
1491,000000	29,874000
1490,000000	29,891500
1489,000000	29,896700
1488,000000	29,930000
1487,000000	29,973800
1486,000000	30,004600
1485,000000	30,023300
1484,000000	30,048000
1483,000000	30,088800
1482,000000	30,134900
1481,000000	30,181600
1480,000000	30,231800
1479,000000	30,267900
1478,000000	30,324500
1477,000000	30,371300
1476,000000	30,443300
1475,000000	30,494500
1474,000000	30,561900
1473,000000	30,613000
1472,000000	30,699600
1471,000000	30,762200
1470,000000	30,801600
1469,000000	30,848800
1468,000000	30,908000
1467,000000	30,966400
1466,000000	31,022000
1465,000000	31,109200
1464,000000	31,173000
1463,000000	31,243600
1462,000000	31,320300
1461,000000	31,423700
1460,000000	31,511100
1459,000000	31,604600
1458,000000	31,687000
1457,000000	31,796900
1456,000000	31,886000
1455,000000	32,019200
1454,000000	32,111700
1453,000000	32,243300
1452,000000	32,389500
1451,000000	32,525600
1450,000000	32,669400
1449,000000	32,749400
1448,000000	32,877400
1447,000000	33,019200
1446,000000	33,161900
1445,000000	33,326800
1444,000000	33,451100
1443,000000	33,573200
1442,000000	33,729700
1441,000000	33,875800
1440,000000	34,012100
1439,000000	34,154800
1438,000000	34,314600
1437,000000	34,446600
1436,000000	34,585500
1435,000000	34,713000
1434,000000	34,897800
1433,000000	35,062300
1432,000000	35,234600
1431,000000	35,394600
1430,000000	35,527700
1429,000000	35,706600
1428,000000	35,956500
1427,000000	36,151600
1426,000000	36,354100
1425,000000	36,602000
1424,000000	36,881400
1423,000000	37,135000
1422,000000	37,371300
1421,000000	37,618200
1420,000000	37,906800
1419,000000	38,195800
1418,000000	38,446800
1417,000000	38,632200
1416,000000	38,869200
1415,000000	39,158500
1414,000000	39,493000
1413,000000	39,705600
1412,000000	39,904000
1411,000000	40,151400
1410,000000	40,489400
1409,000000	40,888700
1408,000000	41,238500
1407,000000	41,641200
1406,000000	42,024500
1405,000000	42,441800
1404,000000	42,826100
1403,000000	43,228100
1402,000000	43,552600
1401,000000	44,024500
1400,000000	44,499000
1399,000000	44,760600
1398,000000	44,902700
1397,000000	45,116200
1396,000000	45,411200
1395,000000	45,683900
1394,000000	45,803900
1393,000000	45,896400
1392,000000	46,104000
1391,000000	46,269700
1390,000000	46,402700
1389,000000	46,613500
1388,000000	46,933700
1387,000000	47,165900
1386,000000	47,429300
1385,000000	47,765900
1384,000000	48,176000
1383,000000	48,511200
1382,000000	48,821000
1381,000000	49,060200
1380,000000	49,117400
1379,000000	49,245100
1378,000000	49,274500
1377,000000	49,341100
1376,000000	49,427000
1375,000000	49,598500
1374,000000	49,819400
1373,000000	50,088600
1372,000000	50,411400
1371,000000	50,752700
1370,000000	51,031600
1369,000000	51,296400
1368,000000	51,597500
1367,000000	51,798700
1366,000000	51,956500
1365,000000	52,189700
1364,000000	52,328900
1363,000000	52,422300
1362,000000	52,588500
1361,000000	52,728900
1360,000000	52,744600
1359,000000	52,764200
1358,000000	52,823700
1357,000000	52,954300
1356,000000	53,178900
1355,000000	53,548600
1354,000000	53,991300
1353,000000	54,426100
1352,000000	54,908800
1351,000000	55,393300
1350,000000	55,847500
1349,000000	56,240000
1348,000000	56,622300
1347,000000	56,970700
1346,000000	57,272000
1345,000000	57,543500
1344,000000	57,872900
1343,000000	58,129000
1342,000000	58,374400
1341,000000	58,649000
1340,000000	58,883300
1339,000000	59,090200
1338,000000	59,307700
1337,000000	59,527100
1336,000000	59,715300
1335,000000	59,881700
1334,000000	60,058700
1333,000000	60,242700
1332,000000	60,411800
1331,000000	60,552200
1330,000000	60,692700
1329,000000	60,829200
1328,000000	60,953700
1327,000000	61,079500
1326,000000	61,188800
1325,000000	61,304000
1324,000000	61,402300
1323,000000	61,507300
1322,000000	61,586300
1321,000000	61,652700
1320,000000	61,727500
1319,000000	61,808100
1318,000000	61,877800
1317,000000	61,945200
1316,000000	62,014600
1315,000000	62,063500
1314,000000	62,117500
1313,000000	62,169600
1312,000000	62,210800
1311,000000	62,262100
1310,000000	62,301800
1309,000000	62,322100
1308,000000	62,350100
1307,000000	62,372600
1306,000000	62,375700
1305,000000	62,368900
1304,000000	62,370400
1303,000000	62,365900
1302,000000	62,353500
1301,000000	62,353100
1300,000000	62,338700
1299,000000	62,314900
1298,000000	62,287600
1297,000000	62,261200
1296,000000	62,243900
1295,000000	62,212900
1294,000000	62,173600
1293,000000	62,131800
1292,000000	62,094400
1291,000000	62,062500
1290,000000	62,013800
1289,000000	61,953800
1288,000000	61,906600
1287,000000	61,847700
1286,000000	61,771100
1285,000000	61,702400
1284,000000	61,631800
1283,000000	61,558600
1282,000000	61,498200
1281,000000	61,426200
1280,000000	61,350500
1279,000000	61,277400
1278,000000	61,209100
1277,000000	61,145900
1276,000000	61,098000
1275,000000	61,048700
1274,000000	60,993300
1273,000000	60,949300
1272,000000	60,915200
1271,000000	60,861600
1270,000000	60,805800
1269,000000	60,778300
1268,000000	60,731200
1267,000000	60,674800
1266,000000	60,639000
1265,000000	60,590400
1264,000000	60,548600
1263,000000	60,509200
1262,000000	60,453600
1261,000000	60,417500
1260,000000	60,383300
1259,000000	60,353900
1258,000000	60,310400
1257,000000	60,256000
1256,000000	60,209300
1255,000000	60,164700
1254,000000	60,121600
1253,000000	60,071400
1252,000000	60,012100
1251,000000	59,961300
1250,000000	59,888700
1249,000000	59,806000
1248,000000	59,737500
1247,000000	59,653500
1246,000000	59,576200
1245,000000	59,479700
1244,000000	59,361200
1243,000000	59,238100
1242,000000	59,130100
1241,000000	59,013300
1240,000000	58,889700
1239,000000	58,735100
1238,000000	58,604100
1237,000000	58,471400
1236,000000	58,328600
1235,000000	58,189300
1234,000000	58,036000
1233,000000	57,893500
1232,000000	57,746800
1231,000000	57,594800
1230,000000	57,434800
1229,000000	57,284800
1228,000000	57,120500
1227,000000	56,966000
1226,000000	56,809200
1225,000000	56,643200
1224,000000	56,488300
1223,000000	56,345800
1222,000000	56,186000
1221,000000	56,047300
1220,000000	55,910100
1219,000000	55,769700
1218,000000	55,642200
1217,000000	55,512500
1216,000000	55,368700
1215,000000	55,266100
1214,000000	55,157800
1213,000000	55,020100
1212,000000	54,934400
1211,000000	54,832100
1210,000000	54,735500
1209,000000	54,635100
1208,000000	54,557700
1207,000000	54,492400
1206,000000	54,441800
1205,000000	54,398400
1204,000000	54,372800
1203,000000	54,334700
1202,000000	54,311800
1201,000000	54,272100
1200,000000	54,237500
1199,000000	54,154900
1198,000000	54,057800
1197,000000	53,925600
1196,000000	53,779400
1195,000000	53,553200
1194,000000	53,276800
1193,000000	52,953100
1192,000000	52,576300
1191,000000	52,184500
1190,000000	51,782000
1189,000000	51,426300
1188,000000	51,151100
1187,000000	51,011900
1186,000000	50,959200
1185,000000	51,000600
1184,000000	51,178600
1183,000000	51,454300
1182,000000	51,830300
1181,000000	52,255400
1180,000000	52,687700
1179,000000	53,085800
1178,000000	53,439900
1177,000000	53,748300
1176,000000	53,983400
1175,000000	54,249100
1174,000000	54,467300
1173,000000	54,711300
1172,000000	54,977000
1171,000000	55,242000
1170,000000	55,524300
1169,000000	55,783700
1168,000000	56,075200
1167,000000	56,331000
1166,000000	56,612100
1165,000000	56,884900
1164,000000	57,190100
1163,000000	57,468900
1162,000000	57,766200
1161,000000	58,029900
1160,000000	58,289900
1159,000000	58,547600
1158,000000	58,777900
1157,000000	58,998300
1156,000000	59,196000
1155,000000	59,325700
1154,000000	59,425300
1153,000000	59,472000
1152,000000	59,480400
1151,000000	59,450700
1150,000000	59,436400
1149,000000	59,415000
1148,000000	59,393100
1147,000000	59,409900
1146,000000	59,486100
1145,000000	59,604900
1144,000000	59,767000
1143,000000	59,965100
1142,000000	60,192400
1141,000000	60,426100
1140,000000	60,662700
1139,000000	60,903500
1138,000000	61,161300
1137,000000	61,427100
1136,000000	61,700600
1135,000000	61,956200
1134,000000	62,213100
1133,000000	62,381500
1132,000000	62,558200
1131,000000	62,760500
1130,000000	62,899700
1129,000000	63,043300
1128,000000	63,135400
1127,000000	63,208600
1126,000000	63,286900
1125,000000	63,331200
1124,000000	63,360200
1123,000000	63,396100
1122,000000	63,440200
1121,000000	63,420100
1120,000000	63,430400
1119,000000	63,423300
1118,000000	63,407300
1117,000000	63,395700
1116,000000	63,342900
1115,000000	63,318500
1114,000000	63,270200
1113,000000	63,236500
1112,000000	63,192900
1111,000000	63,152700
1110,000000	63,096800
1109,000000	63,042700
1108,000000	63,002700
1107,000000	62,935200
1106,000000	62,899600
1105,000000	62,850900
1104,000000	62,801800
1103,000000	62,722800
1102,000000	62,664200
1101,000000	62,611100
1100,000000	62,549100
1099,000000	62,481200
1098,000000	62,416700
1097,000000	62,360300
1096,000000	62,291000
1095,000000	62,235100
1094,000000	62,149200
1093,000000	62,077700
1092,000000	62,026300
1091,000000	61,974700
1090,000000	61,911400
1089,000000	61,824100
1088,000000	61,765000
1087,000000	61,704600
1086,000000	61,627400
1085,000000	61,561900
1084,000000	61,517700
1083,000000	61,455500
1082,000000	61,403600
1081,000000	61,342000
1080,000000	61,270700
1079,000000	61,214800
1078,000000	61,176100
1077,000000	61,118300
1076,000000	61,062600
1075,000000	61,009500
1074,000000	60,951900
1073,000000	60,913200
1072,000000	60,854900
1071,000000	60,796700
1070,000000	60,739000
1069,000000	60,674600
1068,000000	60,612800
1067,000000	60,549300
1066,000000	60,481700
1065,000000	60,422100
1064,000000	60,370800
1063,000000	60,304500
1062,000000	60,232600
1061,000000	60,161500
1060,000000	60,087300
1059,000000	60,020900
1058,000000	59,943800
1057,000000	59,865500
1056,000000	59,789200
1055,000000	59,702600
1054,000000	59,598300
1053,000000	59,495900
1052,000000	59,424200
1051,000000	59,350600
1050,000000	59,272700
1049,000000	59,179100
1048,000000	59,082500
1047,000000	59,007600
1046,000000	58,932800
1045,000000	58,851300
1044,000000	58,763200
1043,000000	58,682000
1042,000000	58,603500
1041,000000	58,530600
1040,000000	58,449200
1039,000000	58,366000
1038,000000	58,284200
1037,000000	58,197700
1036,000000	58,111400
1035,000000	58,042200
1034,000000	57,971500
1033,000000	57,886900
1032,000000	57,798200
1031,000000	57,721900
1030,000000	57,645900
1029,000000	57,568600
1028,000000	57,490400
1027,000000	57,422600
1026,000000	57,332500
1025,000000	57,248100
1024,000000	57,161200
1023,000000	57,086300
1022,000000	57,029300
1021,000000	56,946900
1020,000000	56,867300
1019,000000	56,791500
1018,000000	56,717000
1017,000000	56,656400
1016,000000	56,600000
1015,000000	56,536000
1014,000000	56,463600
1013,000000	56,396200
1012,000000	56,350200
1011,000000	56,319400
1010,000000	56,291000
1009,000000	56,253000
1008,000000	56,223000
1007,000000	56,182900
1006,000000	56,142100
1005,000000	56,112600
1004,000000	56,096000
1003,000000	56,058700
1002,000000	56,008100
1001,000000	55,975700
1000,000000	55,964500
999,000000	55,936500
998,000000	55,910300
997,000000	55,863300
996,000000	55,818600
995,000000	55,799600
994,000000	55,795300
993,000000	55,747100
992,000000	55,716100
991,000000	55,703200
990,000000	55,676400
989,000000	55,645100
988,000000	55,620600
987,000000	55,588400
986,000000	55,564500
985,000000	55,555300
984,000000	55,525500
983,000000	55,501700
982,000000	55,469100
981,000000	55,449700
980,000000	55,435400
979,000000	55,407600
978,000000	55,376800
977,000000	55,358000
976,000000	55,331000
975,000000	55,308000
974,000000	55,279300
973,000000	55,251000
972,000000	55,243500
971,000000	55,218200
970,000000	55,173900
969,000000	55,142100
968,000000	55,136000
967,000000	55,112100
966,000000	55,089000
965,000000	55,064400
964,000000	55,041900
963,000000	55,048200
962,000000	55,057500
961,000000	55,024900
960,000000	55,010700
959,000000	55,012100
958,000000	55,033000
957,000000	55,063100
956,000000	55,036100
955,000000	55,014600
954,000000	55,015200
953,000000	55,046000
952,000000	55,052500
951,000000	55,059300
950,000000	55,101800
949,000000	55,106800
948,000000	55,119200
947,000000	55,167000
946,000000	55,172000
945,000000	55,228200
944,000000	55,243800
943,000000	55,280700
942,000000	55,305300
941,000000	55,350200
940,000000	55,391900
939,000000	55,423200
938,000000	55,499000
937,000000	55,512200
936,000000	55,559100
935,000000	55,606600
934,000000	55,643700
933,000000	55,731600
932,000000	55,773200
931,000000	55,813100
930,000000	55,874800
929,000000	55,889300
928,000000	55,930900
927,000000	56,005200
926,000000	56,035600
925,000000	56,040000
924,000000	56,064000
923,000000	56,092300
922,000000	56,147700
921,000000	56,218900
920,000000	56,221900
919,000000	56,235200
918,000000	56,258400
917,000000	56,279300
916,000000	56,330900
915,000000	56,334000
914,000000	56,372200
913,000000	56,427200
912,000000	56,471000
911,000000	56,600600
910,000000	56,623300
909,000000	56,665700
908,000000	56,704100
907,000000	56,776900
906,000000	56,950200
905,000000	57,007600
904,000000	57,091500
903,000000	57,201800
902,000000	57,315100
901,000000	57,438300
900,000000	57,537900
899,000000	57,640500
898,000000	57,744600
897,000000	57,843300
896,000000	57,930700
895,000000	57,966800
894,000000	58,074700
893,000000	58,147800
892,000000	58,221100
891,000000	58,253500
890,000000	58,314000
889,000000	58,345300
888,000000	58,377900
887,000000	58,310400
886,000000	58,332200
885,000000	58,351300
884,000000	58,348400
883,000000	58,364500
882,000000	58,327300
881,000000	58,223800
880,000000	58,202900
879,000000	58,169900
878,000000	58,053600
877,000000	58,078600
876,000000	58,081000
875,000000	57,985300
874,000000	57,867500
873,000000	57,840200
872,000000	57,738100
871,000000	57,699200
870,000000	57,694900
869,000000	57,631000
868,000000	57,631300
867,000000	57,572700
866,000000	57,590500
865,000000	57,552800
864,000000	57,575600
863,000000	57,566900
862,000000	57,624300
861,000000	57,571300
860,000000	57,611800
859,000000	57,638700
858,000000	58,990400
857,000000	66,608400
856,000000	67,129100
855,000000	67,257900
854,000000	68,032100
853,000000	68,250600
852,000000	68,240400
851,000000	68,826300
850,000000	69,244000
849,000000	69,511900
848,000000	70,115200
847,000000	70,333600
846,000000	70,905300
845,000000	71,029200
844,000000	71,378800
843,000000	71,835200
842,000000	72,262700
841,000000	72,590600
840,000000	72,728900
839,000000	73,362800
838,000000	73,694900
837,000000	74,085500
836,000000	74,352900
835,000000	74,731300
834,000000	74,924400
833,000000	74,964300
832,000000	75,377300
831,000000	75,670400
830,000000	75,876500
829,000000	76,129600
828,000000	76,266800
827,000000	76,284300
826,000000	76,496900
825,000000	76,626000
824,000000	76,616500
823,000000	76,615100
822,000000	76,650300
821,000000	76,804200
820,000000	76,823600
819,000000	76,841700
818,000000	76,859900
817,000000	76,995700
816,000000	77,167600
815,000000	77,135700
814,000000	77,145900
813,000000	77,411400
812,000000	77,421600
811,000000	77,434400
810,000000	77,752400
809,000000	77,894400
808,000000	78,010800
807,000000	78,178600
806,000000	78,210400
805,000000	78,335100
804,000000	78,566300
803,000000	78,947500
802,000000	79,028400
801,000000	79,159100
800,000000	79,493500
799,000000	79,583100
798,000000	79,695300
797,000000	79,776400
796,000000	79,884400
795,000000	80,060100
794,000000	80,192800
793,000000	80,233600
792,000000	80,270400
791,000000	80,319500
790,000000	80,341000
789,000000	80,383200
788,000000	80,396400
787,000000	80,361700
786,000000	80,325200
785,000000	80,328800
784,000000	80,360400
783,000000	80,333100
782,000000	80,275000
781,000000	80,240600
780,000000	80,247100
779,000000	80,219900
778,000000	80,155100
777,000000	80,107000
776,000000	80,045400
775,000000	80,020100
774,000000	79,954500
773,000000	79,923500
772,000000	79,979100
771,000000	80,076600
770,000000	80,102800
769,000000	80,147000
768,000000	80,181900
767,000000	80,210200
766,000000	80,286500
765,000000	80,308300
764,000000	80,410000
763,000000	80,511800
762,000000	80,583800
761,000000	80,650800
760,000000	80,756400
759,000000	80,789600
758,000000	80,758100
757,000000	80,807700
756,000000	80,822000
755,000000	80,845300
754,000000	80,862600
753,000000	80,787300
752,000000	80,791800
751,000000	80,816900
750,000000	80,764200
749,000000	80,680000
748,000000	80,560500
747,000000	80,427600
746,000000	80,228700
745,000000	80,021200
744,000000	79,802000
743,000000	79,588100
742,000000	79,353300
741,000000	79,072400
740,000000	78,718700
739,000000	78,334400
738,000000	77,979900
737,000000	77,601900
736,000000	77,235900
735,000000	76,848600
734,000000	76,421500
733,000000	76,009900
732,000000	75,623500
731,000000	75,166700
730,000000	74,714000
729,000000	74,357200
728,000000	73,911500
727,000000	73,484500
726,000000	73,094600
725,000000	72,757400
724,000000	72,401000
723,000000	72,008600
722,000000	71,676100
721,000000	71,341700
720,000000	70,990800
719,000000	70,640100
718,000000	70,314700
717,000000	70,075500
716,000000	69,834200
715,000000	69,551200
714,000000	69,332500
713,000000	69,142500
712,000000	68,978800
711,000000	68,866400
710,000000	68,755700
709,000000	68,616800
708,000000	68,493300
707,000000	68,422100
706,000000	68,383800
705,000000	68,343900
704,000000	68,284300
703,000000	68,247600
702,000000	68,226600
701,000000	68,162300
700,000000	68,126800
699,000000	68,066800
698,000000	67,972400
697,000000	67,993500
696,000000	67,949000
695,000000	67,894200
694,000000	67,915900
693,000000	67,898200
692,000000	67,832400
691,000000	67,713900
690,000000	67,649200
689,000000	67,600900
688,000000	67,531300
687,000000	67,477200
686,000000	67,418900
685,000000	67,364000
684,000000	67,276000
683,000000	67,130100
682,000000	67,000600
681,000000	66,832100
680,000000	66,675900
679,000000	66,547100
678,000000	66,374600
677,000000	66,244300
676,000000	66,053900
675,000000	65,874700
674,000000	65,643800
673,000000	65,410500
672,000000	65,163300
671,000000	64,923500
670,000000	64,672900
669,000000	64,412400
668,000000	64,086500
667,000000	63,801400
666,000000	63,472100
665,000000	63,146900
664,000000	62,803000
663,000000	62,447000
662,000000	62,069100
661,000000	61,734000
660,000000	61,308100
659,000000	60,881000
658,000000	60,407900
657,000000	59,964200
656,000000	59,511600
655,000000	59,001100
654,000000	58,487600
653,000000	57,931500
652,000000	57,414300
651,000000	56,811000
650,000000	56,271300
649,000000	55,725500
648,000000	55,166100
647,000000	54,668100
646,000000	54,183800
645,000000	53,671800
644,000000	53,219000
643,000000	52,804600
642,000000	52,408600
641,000000	52,065600
640,000000	51,734300
639,000000	51,489800
638,000000	51,308700
637,000000	51,113900
636,000000	51,004600
635,000000	50,989100
634,000000	51,007300
633,000000	51,102100
632,000000	51,231400
631,000000	51,406600
630,000000	51,607600
629,000000	51,855700
628,000000	52,230600
627,000000	52,546900
626,000000	52,904800
625,000000	53,341100
624,000000	53,766400
623,000000	54,226700
622,000000	54,738200
621,000000	55,267800
620,000000	55,834700
619,000000	56,369800
618,000000	56,973700
617,000000	57,534400
616,000000	58,160100
615,000000	58,722200
614,000000	59,393500
613,000000	60,062100
612,000000	60,686800
611,000000	61,326800
610,000000	61,964900
609,000000	62,593300
608,000000	63,198300
607,000000	63,863100
606,000000	64,427000
605,000000	64,951500
604,000000	65,513400
603,000000	66,070000
602,000000	66,571600
601,000000	66,993800
600,000000	67,493500
599,000000	67,939900
598,000000	68,416800
597,000000	68,854000
596,000000	69,297400
595,000000	69,705600
594,000000	70,141200
593,000000	70,571600
592,000000	70,999200
591,000000	71,457000
590,000000	71,800000
589,000000	72,213600
588,000000	72,611300
587,000000	72,962300
586,000000	73,253000
585,000000	73,555300
584,000000	73,908200
583,000000	74,181700
582,000000	74,446200
581,000000	74,662200
580,000000	74,872400
579,000000	75,011300
578,000000	75,256600
577,000000	75,403700
576,000000	75,512900
575,000000	75,608600
574,000000	75,711500
573,000000	75,761100
572,000000	75,784100
571,000000	75,847200
570,000000	75,874000
569,000000	75,938100
568,000000	75,872300
567,000000	75,895200
566,000000	75,844200
565,000000	75,783900
564,000000	75,710000
563,000000	75,615700
562,000000	75,483100
561,000000	75,339900
560,000000	75,171400
559,000000	75,203200
558,000000	75,033200
557,000000	74,802500
556,000000	74,580400
555,000000	74,345700
554,000000	74,083800
553,000000	73,865300
552,000000	73,560300
551,000000	73,326700
550,000000	73,058200
549,000000	72,786700
548,000000	72,515500
547,000000	72,182100
546,000000	71,859700
545,000000	71,516100
544,000000	71,152400
543,000000	70,747900
542,000000	70,351900
541,000000	69,877000
540,000000	69,402100
539,000000	68,920800
538,000000	68,433400
537,000000	67,948200
536,000000	67,407200
535,000000	66,863900
534,000000	66,271100
533,000000	65,670400
532,000000	65,080200
531,000000	64,430500
530,000000	63,762200
529,000000	63,078700
528,000000	62,327300
527,000000	61,565700
526,000000	60,769300
525,000000	59,969200
524,000000	59,110500
523,000000	58,216400
522,000000	57,282300
521,000000	56,321100
520,000000	55,333100
519,000000	54,323500
518,000000	53,280700
517,000000	52,216600
516,000000	51,166600
515,000000	50,089300
514,000000	49,010900
513,000000	47,916400
512,000000	46,832900
511,000000	45,777300
510,000000	44,701000
509,000000	43,671200
508,000000	42,676500
507,000000	41,661300
506,000000	40,683600
505,000000	39,753900
504,000000	38,840400
503,000000	37,940100
502,000000	37,105500
501,000000	36,313400
500,000000	35,568000
499,000000	34,868900
498,000000	34,253800
497,000000	33,709900
496,000000	33,204000
495,000000	32,742300
494,000000	32,329900
493,000000	31,953800
492,000000	31,623600
491,000000	31,303700
490,000000	31,026600
489,000000	30,770900
488,000000	30,508500
487,000000	30,274000
486,000000	30,041300
485,000000	29,808300
484,000000	29,572600
483,000000	29,332600
482,000000	29,085600
481,000000	28,833100
480,000000	28,554100
479,000000	28,261300
478,000000	27,962300
477,000000	27,647600
476,000000	27,308800
475,000000	26,963900
474,000000	26,598100
473,000000	26,212400
472,000000	25,814100
471,000000	25,408500
470,000000	24,988500
469,000000	24,551200
468,000000	24,114600
467,000000	23,666400
466,000000	23,228500
465,000000	22,804600
464,000000	22,385200
463,000000	21,950400
462,000000	21,542300
461,000000	21,151300
460,000000	20,785200
459,000000	20,454100
458,000000	20,136800
457,000000	19,835200
456,000000	19,566300
455,000000	19,334700
454,000000	19,113500
453,000000	18,913100
452,000000	18,747700
451,000000	18,616900
450,000000	18,522000
449,000000	18,438300
448,000000	18,366100
447,000000	18,332800
446,000000	18,335000
445,000000	18,332500
444,000000	18,340700
443,000000	18,354100
442,000000	18,378600
441,000000	18,412100
440,000000	18,453500
439,000000	18,500700
438,000000	18,544800
437,000000	18,588200
436,000000	18,621800
435,000000	18,653600
434,000000	18,687900
433,000000	18,709300
432,000000	18,744900
431,000000	18,770800
430,000000	18,784100
429,000000	18,786800
428,000000	18,765600
427,000000	18,752100
426,000000	18,713800
425,000000	18,680400
424,000000	18,652000
423,000000	18,589200
422,000000	18,510200
421,000000	18,415800
420,000000	18,332300
419,000000	18,247500
418,000000	18,129400
417,000000	17,998400
416,000000	17,863100
415,000000	17,733700
414,000000	17,594200
413,000000	17,432400
412,000000	17,258100
411,000000	17,080600
410,000000	16,879900
409,000000	16,670100
408,000000	16,479600
407,000000	16,252500
406,000000	16,022100
405,000000	15,801400
404,000000	15,555600
403,000000	15,304900
402,000000	15,043400
401,000000	14,781100
400,000000	14,501300
399,000000	14,217300
398,000000	13,949200
397,000000	13,670000
396,000000	13,371900
395,000000	13,085900
394,000000	12,790200
393,000000	12,483400
392,000000	12,183600
391,000000	11,883100
390,000000	11,596400
389,000000	11,290800
388,000000	10,999600
387,000000	10,725000
386,000000	10,454900
385,000000	10,179400
384,000000	9,922400
383,000000	9,654900
382,000000	9,401300
381,000000	9,151700
380,000000	8,916400
379,000000	8,685500
378,000000	8,467500
377,000000	8,258000
376,000000	8,299400
375,000000	8,000800
374,000000	7,695800
373,000000	7,693200
372,000000	7,515600
371,000000	7,281300
370,000000	7,199000
369,000000	7,169400
368,000000	7,034400
367,000000	6,905500
366,000000	6,730800
365,000000	6,604600
364,000000	6,507300
363,000000	6,439000
362,000000	6,394100
361,000000	6,277500
360,000000	6,191000
359,000000	6,117400
358,000000	6,006600
357,000000	5,922500
356,000000	5,925800
355,000000	5,815800
354,000000	5,753000
353,000000	5,635100
352,000000	5,561400
351,000000	5,566900
350,000000	5,453500
349,000000	5,470400
348,000000	5,408400
347,000000	5,314700
346,000000	5,361900
345,000000	5,419300
344,000000	5,381000
343,000000	5,428700
342,000000	5,346900
341,000000	5,337100
340,000000	5,441400
339,000000	5,404100
338,000000	5,331000
337,000000	5,442100
336,000000	5,436800
335,000000	5,408200
334,000000	5,339400
333,000000	5,347700
332,000000	5,548200
331,000000	5,368400
330,000000	5,286800
329,000000	5,317200
328,000000	5,276900
327,000000	5,450300
326,000000	5,245000
325,000000	5,430800
324,000000	5,321800
323,000000	5,523300
322,000000	5,261300
321,000000	5,562000
320,000000	5,549800
319,000000	5,379000
318,000000	5,397200
317,000000	5,345100
316,000000	5,199200
315,000000	5,163500
314,000000	5,150800
313,000000	5,162300
312,000000	5,176900
311,000000	5,162400
310,000000	5,142500
309,000000	5,162900
308,000000	5,142300
307,000000	5,183500
306,000000	5,154300
305,000000	5,180400
304,000000	5,146300
303,000000	5,180900
302,000000	5,198400
301,000000	5,201100
300,000000	5,227400
299,000000	5,204900
298,000000	5,193500
297,000000	5,249000
296,000000	5,241300
295,000000	5,228300
294,000000	5,255800
293,000000	5,262800
292,000000	5,236700
291,000000	5,244700
290,000000	5,196900
289,000000	5,328600
288,000000	5,281700
287,000000	5,214900
286,000000	5,260900
285,000000	5,259200
284,000000	5,272000
283,000000	5,317800
282,000000	5,249500
281,000000	5,293200
280,000000	5,294100
279,000000	5,250100
278,000000	5,270500
277,000000	5,305400
276,000000	5,277200
275,000000	5,333100
274,000000	5,286800
273,000000	5,317900
272,000000	5,309200
271,000000	5,400200
270,000000	5,322300
269,000000	5,324000
268,000000	5,349300
267,000000	5,411200
266,000000	5,405200
265,000000	5,437500
264,000000	5,428800
263,000000	5,437100
262,000000	5,500500
261,000000	5,501400
260,000000	5,513300
259,000000	5,521000
258,000000	5,496100
257,000000	5,576300
256,000000	5,546900
255,000000	5,522400
254,000000	5,614600
253,000000	5,574700
252,000000	5,571800
251,000000	5,590800
250,000000	5,618600
