PE UV       SUBTECH     SPECTRUM    ASCII       PEDS        4.00        
   -1
CICIMAUCR0012-2.Sample.ASC
24/04/11
16:25:16.00
24/04/11
16:25:16.00
Vinicio Soto Monge
C. cupreomarginata
250,000000
1
Lambda 1050
1050L1511233
PerkinElmer UV WinLab 6.3.2.0749 / 2.02.05 Lambda 900 UV/VIS/NIR, Aug  7 2015 09:38:08

0
0
3350/2 860,8/2
0
0
UV/VIS
1
1
1
DoubleDePol,CommonBeamDepol,RBeamAtt,SBeamAtt,60mm sphere, WB InGaAs Detector
0
0
0
0
Program
Program
3350/2 860,8/2
3350/0,2 860,8/0,2
3350/0,2 860,8/0,2
0
15.00
 
 
 
0
 
860,8
319,2
860,8
Front
100
on
S:100 R:100
0
0
0
0
 
0
 
 
 
0
 
 
0
0
0
0
0
 
 
 
 
0
0


0
0
#HDR
-1
-1
#GR
nm
%R
1.0
0.0
2400,000000
-1,000000
2151
8
58,508600
4,497300
#DATA
2400,000000	12,925000
2399,000000	13,470000
2398,000000	13,809500
2397,000000	12,997600
2396,000000	13,744700
2395,000000	14,488600
2394,000000	13,884800
2393,000000	14,244700
2392,000000	13,197800
2391,000000	13,359800
2390,000000	13,245300
2389,000000	13,099100
2388,000000	13,381300
2387,000000	14,543300
2386,000000	13,965800
2385,000000	13,653900
2384,000000	13,166000
2383,000000	13,594700
2382,000000	13,821700
2381,000000	14,151200
2380,000000	13,572300
2379,000000	13,547100
2378,000000	13,188600
2377,000000	12,675200
2376,000000	13,493600
2375,000000	14,104200
2374,000000	13,423800
2373,000000	13,348200
2372,000000	13,348800
2371,000000	13,092300
2370,000000	13,081100
2369,000000	13,291200
2368,000000	13,284300
2367,000000	13,144300
2366,000000	12,932500
2365,000000	13,332800
2364,000000	11,782100
2363,000000	12,673800
2362,000000	12,117400
2361,000000	12,563900
2360,000000	13,633300
2359,000000	13,328000
2358,000000	12,491500
2357,000000	11,555500
2356,000000	11,955900
2355,000000	12,709500
2354,000000	11,814100
2353,000000	12,080300
2352,000000	12,540600
2351,000000	12,610200
2350,000000	12,250200
2349,000000	12,521000
2348,000000	12,394900
2347,000000	11,733400
2346,000000	12,920400
2345,000000	12,533100
2344,000000	12,602400
2343,000000	12,594100
2342,000000	12,178700
2341,000000	12,180600
2340,000000	12,072700
2339,000000	12,387400
2338,000000	11,986400
2337,000000	12,615300
2336,000000	12,512500
2335,000000	13,012200
2334,000000	12,292100
2333,000000	11,326500
2332,000000	11,811600
2331,000000	12,055600
2330,000000	12,348200
2329,000000	12,905200
2328,000000	12,433200
2327,000000	12,037700
2326,000000	11,989900
2325,000000	11,985900
2324,000000	11,582600
2323,000000	12,032500
2322,000000	11,942200
2321,000000	11,649300
2320,000000	11,569000
2319,000000	11,682100
2318,000000	11,627200
2317,000000	11,132300
2316,000000	10,943400
2315,000000	11,232100
2314,000000	11,531000
2313,000000	11,026600
2312,000000	10,717400
2311,000000	10,715200
2310,000000	10,250900
2309,000000	10,198100
2308,000000	10,655100
2307,000000	10,560700
2306,000000	10,465800
2305,000000	10,561600
2304,000000	10,509700
2303,000000	10,621900
2302,000000	10,073900
2301,000000	10,138700
2300,000000	10,673700
2299,000000	10,642900
2298,000000	10,811300
2297,000000	11,175800
2296,000000	11,075700
2295,000000	10,673300
2294,000000	10,572400
2293,000000	11,070600
2292,000000	11,281100
2291,000000	10,986400
2290,000000	10,971900
2289,000000	11,010900
2288,000000	11,030400
2287,000000	11,031900
2286,000000	10,931500
2285,000000	10,826200
2284,000000	10,848600
2283,000000	10,787900
2282,000000	10,601900
2281,000000	10,760400
2280,000000	10,929800
2279,000000	10,543200
2278,000000	10,450800
2277,000000	10,840500
2276,000000	10,592600
2275,000000	10,189600
2274,000000	10,139500
2273,000000	10,029400
2272,000000	9,796000
2271,000000	9,987200
2270,000000	10,321300
2269,000000	10,415500
2268,000000	10,433500
2267,000000	10,499000
2266,000000	10,468800
2265,000000	10,454300
2264,000000	10,640800
2263,000000	10,742600
2262,000000	10,660700
2261,000000	10,865700
2260,000000	11,313500
2259,000000	11,567200
2258,000000	11,621700
2257,000000	12,082000
2256,000000	12,276600
2255,000000	12,216400
2254,000000	12,605300
2253,000000	12,746900
2252,000000	12,702700
2251,000000	12,686500
2250,000000	13,103000
2249,000000	13,346700
2248,000000	13,762100
2247,000000	14,154800
2246,000000	13,995300
2245,000000	14,010000
2244,000000	14,000700
2243,000000	13,947500
2242,000000	14,332800
2241,000000	14,513700
2240,000000	14,606400
2239,000000	14,638800
2238,000000	14,739100
2237,000000	14,649300
2236,000000	14,925300
2235,000000	15,198000
2234,000000	15,060200
2233,000000	15,226400
2232,000000	14,996500
2231,000000	15,117600
2230,000000	14,848900
2229,000000	14,955300
2228,000000	15,156100
2227,000000	14,970600
2226,000000	15,378300
2225,000000	15,429700
2224,000000	15,214500
2223,000000	15,341900
2222,000000	15,235500
2221,000000	14,978500
2220,000000	15,096900
2219,000000	15,044100
2218,000000	14,986700
2217,000000	14,668800
2216,000000	14,768500
2215,000000	14,928200
2214,000000	14,811400
2213,000000	15,156200
2212,000000	14,807000
2211,000000	14,979000
2210,000000	15,127200
2209,000000	14,866400
2208,000000	14,786800
2207,000000	14,902200
2206,000000	14,758000
2205,000000	14,859100
2204,000000	14,426000
2203,000000	14,104200
2202,000000	14,515500
2201,000000	14,566700
2200,000000	14,593000
2199,000000	14,433600
2198,000000	14,457400
2197,000000	14,675800
2196,000000	14,830300
2195,000000	14,466100
2194,000000	14,396100
2193,000000	14,594100
2192,000000	14,689600
2191,000000	14,505700
2190,000000	14,415400
2189,000000	14,526600
2188,000000	14,631600
2187,000000	14,678400
2186,000000	14,623100
2185,000000	14,450800
2184,000000	14,492700
2183,000000	14,508100
2182,000000	14,452000
2181,000000	14,204800
2180,000000	14,280900
2179,000000	14,462000
2178,000000	14,641300
2177,000000	14,469000
2176,000000	14,507900
2175,000000	14,341000
2174,000000	14,151000
2173,000000	14,456800
2172,000000	14,254700
2171,000000	14,295300
2170,000000	14,092500
2169,000000	14,150900
2168,000000	14,082600
2167,000000	13,891800
2166,000000	13,677200
2165,000000	14,264400
2164,000000	14,129300
2163,000000	14,480000
2162,000000	14,559500
2161,000000	14,352200
2160,000000	14,271600
2159,000000	14,288600
2158,000000	14,149900
2157,000000	14,476000
2156,000000	14,852800
2155,000000	14,400900
2154,000000	14,233700
2153,000000	14,599600
2152,000000	14,349100
2151,000000	14,637500
2150,000000	14,386000
2149,000000	14,401400
2148,000000	15,279400
2147,000000	14,688800
2146,000000	15,116700
2145,000000	15,084700
2144,000000	14,914200
2143,000000	14,647900
2142,000000	15,058100
2141,000000	15,327200
2140,000000	14,879700
2139,000000	14,998500
2138,000000	15,090100
2137,000000	15,124900
2136,000000	15,045900
2135,000000	15,265800
2134,000000	15,255000
2133,000000	15,323900
2132,000000	15,013900
2131,000000	14,989600
2130,000000	14,960100
2129,000000	15,220300
2128,000000	15,099100
2127,000000	14,958100
2126,000000	15,068200
2125,000000	15,085000
2124,000000	14,978000
2123,000000	15,182700
2122,000000	14,849400
2121,000000	15,074800
2120,000000	15,253000
2119,000000	14,776800
2118,000000	15,031200
2117,000000	14,986100
2116,000000	14,804400
2115,000000	15,161900
2114,000000	14,903700
2113,000000	14,381200
2112,000000	14,759000
2111,000000	14,575500
2110,000000	14,777900
2109,000000	14,616600
2108,000000	14,426200
2107,000000	14,426700
2106,000000	14,570100
2105,000000	14,480300
2104,000000	14,340000
2103,000000	14,700100
2102,000000	14,431800
2101,000000	14,217100
2100,000000	14,433400
2099,000000	14,418800
2098,000000	14,197100
2097,000000	14,399200
2096,000000	14,320400
2095,000000	14,069300
2094,000000	14,188800
2093,000000	13,883200
2092,000000	14,220400
2091,000000	13,967700
2090,000000	14,066100
2089,000000	14,094900
2088,000000	14,033500
2087,000000	14,087300
2086,000000	14,206500
2085,000000	13,920000
2084,000000	13,983100
2083,000000	13,977500
2082,000000	14,098100
2081,000000	14,110500
2080,000000	13,875900
2079,000000	13,581300
2078,000000	13,758500
2077,000000	13,793800
2076,000000	13,736600
2075,000000	13,764600
2074,000000	13,554600
2073,000000	13,616000
2072,000000	13,507400
2071,000000	13,509800
2070,000000	13,496900
2069,000000	13,530500
2068,000000	13,513100
2067,000000	13,396500
2066,000000	13,252400
2065,000000	13,399400
2064,000000	13,280800
2063,000000	13,282800
2062,000000	13,209200
2061,000000	13,193000
2060,000000	13,237600
2059,000000	13,312200
2058,000000	13,286900
2057,000000	13,278900
2056,000000	13,246700
2055,000000	13,098000
2054,000000	13,160200
2053,000000	13,014600
2052,000000	13,287900
2051,000000	13,361200
2050,000000	13,429100
2049,000000	13,702700
2048,000000	13,523500
2047,000000	13,629700
2046,000000	13,747300
2045,000000	13,630700
2044,000000	13,792800
2043,000000	13,974800
2042,000000	13,959900
2041,000000	14,054700
2040,000000	14,261000
2039,000000	14,309500
2038,000000	14,424000
2037,000000	14,580000
2036,000000	14,578000
2035,000000	14,712000
2034,000000	14,860400
2033,000000	14,896200
2032,000000	14,883000
2031,000000	14,839200
2030,000000	14,903100
2029,000000	14,972900
2028,000000	15,125200
2027,000000	15,235600
2026,000000	15,214100
2025,000000	15,259000
2024,000000	15,241000
2023,000000	15,288200
2022,000000	15,307000
2021,000000	15,322500
2020,000000	15,388200
2019,000000	15,546500
2018,000000	15,509400
2017,000000	15,360400
2016,000000	15,355100
2015,000000	15,422800
2014,000000	15,587700
2013,000000	15,620400
2012,000000	15,559000
2011,000000	15,519700
2010,000000	15,493500
2009,000000	15,563900
2008,000000	15,527600
2007,000000	15,439500
2006,000000	15,531400
2005,000000	15,546900
2004,000000	15,523200
2003,000000	15,589300
2002,000000	15,525800
2001,000000	15,326000
2000,000000	15,321100
1999,000000	15,355400
1998,000000	15,274300
1997,000000	15,247500
1996,000000	15,235300
1995,000000	15,173000
1994,000000	15,046600
1993,000000	14,996400
1992,000000	15,021400
1991,000000	14,986600
1990,000000	14,865800
1989,000000	14,821700
1988,000000	14,723100
1987,000000	14,697800
1986,000000	14,724500
1985,000000	14,583000
1984,000000	14,564300
1983,000000	14,490800
1982,000000	14,393800
1981,000000	14,322200
1980,000000	14,214400
1979,000000	14,074900
1978,000000	14,101800
1977,000000	14,141800
1976,000000	14,027200
1975,000000	13,931600
1974,000000	13,858100
1973,000000	13,755400
1972,000000	13,708500
1971,000000	13,749600
1970,000000	13,703600
1969,000000	13,549800
1968,000000	13,446100
1967,000000	13,379800
1966,000000	13,345400
1965,000000	13,374500
1964,000000	13,328300
1963,000000	13,226300
1962,000000	13,268400
1961,000000	13,187100
1960,000000	13,145200
1959,000000	13,101000
1958,000000	13,000300
1957,000000	12,908300
1956,000000	12,868500
1955,000000	12,860800
1954,000000	12,868000
1953,000000	12,807000
1952,000000	12,695700
1951,000000	12,660600
1950,000000	12,551700
1949,000000	12,529800
1948,000000	12,565000
1947,000000	12,432100
1946,000000	12,412300
1945,000000	12,418700
1944,000000	12,391400
1943,000000	12,382300
1942,000000	12,437400
1941,000000	12,406300
1940,000000	12,351400
1939,000000	12,359000
1938,000000	12,357600
1937,000000	12,345000
1936,000000	12,440300
1935,000000	12,492500
1934,000000	12,522900
1933,000000	12,405400
1932,000000	12,433500
1931,000000	12,603200
1930,000000	12,594900
1929,000000	12,676600
1928,000000	12,829600
1927,000000	12,881000
1926,000000	12,983700
1925,000000	13,010800
1924,000000	13,061800
1923,000000	13,264000
1922,000000	13,332600
1921,000000	13,492500
1920,000000	13,667100
1919,000000	13,581900
1918,000000	13,738500
1917,000000	13,864700
1916,000000	14,063200
1915,000000	14,191800
1914,000000	14,457200
1913,000000	14,522500
1912,000000	14,793400
1911,000000	14,962000
1910,000000	14,960400
1909,000000	15,223000
1908,000000	15,340600
1907,000000	15,740500
1906,000000	15,907700
1905,000000	16,109200
1904,000000	16,376100
1903,000000	16,515000
1902,000000	16,844400
1901,000000	16,976800
1900,000000	17,292700
1899,000000	17,726500
1898,000000	17,898800
1897,000000	18,060300
1896,000000	18,329800
1895,000000	18,579700
1894,000000	18,872500
1893,000000	19,218500
1892,000000	19,616300
1891,000000	19,925300
1890,000000	20,233400
1889,000000	20,512600
1888,000000	20,856500
1887,000000	21,297600
1886,000000	21,715000
1885,000000	22,130100
1884,000000	22,752600
1883,000000	23,238900
1882,000000	23,605200
1881,000000	24,259200
1880,000000	24,768400
1879,000000	25,261400
1878,000000	25,769800
1877,000000	26,346200
1876,000000	26,827700
1875,000000	27,202100
1874,000000	27,584700
1873,000000	28,135600
1872,000000	28,271300
1871,000000	28,704000
1870,000000	28,926900
1869,000000	29,052100
1868,000000	29,241400
1867,000000	29,514000
1866,000000	29,443100
1865,000000	29,557500
1864,000000	29,843400
1863,000000	29,856500
1862,000000	29,953300
1861,000000	30,181600
1860,000000	30,468200
1859,000000	30,370700
1858,000000	30,280700
1857,000000	30,427200
1856,000000	30,502200
1855,000000	30,446400
1854,000000	30,494000
1853,000000	30,456200
1852,000000	30,323000
1851,000000	30,277600
1850,000000	30,241800
1849,000000	30,362100
1848,000000	30,508100
1847,000000	30,449600
1846,000000	30,047700
1845,000000	29,920100
1844,000000	29,951900
1843,000000	30,077800
1842,000000	30,095600
1841,000000	30,068700
1840,000000	29,947000
1839,000000	29,830500
1838,000000	29,877200
1837,000000	29,952000
1836,000000	29,935500
1835,000000	29,672600
1834,000000	29,504400
1833,000000	29,451500
1832,000000	29,449200
1831,000000	29,354700
1830,000000	29,242500
1829,000000	29,174000
1828,000000	29,145800
1827,000000	29,094100
1826,000000	29,077100
1825,000000	28,884900
1824,000000	28,779200
1823,000000	28,819200
1822,000000	28,809300
1821,000000	28,844800
1820,000000	28,840500
1819,000000	28,654900
1818,000000	28,619000
1817,000000	28,665000
1816,000000	28,654500
1815,000000	28,670700
1814,000000	28,590800
1813,000000	28,579400
1812,000000	28,574400
1811,000000	28,537800
1810,000000	28,489000
1809,000000	28,445000
1808,000000	28,399700
1807,000000	28,362700
1806,000000	28,285300
1805,000000	28,236400
1804,000000	28,170000
1803,000000	28,150700
1802,000000	28,073200
1801,000000	28,022600
1800,000000	27,993600
1799,000000	27,929600
1798,000000	27,809300
1797,000000	27,789600
1796,000000	27,753200
1795,000000	27,725300
1794,000000	27,679000
1793,000000	27,594200
1792,000000	27,516400
1791,000000	27,477800
1790,000000	27,421600
1789,000000	27,333000
1788,000000	27,286800
1787,000000	27,212200
1786,000000	27,117400
1785,000000	27,079700
1784,000000	27,019600
1783,000000	26,932200
1782,000000	26,822300
1781,000000	26,744000
1780,000000	26,693100
1779,000000	26,635200
1778,000000	26,499700
1777,000000	26,376600
1776,000000	26,260400
1775,000000	26,124100
1774,000000	26,013300
1773,000000	25,875600
1772,000000	25,724600
1771,000000	25,619300
1770,000000	25,502600
1769,000000	25,347100
1768,000000	25,225300
1767,000000	25,113700
1766,000000	25,012100
1765,000000	24,896000
1764,000000	24,825500
1763,000000	24,810300
1762,000000	24,795200
1761,000000	24,851000
1760,000000	24,941400
1759,000000	25,005000
1758,000000	25,053600
1757,000000	25,147900
1756,000000	25,224600
1755,000000	25,241700
1754,000000	25,274300
1753,000000	25,276400
1752,000000	25,283500
1751,000000	25,275600
1750,000000	25,226200
1749,000000	25,162100
1748,000000	25,084400
1747,000000	25,002400
1746,000000	24,898600
1745,000000	24,754900
1744,000000	24,607600
1743,000000	24,433400
1742,000000	24,212200
1741,000000	23,980000
1740,000000	23,719100
1739,000000	23,458200
1738,000000	23,251100
1737,000000	23,068200
1736,000000	22,895700
1735,000000	22,757300
1734,000000	22,674800
1733,000000	22,686400
1732,000000	22,734900
1731,000000	22,775100
1730,000000	22,871400
1729,000000	23,021000
1728,000000	23,142300
1727,000000	23,255700
1726,000000	23,348300
1725,000000	23,428400
1724,000000	23,505100
1723,000000	23,594600
1722,000000	23,676100
1721,000000	23,691600
1720,000000	23,685100
1719,000000	23,715300
1718,000000	23,737800
1717,000000	23,808400
1716,000000	23,922000
1715,000000	23,985200
1714,000000	24,032600
1713,000000	24,098700
1712,000000	24,213300
1711,000000	24,274200
1710,000000	24,310400
1709,000000	24,309500
1708,000000	24,320600
1707,000000	24,307900
1706,000000	24,259700
1705,000000	24,189100
1704,000000	24,137300
1703,000000	24,071100
1702,000000	23,967100
1701,000000	23,823300
1700,000000	23,678400
1699,000000	23,487400
1698,000000	23,294100
1697,000000	23,165500
1696,000000	23,054100
1695,000000	23,031200
1694,000000	23,070900
1693,000000	23,147300
1692,000000	23,309600
1691,000000	23,494700
1690,000000	23,706600
1689,000000	23,852700
1688,000000	23,926600
1687,000000	23,935500
1686,000000	23,990600
1685,000000	24,024800
1684,000000	24,118100
1683,000000	24,266500
1682,000000	24,598000
1681,000000	25,028000
1680,000000	25,584600
1679,000000	26,185000
1678,000000	26,746500
1677,000000	27,302900
1676,000000	27,844100
1675,000000	28,283400
1674,000000	28,631800
1673,000000	28,985500
1672,000000	29,260400
1671,000000	29,519900
1670,000000	29,772000
1669,000000	29,999100
1668,000000	30,176800
1667,000000	30,292600
1666,000000	30,423700
1665,000000	30,519700
1664,000000	30,609300
1663,000000	30,717200
1662,000000	30,787700
1661,000000	30,818300
1660,000000	30,913200
1659,000000	30,963700
1658,000000	31,013200
1657,000000	31,023000
1656,000000	31,050800
1655,000000	31,017800
1654,000000	31,031200
1653,000000	31,007400
1652,000000	30,988000
1651,000000	30,980000
1650,000000	30,937800
1649,000000	30,908400
1648,000000	30,891800
1647,000000	30,844300
1646,000000	30,781300
1645,000000	30,736600
1644,000000	30,694700
1643,000000	30,627900
1642,000000	30,541000
1641,000000	30,523200
1640,000000	30,432500
1639,000000	30,339000
1638,000000	30,306600
1637,000000	30,223500
1636,000000	30,166000
1635,000000	30,087000
1634,000000	29,999300
1633,000000	29,930400
1632,000000	29,798600
1631,000000	29,736500
1630,000000	29,648700
1629,000000	29,554200
1628,000000	29,480000
1627,000000	29,383400
1626,000000	29,318200
1625,000000	29,214500
1624,000000	29,107400
1623,000000	29,008400
1622,000000	28,917000
1621,000000	28,827700
1620,000000	28,743500
1619,000000	28,648200
1618,000000	28,584500
1617,000000	28,519000
1616,000000	28,427600
1615,000000	28,340100
1614,000000	28,236200
1613,000000	28,169600
1612,000000	28,082200
1611,000000	28,017300
1610,000000	27,882200
1609,000000	27,785400
1608,000000	27,775300
1607,000000	27,689100
1606,000000	27,590300
1605,000000	27,501800
1604,000000	27,426300
1603,000000	27,341800
1602,000000	27,211300
1601,000000	27,143600
1600,000000	27,063900
1599,000000	27,011000
1598,000000	26,939500
1597,000000	26,843700
1596,000000	26,764100
1595,000000	26,697400
1594,000000	26,620600
1593,000000	26,560300
1592,000000	26,474800
1591,000000	26,451300
1590,000000	26,394000
1589,000000	26,298000
1588,000000	26,236100
1587,000000	26,236500
1586,000000	26,209400
1585,000000	26,164100
1584,000000	26,104600
1583,000000	26,061500
1582,000000	26,005500
1581,000000	25,982500
1580,000000	25,929600
1579,000000	25,910400
1578,000000	25,881600
1577,000000	25,864300
1576,000000	25,866700
1575,000000	25,843200
1574,000000	25,808400
1573,000000	25,835100
1572,000000	25,823900
1571,000000	25,832800
1570,000000	25,840900
1569,000000	25,834500
1568,000000	25,872600
1567,000000	25,853100
1566,000000	25,879600
1565,000000	25,897400
1564,000000	25,942800
1563,000000	25,953000
1562,000000	25,943400
1561,000000	25,956200
1560,000000	25,935400
1559,000000	25,939800
1558,000000	25,956300
1557,000000	25,969500
1556,000000	25,950200
1555,000000	25,951600
1554,000000	25,957100
1553,000000	25,940800
1552,000000	25,907500
1551,000000	25,837700
1550,000000	25,845800
1549,000000	25,832400
1548,000000	25,798600
1547,000000	25,783500
1546,000000	25,771100
1545,000000	25,739300
1544,000000	25,694900
1543,000000	25,662500
1542,000000	25,661100
1541,000000	25,658900
1540,000000	25,644400
1539,000000	25,632200
1538,000000	25,625700
1537,000000	25,627300
1536,000000	25,577300
1535,000000	25,551600
1534,000000	25,535100
1533,000000	25,493500
1532,000000	25,491900
1531,000000	25,460300
1530,000000	25,412200
1529,000000	25,393200
1528,000000	25,373000
1527,000000	25,329400
1526,000000	25,286200
1525,000000	25,209800
1524,000000	25,200900
1523,000000	25,182200
1522,000000	25,138700
1521,000000	25,104400
1520,000000	25,041000
1519,000000	24,993200
1518,000000	24,950400
1517,000000	24,903700
1516,000000	24,869300
1515,000000	24,843000
1514,000000	24,807900
1513,000000	24,753500
1512,000000	24,710000
1511,000000	24,635600
1510,000000	24,585200
1509,000000	24,536400
1508,000000	24,488800
1507,000000	24,445100
1506,000000	24,400200
1505,000000	24,364800
1504,000000	24,326900
1503,000000	24,265400
1502,000000	24,230800
1501,000000	24,186800
1500,000000	24,141400
1499,000000	24,101400
1498,000000	24,065700
1497,000000	24,051100
1496,000000	24,013800
1495,000000	23,992900
1494,000000	23,998500
1493,000000	23,990200
1492,000000	23,956300
1491,000000	23,931500
1490,000000	23,944100
1489,000000	23,953200
1488,000000	23,941200
1487,000000	23,935800
1486,000000	23,923500
1485,000000	23,905700
1484,000000	23,913800
1483,000000	23,903400
1482,000000	23,918300
1481,000000	23,938800
1480,000000	23,945700
1479,000000	23,967700
1478,000000	23,968800
1477,000000	23,980000
1476,000000	24,018300
1475,000000	24,022400
1474,000000	24,028800
1473,000000	24,029500
1472,000000	24,056000
1471,000000	24,110100
1470,000000	24,140200
1469,000000	24,167100
1468,000000	24,189300
1467,000000	24,208900
1466,000000	24,241200
1465,000000	24,276800
1464,000000	24,311700
1463,000000	24,352500
1462,000000	24,415700
1461,000000	24,476800
1460,000000	24,531700
1459,000000	24,595800
1458,000000	24,665300
1457,000000	24,728700
1456,000000	24,805800
1455,000000	24,903300
1454,000000	24,998100
1453,000000	25,087100
1452,000000	25,201800
1451,000000	25,309400
1450,000000	25,402000
1449,000000	25,492100
1448,000000	25,583400
1447,000000	25,716700
1446,000000	25,852700
1445,000000	25,952000
1444,000000	26,054600
1443,000000	26,173100
1442,000000	26,309800
1441,000000	26,444000
1440,000000	26,542000
1439,000000	26,670400
1438,000000	26,826700
1437,000000	26,950400
1436,000000	27,062500
1435,000000	27,204600
1434,000000	27,340300
1433,000000	27,490600
1432,000000	27,644900
1431,000000	27,791300
1430,000000	27,946100
1429,000000	28,110800
1428,000000	28,305100
1427,000000	28,495900
1426,000000	28,683000
1425,000000	28,905000
1424,000000	29,154600
1423,000000	29,389400
1422,000000	29,606000
1421,000000	29,846200
1420,000000	30,110200
1419,000000	30,379900
1418,000000	30,593300
1417,000000	30,812100
1416,000000	31,076200
1415,000000	31,373900
1414,000000	31,663000
1413,000000	31,897300
1412,000000	32,138600
1411,000000	32,440300
1410,000000	32,816800
1409,000000	33,182100
1408,000000	33,492900
1407,000000	33,898100
1406,000000	34,289200
1405,000000	34,741900
1404,000000	35,169900
1403,000000	35,496100
1402,000000	35,898400
1401,000000	36,416800
1400,000000	36,770900
1399,000000	37,009000
1398,000000	37,284900
1397,000000	37,648800
1396,000000	38,069000
1395,000000	38,338000
1394,000000	38,497300
1393,000000	38,679400
1392,000000	38,994200
1391,000000	39,245900
1390,000000	39,489100
1389,000000	39,837100
1388,000000	40,243000
1387,000000	40,568200
1386,000000	40,877700
1385,000000	41,379700
1384,000000	41,790000
1383,000000	42,216700
1382,000000	42,648500
1381,000000	42,917800
1380,000000	43,139300
1379,000000	43,260600
1378,000000	43,387400
1377,000000	43,537000
1376,000000	43,710200
1375,000000	43,849400
1374,000000	44,084200
1373,000000	44,355600
1372,000000	44,725200
1371,000000	45,059500
1370,000000	45,305400
1369,000000	45,518600
1368,000000	45,841300
1367,000000	46,043400
1366,000000	46,183500
1365,000000	46,470900
1364,000000	46,635000
1363,000000	46,696800
1362,000000	46,994000
1361,000000	47,114200
1360,000000	47,058800
1359,000000	47,090100
1358,000000	47,221700
1357,000000	47,346500
1356,000000	47,521100
1355,000000	47,822700
1354,000000	48,212300
1353,000000	48,538600
1352,000000	48,936400
1351,000000	49,324900
1350,000000	49,730900
1349,000000	50,048500
1348,000000	50,440700
1347,000000	50,727600
1346,000000	50,975000
1345,000000	51,251000
1344,000000	51,527700
1343,000000	51,779400
1342,000000	51,968600
1341,000000	52,206800
1340,000000	52,429600
1339,000000	52,622300
1338,000000	52,812300
1337,000000	53,010600
1336,000000	53,219600
1335,000000	53,384300
1334,000000	53,575400
1333,000000	53,718000
1332,000000	53,885300
1331,000000	54,053900
1330,000000	54,160700
1329,000000	54,287100
1328,000000	54,423900
1327,000000	54,511800
1326,000000	54,650400
1325,000000	54,790200
1324,000000	54,872400
1323,000000	54,963000
1322,000000	55,036800
1321,000000	55,119100
1320,000000	55,244800
1319,000000	55,290800
1318,000000	55,374100
1317,000000	55,434200
1316,000000	55,500300
1315,000000	55,605300
1314,000000	55,668500
1313,000000	55,705300
1312,000000	55,771000
1311,000000	55,817700
1310,000000	55,866200
1309,000000	55,888200
1308,000000	55,932400
1307,000000	55,966900
1306,000000	56,015300
1305,000000	56,033900
1304,000000	56,027100
1303,000000	56,047300
1302,000000	56,064000
1301,000000	56,068900
1300,000000	56,078600
1299,000000	56,104600
1298,000000	56,103400
1297,000000	56,098200
1296,000000	56,100000
1295,000000	56,089800
1294,000000	56,090300
1293,000000	56,072600
1292,000000	56,061700
1291,000000	56,056200
1290,000000	56,010400
1289,000000	55,979100
1288,000000	55,963200
1287,000000	55,929000
1286,000000	55,909700
1285,000000	55,874200
1284,000000	55,834300
1283,000000	55,781000
1282,000000	55,733400
1281,000000	55,683900
1280,000000	55,662700
1279,000000	55,633500
1278,000000	55,575300
1277,000000	55,534900
1276,000000	55,491000
1275,000000	55,438800
1274,000000	55,406000
1273,000000	55,379500
1272,000000	55,363000
1271,000000	55,348400
1270,000000	55,313000
1269,000000	55,284100
1268,000000	55,276900
1267,000000	55,218100
1266,000000	55,183400
1265,000000	55,171300
1264,000000	55,149800
1263,000000	55,111100
1262,000000	55,071100
1261,000000	55,058600
1260,000000	55,011700
1259,000000	54,975600
1258,000000	54,944800
1257,000000	54,905800
1256,000000	54,855300
1255,000000	54,807700
1254,000000	54,778100
1253,000000	54,724400
1252,000000	54,692400
1251,000000	54,640000
1250,000000	54,584100
1249,000000	54,514500
1248,000000	54,444900
1247,000000	54,373200
1246,000000	54,288900
1245,000000	54,209400
1244,000000	54,119900
1243,000000	54,019000
1242,000000	53,922400
1241,000000	53,823400
1240,000000	53,710800
1239,000000	53,607700
1238,000000	53,508700
1237,000000	53,405700
1236,000000	53,281700
1235,000000	53,172900
1234,000000	53,054300
1233,000000	52,927000
1232,000000	52,814200
1231,000000	52,703300
1230,000000	52,576700
1229,000000	52,458600
1228,000000	52,338300
1227,000000	52,183900
1226,000000	52,048300
1225,000000	51,948000
1224,000000	51,823800
1223,000000	51,696500
1222,000000	51,566200
1221,000000	51,440200
1220,000000	51,319300
1219,000000	51,203800
1218,000000	51,081700
1217,000000	50,961400
1216,000000	50,838400
1215,000000	50,745900
1214,000000	50,657400
1213,000000	50,561600
1212,000000	50,471200
1211,000000	50,378800
1210,000000	50,282300
1209,000000	50,198500
1208,000000	50,125800
1207,000000	50,059700
1206,000000	49,998300
1205,000000	49,980800
1204,000000	49,952800
1203,000000	49,905300
1202,000000	49,899100
1201,000000	49,872400
1200,000000	49,804400
1199,000000	49,733800
1198,000000	49,652000
1197,000000	49,547300
1196,000000	49,429400
1195,000000	49,283200
1194,000000	49,075200
1193,000000	48,803400
1192,000000	48,490800
1191,000000	48,147900
1190,000000	47,815900
1189,000000	47,507000
1188,000000	47,270000
1187,000000	47,135200
1186,000000	47,048500
1185,000000	47,076500
1184,000000	47,237500
1183,000000	47,476700
1182,000000	47,781700
1181,000000	48,127600
1180,000000	48,509600
1179,000000	48,865600
1178,000000	49,201500
1177,000000	49,521300
1176,000000	49,758400
1175,000000	49,971400
1174,000000	50,202400
1173,000000	50,391400
1172,000000	50,627700
1171,000000	50,882900
1170,000000	51,122400
1169,000000	51,368400
1168,000000	51,606200
1167,000000	51,843200
1166,000000	52,078000
1165,000000	52,317300
1164,000000	52,587000
1163,000000	52,860800
1162,000000	53,116200
1161,000000	53,371100
1160,000000	53,608600
1159,000000	53,822300
1158,000000	54,042400
1157,000000	54,235500
1156,000000	54,397500
1155,000000	54,551000
1154,000000	54,664200
1153,000000	54,765400
1152,000000	54,823700
1151,000000	54,846300
1150,000000	54,892500
1149,000000	54,889500
1148,000000	54,907900
1147,000000	54,944700
1146,000000	55,017200
1145,000000	55,101000
1144,000000	55,244900
1143,000000	55,406800
1142,000000	55,596300
1141,000000	55,812400
1140,000000	56,021600
1139,000000	56,240900
1138,000000	56,454300
1137,000000	56,691500
1136,000000	56,925000
1135,000000	57,202200
1134,000000	57,394000
1133,000000	57,538900
1132,000000	57,705200
1131,000000	57,860900
1130,000000	57,987500
1129,000000	58,134500
1128,000000	58,231800
1127,000000	58,255200
1126,000000	58,312100
1125,000000	58,363800
1124,000000	58,429700
1123,000000	58,505900
1122,000000	58,508600
1121,000000	58,487500
1120,000000	58,492000
1119,000000	58,501900
1118,000000	58,485800
1117,000000	58,457400
1116,000000	58,456700
1115,000000	58,434300
1114,000000	58,461600
1113,000000	58,408400
1112,000000	58,428600
1111,000000	58,398000
1110,000000	58,359700
1109,000000	58,321500
1108,000000	58,309400
1107,000000	58,312400
1106,000000	58,294700
1105,000000	58,271800
1104,000000	58,246200
1103,000000	58,247800
1102,000000	58,207200
1101,000000	58,168900
1100,000000	58,137900
1099,000000	58,145700
1098,000000	58,083300
1097,000000	58,059700
1096,000000	58,011500
1095,000000	57,984100
1094,000000	57,942200
1093,000000	57,891300
1092,000000	57,883300
1091,000000	57,863400
1090,000000	57,812400
1089,000000	57,769200
1088,000000	57,711400
1087,000000	57,673700
1086,000000	57,625000
1085,000000	57,580500
1084,000000	57,567400
1083,000000	57,516400
1082,000000	57,433300
1081,000000	57,413400
1080,000000	57,330800
1079,000000	57,281700
1078,000000	57,298100
1077,000000	57,249800
1076,000000	57,205500
1075,000000	57,113000
1074,000000	57,115000
1073,000000	57,048300
1072,000000	57,001000
1071,000000	57,012100
1070,000000	56,876800
1069,000000	56,846900
1068,000000	56,792900
1067,000000	56,701200
1066,000000	56,659900
1065,000000	56,557900
1064,000000	56,546700
1063,000000	56,458900
1062,000000	56,433800
1061,000000	56,397100
1060,000000	56,326600
1059,000000	56,326700
1058,000000	56,210100
1057,000000	56,228600
1056,000000	56,202500
1055,000000	56,081800
1054,000000	56,020300
1053,000000	55,943100
1052,000000	55,877700
1051,000000	55,818500
1050,000000	55,769000
1049,000000	55,722200
1048,000000	55,692000
1047,000000	55,631500
1046,000000	55,570400
1045,000000	55,582800
1044,000000	55,526700
1043,000000	55,452900
1042,000000	55,391300
1041,000000	55,349000
1040,000000	55,291000
1039,000000	55,230300
1038,000000	55,169900
1037,000000	55,118300
1036,000000	55,027700
1035,000000	55,001000
1034,000000	55,001700
1033,000000	54,856000
1032,000000	54,841300
1031,000000	54,758400
1030,000000	54,677800
1029,000000	54,634400
1028,000000	54,625100
1027,000000	54,577500
1026,000000	54,480800
1025,000000	54,377100
1024,000000	54,352700
1023,000000	54,287100
1022,000000	54,222100
1021,000000	54,104500
1020,000000	54,086700
1019,000000	54,045400
1018,000000	54,008200
1017,000000	53,911100
1016,000000	53,806000
1015,000000	53,761100
1014,000000	53,763200
1013,000000	53,659200
1012,000000	53,635800
1011,000000	53,616800
1010,000000	53,509300
1009,000000	53,437500
1008,000000	53,494200
1007,000000	53,513200
1006,000000	53,434900
1005,000000	53,369500
1004,000000	53,344900
1003,000000	53,317900
1002,000000	53,268000
1001,000000	53,268300
1000,000000	53,233700
999,000000	53,142700
998,000000	53,055800
997,000000	53,072900
996,000000	52,997000
995,000000	52,946400
994,000000	52,957700
993,000000	52,843000
992,000000	52,854600
991,000000	52,797200
990,000000	52,721400
989,000000	52,688100
988,000000	52,680500
987,000000	52,625000
986,000000	52,581500
985,000000	52,556100
984,000000	52,501200
983,000000	52,445000
982,000000	52,368900
981,000000	52,303700
980,000000	52,280600
979,000000	52,213700
978,000000	52,197100
977,000000	52,124400
976,000000	52,106800
975,000000	52,046000
974,000000	52,021300
973,000000	51,882600
972,000000	51,828200
971,000000	51,751900
970,000000	51,762300
969,000000	51,740000
968,000000	51,706800
967,000000	51,652900
966,000000	51,615700
965,000000	51,526100
964,000000	51,391800
963,000000	51,428800
962,000000	51,425900
961,000000	51,368000
960,000000	51,383400
959,000000	51,278900
958,000000	51,238900
957,000000	51,203000
956,000000	51,198000
955,000000	51,104200
954,000000	51,011600
953,000000	51,047000
952,000000	50,947200
951,000000	50,808800
950,000000	50,772600
949,000000	50,826400
948,000000	50,778500
947,000000	50,676600
946,000000	50,680900
945,000000	50,748500
944,000000	50,698700
943,000000	50,634000
942,000000	50,535300
941,000000	50,469500
940,000000	50,447600
939,000000	50,330700
938,000000	50,260500
937,000000	50,289900
936,000000	50,279600
935,000000	50,266300
934,000000	50,235400
933,000000	50,266300
932,000000	50,237800
931,000000	50,081200
930,000000	49,970200
929,000000	50,011900
928,000000	50,083100
927,000000	50,106400
926,000000	50,109800
925,000000	49,949300
924,000000	49,781500
923,000000	49,857600
922,000000	49,779300
921,000000	49,780100
920,000000	49,862300
919,000000	49,659500
918,000000	49,580900
917,000000	49,514000
916,000000	49,646500
915,000000	49,596200
914,000000	49,609600
913,000000	49,656100
912,000000	49,581600
911,000000	49,419200
910,000000	49,371400
909,000000	49,335900
908,000000	49,380500
907,000000	49,334000
906,000000	49,428300
905,000000	49,546400
904,000000	49,264000
903,000000	49,280400
902,000000	49,381000
901,000000	49,506500
900,000000	49,688000
899,000000	49,599200
898,000000	49,422500
897,000000	49,546700
896,000000	49,650400
895,000000	49,643700
894,000000	49,574600
893,000000	49,832000
892,000000	49,613500
891,000000	49,903300
890,000000	49,819300
889,000000	49,891300
888,000000	50,589900
887,000000	50,357600
886,000000	50,318000
885,000000	50,283000
884,000000	50,281900
883,000000	50,047400
882,000000	50,335600
881,000000	50,801900
880,000000	50,886600
879,000000	50,037300
878,000000	50,625900
877,000000	51,202500
876,000000	51,315700
875,000000	51,209500
874,000000	51,328500
873,000000	51,876800
872,000000	51,925500
871,000000	51,602400
870,000000	51,877100
869,000000	52,368800
868,000000	51,977000
867,000000	52,515700
866,000000	52,361500
865,000000	51,799200
864,000000	52,199500
863,000000	52,580300
862,000000	52,810000
861,000000	52,836100
860,000000	53,112300
859,000000	53,813400
858,000000	50,843300
857,000000	49,984500
856,000000	50,567200
855,000000	50,852200
854,000000	50,675200
853,000000	50,683200
852,000000	50,608700
851,000000	50,889600
850,000000	50,849600
849,000000	50,992200
848,000000	51,037400
847,000000	51,106200
846,000000	51,166000
845,000000	51,261600
844,000000	51,665000
843,000000	51,497600
842,000000	51,746600
841,000000	51,717400
840,000000	52,085100
839,000000	52,020600
838,000000	52,106300
837,000000	52,260200
836,000000	52,501000
835,000000	52,240300
834,000000	52,241500
833,000000	52,409300
832,000000	52,506800
831,000000	52,590900
830,000000	52,674400
829,000000	52,764100
828,000000	52,627500
827,000000	52,811300
826,000000	52,820200
825,000000	52,929700
824,000000	52,807800
823,000000	52,931800
822,000000	52,906300
821,000000	53,056800
820,000000	53,148900
819,000000	53,083300
818,000000	53,222500
817,000000	53,108500
816,000000	53,351400
815,000000	53,373100
814,000000	53,331000
813,000000	53,323200
812,000000	53,323400
811,000000	53,297700
810,000000	53,332100
809,000000	53,254200
808,000000	53,276400
807,000000	53,372600
806,000000	53,462500
805,000000	53,476300
804,000000	53,467000
803,000000	53,362400
802,000000	53,351300
801,000000	53,457900
800,000000	53,395400
799,000000	53,410400
798,000000	53,402900
797,000000	53,488100
796,000000	53,451800
795,000000	53,372100
794,000000	53,342900
793,000000	53,290100
792,000000	53,234000
791,000000	53,245000
790,000000	53,243400
789,000000	53,146600
788,000000	53,016600
787,000000	53,126600
786,000000	53,027900
785,000000	53,042100
784,000000	53,008800
783,000000	52,839000
782,000000	52,740400
781,000000	52,745800
780,000000	52,661500
779,000000	52,535800
778,000000	52,521400
777,000000	52,451900
776,000000	52,487200
775,000000	52,370600
774,000000	52,254900
773,000000	52,206700
772,000000	52,189000
771,000000	52,171900
770,000000	52,066400
769,000000	51,950700
768,000000	51,871000
767,000000	51,878200
766,000000	51,716800
765,000000	51,685900
764,000000	51,583400
763,000000	51,592900
762,000000	51,563500
761,000000	51,403400
760,000000	51,475700
759,000000	51,299300
758,000000	51,301700
757,000000	51,214900
756,000000	51,169900
755,000000	51,115700
754,000000	50,989800
753,000000	51,044500
752,000000	50,913700
751,000000	50,942700
750,000000	50,826000
749,000000	50,748300
748,000000	50,691800
747,000000	50,606900
746,000000	50,613800
745,000000	50,489600
744,000000	50,463000
743,000000	50,371700
742,000000	50,335600
741,000000	50,182500
740,000000	50,131800
739,000000	50,063700
738,000000	50,016100
737,000000	49,966800
736,000000	49,941400
735,000000	49,860200
734,000000	49,811600
733,000000	49,731200
732,000000	49,722200
731,000000	49,560500
730,000000	49,510100
729,000000	49,459800
728,000000	49,394500
727,000000	49,307900
726,000000	49,238600
725,000000	49,139600
724,000000	49,100300
723,000000	49,035900
722,000000	48,992700
721,000000	48,858700
720,000000	48,828400
719,000000	48,775500
718,000000	48,730000
717,000000	48,641200
716,000000	48,572000
715,000000	48,558500
714,000000	48,559700
713,000000	48,464800
712,000000	48,431900
711,000000	48,406400
710,000000	48,342100
709,000000	48,245700
708,000000	48,192200
707,000000	48,126200
706,000000	48,022700
705,000000	47,994600
704,000000	47,963800
703,000000	47,900300
702,000000	47,802800
701,000000	47,697900
700,000000	47,614700
699,000000	47,558300
698,000000	47,497200
697,000000	47,429200
696,000000	47,356900
695,000000	47,237500
694,000000	47,164900
693,000000	47,091800
692,000000	47,008400
691,000000	46,922900
690,000000	46,848500
689,000000	46,733800
688,000000	46,658200
687,000000	46,638300
686,000000	46,539400
685,000000	46,401100
684,000000	46,353300
683,000000	46,279900
682,000000	46,162900
681,000000	46,051800
680,000000	45,976400
679,000000	45,886900
678,000000	45,766400
677,000000	45,692800
676,000000	45,650500
675,000000	45,618600
674,000000	45,520300
673,000000	45,416200
672,000000	45,312000
671,000000	45,256700
670,000000	45,218200
669,000000	45,124600
668,000000	45,055200
667,000000	44,969400
666,000000	44,897400
665,000000	44,837400
664,000000	44,734300
663,000000	44,645900
662,000000	44,556400
661,000000	44,438400
660,000000	44,337100
659,000000	44,246700
658,000000	44,123900
657,000000	44,021900
656,000000	43,939200
655,000000	43,830800
654,000000	43,705900
653,000000	43,603100
652,000000	43,494600
651,000000	43,370100
650,000000	43,249600
649,000000	43,103800
648,000000	42,957400
647,000000	42,806000
646,000000	42,657300
645,000000	42,525800
644,000000	42,336400
643,000000	42,141700
642,000000	41,972500
641,000000	41,782100
640,000000	41,600500
639,000000	41,445500
638,000000	41,225400
637,000000	40,988000
636,000000	40,766900
635,000000	40,562200
634,000000	40,378100
633,000000	40,179900
632,000000	39,981100
631,000000	39,801700
630,000000	39,638100
629,000000	39,489300
628,000000	39,344600
627,000000	39,221400
626,000000	39,107600
625,000000	39,006300
624,000000	38,919500
623,000000	38,850100
622,000000	38,799100
621,000000	38,763200
620,000000	38,769000
619,000000	38,760000
618,000000	38,750900
617,000000	38,769000
616,000000	38,796100
615,000000	38,811100
614,000000	38,827800
613,000000	38,897300
612,000000	38,999600
611,000000	39,110900
610,000000	39,223400
609,000000	39,349300
608,000000	39,507500
607,000000	39,696400
606,000000	39,875500
605,000000	40,068300
604,000000	40,295700
603,000000	40,528400
602,000000	40,742400
601,000000	40,944800
600,000000	41,178000
599,000000	41,402800
598,000000	41,598900
597,000000	41,766300
596,000000	41,973000
595,000000	42,201800
594,000000	42,398300
593,000000	42,639900
592,000000	42,909000
591,000000	43,126500
590,000000	43,314900
589,000000	43,500400
588,000000	43,702000
587,000000	43,950900
586,000000	44,225000
585,000000	44,440900
584,000000	44,700900
583,000000	44,979900
582,000000	45,234300
581,000000	45,511500
580,000000	45,777600
579,000000	46,061500
578,000000	46,349900
577,000000	46,629600
576,000000	46,864600
575,000000	47,127100
574,000000	47,414800
573,000000	47,666000
572,000000	47,903600
571,000000	48,116300
570,000000	48,340000
569,000000	48,553100
568,000000	48,759100
567,000000	48,969000
566,000000	49,171800
565,000000	49,329600
564,000000	49,514000
563,000000	49,716300
562,000000	49,883100
561,000000	50,048300
560,000000	50,223300
559,000000	50,541800
558,000000	50,763000
557,000000	50,938500
556,000000	51,067600
555,000000	51,169800
554,000000	51,277700
553,000000	51,387400
552,000000	51,481300
551,000000	51,509400
550,000000	51,607700
549,000000	51,611800
548,000000	51,583800
547,000000	51,571800
546,000000	51,573500
545,000000	51,566900
544,000000	51,497600
543,000000	51,397200
542,000000	51,288400
541,000000	51,166600
540,000000	51,022200
539,000000	50,864400
538,000000	50,668400
537,000000	50,441200
536,000000	50,219200
535,000000	49,967700
534,000000	49,642500
533,000000	49,292800
532,000000	48,876900
531,000000	48,439000
530,000000	48,018400
529,000000	47,557200
528,000000	47,057200
527,000000	46,504800
526,000000	45,982300
525,000000	45,380100
524,000000	44,767000
523,000000	44,163600
522,000000	43,546300
521,000000	42,850500
520,000000	42,186700
519,000000	41,517600
518,000000	40,839500
517,000000	40,171700
516,000000	39,463600
515,000000	38,743500
514,000000	38,087200
513,000000	37,396300
512,000000	36,712500
511,000000	36,021000
510,000000	35,335600
509,000000	34,646500
508,000000	33,962900
507,000000	33,296300
506,000000	32,694600
505,000000	32,069700
504,000000	31,487700
503,000000	30,891000
502,000000	30,277200
501,000000	29,734700
500,000000	29,205600
499,000000	28,678200
498,000000	28,135000
497,000000	27,652400
496,000000	27,177000
495,000000	26,702700
494,000000	26,221400
493,000000	25,782400
492,000000	25,365000
491,000000	24,945700
490,000000	24,516400
489,000000	24,081200
488,000000	23,714900
487,000000	23,295800
486,000000	22,908300
485,000000	22,522600
484,000000	22,137200
483,000000	21,764500
482,000000	21,347800
481,000000	20,917500
480,000000	20,460600
479,000000	20,032400
478,000000	19,683200
477,000000	19,312800
476,000000	18,966200
475,000000	18,590800
474,000000	18,263100
473,000000	17,924500
472,000000	17,604600
471,000000	17,321300
470,000000	17,049500
469,000000	16,787900
468,000000	16,541100
467,000000	16,325300
466,000000	16,109100
465,000000	15,911900
464,000000	15,711400
463,000000	15,531500
462,000000	15,367800
461,000000	15,212400
460,000000	15,072100
459,000000	14,936200
458,000000	14,819600
457,000000	14,700000
456,000000	14,572700
455,000000	14,458800
454,000000	14,345300
453,000000	14,227700
452,000000	14,128200
451,000000	14,044500
450,000000	13,954200
449,000000	13,871900
448,000000	13,783600
447,000000	13,695500
446,000000	13,601600
445,000000	13,558100
444,000000	13,484300
443,000000	13,372900
442,000000	13,285400
441,000000	13,205900
440,000000	13,114500
439,000000	13,033100
438,000000	12,936200
437,000000	12,813000
436,000000	12,740700
435,000000	12,632900
434,000000	12,533300
433,000000	12,451300
432,000000	12,357100
431,000000	12,262000
430,000000	12,182200
429,000000	12,102500
428,000000	12,014200
427,000000	11,911300
426,000000	11,832900
425,000000	11,741900
424,000000	11,639500
423,000000	11,544300
422,000000	11,446400
421,000000	11,343300
420,000000	11,220400
419,000000	11,108500
418,000000	11,006500
417,000000	10,870900
416,000000	10,756700
415,000000	10,619100
414,000000	10,474000
413,000000	10,326600
412,000000	10,181900
411,000000	10,068200
410,000000	9,921400
409,000000	9,756600
408,000000	9,600500
407,000000	9,444300
406,000000	9,290100
405,000000	9,125500
404,000000	8,969700
403,000000	8,804000
402,000000	8,637200
401,000000	8,495400
400,000000	8,318700
399,000000	8,142700
398,000000	7,967200
397,000000	7,820100
396,000000	7,658900
395,000000	7,484300
394,000000	7,331400
393,000000	7,201100
392,000000	7,042000
391,000000	6,889300
390,000000	6,745800
389,000000	6,612500
388,000000	6,484700
387,000000	6,359400
386,000000	6,232900
385,000000	6,099000
384,000000	5,996000
383,000000	5,894300
382,000000	5,791300
381,000000	5,706200
380,000000	5,616200
379,000000	5,514400
378,000000	5,438900
377,000000	5,371900
376,000000	5,375600
375,000000	5,348400
374,000000	5,067200
373,000000	5,032600
372,000000	5,039400
371,000000	5,032400
370,000000	4,972100
369,000000	4,882100
368,000000	4,859300
367,000000	4,931000
366,000000	4,891700
365,000000	4,808900
364,000000	4,833800
363,000000	4,791100
362,000000	4,855500
361,000000	4,770700
360,000000	4,710300
359,000000	4,696200
358,000000	4,700300
357,000000	4,727200
356,000000	4,707100
355,000000	4,632100
354,000000	4,591600
353,000000	4,593800
352,000000	4,632300
351,000000	4,601900
350,000000	4,540900
349,000000	4,509500
348,000000	4,497300
347,000000	4,546500
346,000000	4,614800
345,000000	4,540300
344,000000	4,551000
343,000000	4,567600
342,000000	4,588500
341,000000	4,610500
340,000000	4,586900
339,000000	4,594500
338,000000	4,638700
337,000000	4,675700
336,000000	4,618900
335,000000	4,627600
334,000000	4,646800
333,000000	4,711800
332,000000	4,660400
331,000000	4,627200
330,000000	4,702100
329,000000	4,738000
328,000000	4,742900
327,000000	4,794300
326,000000	4,959900
325,000000	4,964000
324,000000	4,896800
323,000000	4,956100
322,000000	4,969700
321,000000	4,929400
320,000000	4,856900
319,000000	4,781000
318,000000	4,928200
317,000000	5,065200
316,000000	4,823100
315,000000	4,609400
314,000000	4,608700
313,000000	4,568100
312,000000	4,579100
311,000000	4,595700
310,000000	4,572400
309,000000	4,570300
308,000000	4,553200
307,000000	4,546700
306,000000	4,582000
305,000000	4,599000
304,000000	4,596700
303,000000	4,584200
302,000000	4,610300
301,000000	4,634300
300,000000	4,613500
299,000000	4,586900
298,000000	4,573100
297,000000	4,596600
296,000000	4,588100
295,000000	4,606100
294,000000	4,630300
293,000000	4,633100
292,000000	4,635700
291,000000	4,651700
290,000000	4,633100
289,000000	4,639900
288,000000	4,685200
287,000000	4,689700
286,000000	4,656100
285,000000	4,638100
284,000000	4,616200
283,000000	4,666300
282,000000	4,676300
281,000000	4,642100
280,000000	4,655400
279,000000	4,659600
278,000000	4,654600
277,000000	4,660300
276,000000	4,685700
275,000000	4,684200
274,000000	4,755200
273,000000	4,762800
272,000000	4,743200
271,000000	4,784400
270,000000	4,790300
269,000000	4,785300
268,000000	4,808700
267,000000	4,807700
266,000000	4,803100
265,000000	4,814800
264,000000	4,836600
263,000000	4,845000
262,000000	4,895500
261,000000	4,955900
260,000000	4,975200
259,000000	4,990700
258,000000	5,023100
257,000000	5,034100
256,000000	5,012100
255,000000	4,992900
254,000000	5,026900
253,000000	4,980800
252,000000	5,016300
251,000000	5,056300
250,000000	5,023800
