PE UV       SUBTECH     SPECTRUM    ASCII       PEDS        4.00        
   -1
CICIMAUCR0071-3.Sample.ASC
24/04/18
16:44:28.00
24/04/18
16:44:28.00
Vinicio Soto Monge
C. resplendens
250,000000
1
Lambda 1050
1050L1511233
PerkinElmer UV WinLab 6.3.2.0749 / 2.02.05 Lambda 900 UV/VIS/NIR, Aug  7 2015 09:38:08

0
0
3350/servo 860,8/2
0
0
UV/VIS
1
1
1
DoubleDePol,CommonBeamDepol,RBeamAtt,SBeamAtt,60mm sphere, WB InGaAs Detector
0
0
0
0
Program
Program
3350/servo 860,8/2
3350/0,2 860,8/0,2
3350/0,2 860,8/0,2
0
15.00
 
 
 
0
 
860,8
319,2
860,8
Front
100
on
S:100 R:100
0
0
0
0
 
0
 
 
 
0
 
 
0
0
0
0
0
 
 
 
 
0
0


0
0
#HDR
-1
-1
#GR
nm
%R
1.0
0.0
2500,000000
-1,000000
2251
8
72,832800
4,915400
#DATA
2500,000000	12,747700
2499,000000	12,733900
2498,000000	12,613400
2497,000000	12,650800
2496,000000	12,622800
2495,000000	12,494700
2494,000000	12,496400
2493,000000	12,471600
2492,000000	12,532500
2491,000000	12,458600
2490,000000	12,434700
2489,000000	12,551300
2488,000000	12,520000
2487,000000	12,528800
2486,000000	12,481000
2485,000000	12,484300
2484,000000	12,497100
2483,000000	12,510400
2482,000000	12,583100
2481,000000	12,529900
2480,000000	12,492900
2479,000000	12,549800
2478,000000	12,511100
2477,000000	12,570300
2476,000000	12,570600
2475,000000	12,620000
2474,000000	12,619700
2473,000000	12,640500
2472,000000	12,641100
2471,000000	12,685300
2470,000000	12,712100
2469,000000	12,762300
2468,000000	12,742600
2467,000000	12,796700
2466,000000	12,814200
2465,000000	12,822300
2464,000000	12,885300
2463,000000	12,914300
2462,000000	12,948200
2461,000000	12,929300
2460,000000	12,976600
2459,000000	13,028000
2458,000000	13,115000
2457,000000	13,172900
2456,000000	13,230300
2455,000000	13,254700
2454,000000	13,301100
2453,000000	13,372100
2452,000000	13,465900
2451,000000	13,536400
2450,000000	13,584200
2449,000000	13,667400
2448,000000	13,744800
2447,000000	13,797300
2446,000000	13,885600
2445,000000	13,964800
2444,000000	14,045400
2443,000000	14,121600
2442,000000	14,213400
2441,000000	14,264500
2440,000000	14,340800
2439,000000	14,414500
2438,000000	14,495700
2437,000000	14,579400
2436,000000	14,660000
2435,000000	14,728500
2434,000000	14,814700
2433,000000	14,880300
2432,000000	14,956600
2431,000000	15,022300
2430,000000	15,074300
2429,000000	15,140900
2428,000000	15,222400
2427,000000	15,277900
2426,000000	15,326400
2425,000000	15,393900
2424,000000	15,447600
2423,000000	15,503500
2422,000000	15,558000
2421,000000	15,612200
2420,000000	15,669600
2419,000000	15,754000
2418,000000	15,826600
2417,000000	15,868000
2416,000000	15,908300
2415,000000	15,955900
2414,000000	15,991900
2413,000000	16,023600
2412,000000	16,075000
2411,000000	16,110400
2410,000000	16,131200
2409,000000	16,170700
2408,000000	16,218700
2407,000000	16,240000
2406,000000	16,259900
2405,000000	16,274500
2404,000000	16,307000
2403,000000	16,336000
2402,000000	16,333200
2401,000000	16,346900
2400,000000	16,377800
2399,000000	16,400000
2398,000000	16,429800
2397,000000	16,431700
2396,000000	16,433800
2395,000000	16,452900
2394,000000	16,470600
2393,000000	16,472300
2392,000000	16,498500
2391,000000	16,530500
2390,000000	16,522000
2389,000000	16,527700
2388,000000	16,537400
2387,000000	16,541000
2386,000000	16,555800
2385,000000	16,552700
2384,000000	16,566800
2383,000000	16,575400
2382,000000	16,570000
2381,000000	16,561900
2380,000000	16,553000
2379,000000	16,555500
2378,000000	16,544100
2377,000000	16,532500
2376,000000	16,526100
2375,000000	16,518300
2374,000000	16,506000
2373,000000	16,509300
2372,000000	16,514600
2371,000000	16,503800
2370,000000	16,506400
2369,000000	16,514600
2368,000000	16,516400
2367,000000	16,518600
2366,000000	16,516100
2365,000000	16,509400
2364,000000	16,514000
2363,000000	16,510600
2362,000000	16,511800
2361,000000	16,515800
2360,000000	16,496300
2359,000000	16,499600
2358,000000	16,504600
2357,000000	16,487700
2356,000000	16,464600
2355,000000	16,437600
2354,000000	16,426200
2353,000000	16,414300
2352,000000	16,391500
2351,000000	16,380600
2350,000000	16,373900
2349,000000	16,358800
2348,000000	16,345100
2347,000000	16,347000
2346,000000	16,359300
2345,000000	16,356800
2344,000000	16,347200
2343,000000	16,341700
2342,000000	16,330000
2341,000000	16,324400
2340,000000	16,331100
2339,000000	16,372700
2338,000000	16,385300
2337,000000	16,360300
2336,000000	16,385700
2335,000000	16,400700
2334,000000	16,386600
2333,000000	16,395600
2332,000000	16,415300
2331,000000	16,427900
2330,000000	16,452900
2329,000000	16,465900
2328,000000	16,479200
2327,000000	16,517700
2326,000000	16,545300
2325,000000	16,544300
2324,000000	16,561300
2323,000000	16,571200
2322,000000	16,568100
2321,000000	16,564300
2320,000000	16,557200
2319,000000	16,550600
2318,000000	16,536700
2317,000000	16,529800
2316,000000	16,489900
2315,000000	16,466000
2314,000000	16,439900
2313,000000	16,405900
2312,000000	16,367500
2311,000000	16,342500
2310,000000	16,325300
2309,000000	16,316100
2308,000000	16,276500
2307,000000	16,263300
2306,000000	16,274000
2305,000000	16,246900
2304,000000	16,249800
2303,000000	16,243500
2302,000000	16,245700
2301,000000	16,265500
2300,000000	16,270100
2299,000000	16,277300
2298,000000	16,297400
2297,000000	16,314200
2296,000000	16,334800
2295,000000	16,344600
2294,000000	16,379000
2293,000000	16,402000
2292,000000	16,436400
2291,000000	16,474300
2290,000000	16,513800
2289,000000	16,519000
2288,000000	16,557900
2287,000000	16,593100
2286,000000	16,621000
2285,000000	16,671200
2284,000000	16,689300
2283,000000	16,744500
2282,000000	16,797800
2281,000000	16,821800
2280,000000	16,853800
2279,000000	16,885300
2278,000000	16,935700
2277,000000	16,961500
2276,000000	16,980100
2275,000000	17,007500
2274,000000	17,032600
2273,000000	17,054300
2272,000000	17,093400
2271,000000	17,155500
2270,000000	17,183100
2269,000000	17,192400
2268,000000	17,238000
2267,000000	17,298400
2266,000000	17,358700
2265,000000	17,407400
2264,000000	17,471000
2263,000000	17,560900
2262,000000	17,626400
2261,000000	17,730100
2260,000000	17,821600
2259,000000	17,933100
2258,000000	18,078600
2257,000000	18,190600
2256,000000	18,317100
2255,000000	18,449800
2254,000000	18,604300
2253,000000	18,727100
2252,000000	18,863000
2251,000000	18,990500
2250,000000	19,099800
2249,000000	19,281700
2248,000000	19,391900
2247,000000	19,478400
2246,000000	19,595700
2245,000000	19,722200
2244,000000	19,809000
2243,000000	19,908000
2242,000000	19,981000
2241,000000	20,042900
2240,000000	20,098700
2239,000000	20,195100
2238,000000	20,230500
2237,000000	20,275700
2236,000000	20,273200
2235,000000	20,302500
2234,000000	20,349900
2233,000000	20,348900
2232,000000	20,346600
2231,000000	20,343200
2230,000000	20,306400
2229,000000	20,313000
2228,000000	20,296100
2227,000000	20,256100
2226,000000	20,223900
2225,000000	20,173400
2224,000000	20,145400
2223,000000	20,085700
2222,000000	20,036800
2221,000000	19,971500
2220,000000	19,905500
2219,000000	19,870000
2218,000000	19,786800
2217,000000	19,723900
2216,000000	19,646300
2215,000000	19,592600
2214,000000	19,547100
2213,000000	19,464000
2212,000000	19,422800
2211,000000	19,346600
2210,000000	19,296600
2209,000000	19,248000
2208,000000	19,197500
2207,000000	19,144500
2206,000000	19,098900
2205,000000	19,077000
2204,000000	19,018800
2203,000000	18,985500
2202,000000	18,946500
2201,000000	18,920700
2200,000000	18,888100
2199,000000	18,854200
2198,000000	18,778300
2197,000000	18,770300
2196,000000	18,747100
2195,000000	18,704400
2194,000000	18,673000
2193,000000	18,649700
2192,000000	18,636000
2191,000000	18,603400
2190,000000	18,593000
2189,000000	18,545200
2188,000000	18,524800
2187,000000	18,495200
2186,000000	18,470200
2185,000000	18,466100
2184,000000	18,431900
2183,000000	18,394000
2182,000000	18,389800
2181,000000	18,360700
2180,000000	18,334500
2179,000000	18,316300
2178,000000	18,277000
2177,000000	18,276300
2176,000000	18,262000
2175,000000	18,246500
2174,000000	18,226600
2173,000000	18,228400
2172,000000	18,207500
2171,000000	18,230000
2170,000000	18,223400
2169,000000	18,234300
2168,000000	18,243800
2167,000000	18,260200
2166,000000	18,263200
2165,000000	18,298300
2164,000000	18,327300
2163,000000	18,363400
2162,000000	18,392600
2161,000000	18,426100
2160,000000	18,473000
2159,000000	18,529100
2158,000000	18,589200
2157,000000	18,661900
2156,000000	18,730500
2155,000000	18,804500
2154,000000	18,866700
2153,000000	18,947700
2152,000000	19,050400
2151,000000	19,131800
2150,000000	19,227000
2149,000000	19,307200
2148,000000	19,394400
2147,000000	19,476800
2146,000000	19,556900
2145,000000	19,642000
2144,000000	19,728900
2143,000000	19,818900
2142,000000	19,913400
2141,000000	19,995100
2140,000000	20,075000
2139,000000	20,162600
2138,000000	20,243600
2137,000000	20,315200
2136,000000	20,393400
2135,000000	20,467800
2134,000000	20,546300
2133,000000	20,619100
2132,000000	20,678900
2131,000000	20,747500
2130,000000	20,825300
2129,000000	20,875200
2128,000000	20,934300
2127,000000	20,998700
2126,000000	21,041500
2125,000000	21,099200
2124,000000	21,159200
2123,000000	21,195700
2122,000000	21,236300
2121,000000	21,295200
2120,000000	21,319600
2119,000000	21,339600
2118,000000	21,368300
2117,000000	21,400600
2116,000000	21,420100
2115,000000	21,419400
2114,000000	21,443500
2113,000000	21,472400
2112,000000	21,486700
2111,000000	21,491200
2110,000000	21,508300
2109,000000	21,522200
2108,000000	21,517900
2107,000000	21,520100
2106,000000	21,520300
2105,000000	21,526900
2104,000000	21,536700
2103,000000	21,551300
2102,000000	21,544000
2101,000000	21,548200
2100,000000	21,566000
2099,000000	21,558100
2098,000000	21,562100
2097,000000	21,581100
2096,000000	21,592300
2095,000000	21,606500
2094,000000	21,612900
2093,000000	21,625600
2092,000000	21,647000
2091,000000	21,679400
2090,000000	21,698400
2089,000000	21,720700
2088,000000	21,744200
2087,000000	21,754200
2086,000000	21,779600
2085,000000	21,778100
2084,000000	21,764500
2083,000000	21,760900
2082,000000	21,754800
2081,000000	21,747200
2080,000000	21,714500
2079,000000	21,684900
2078,000000	21,635900
2077,000000	21,605700
2076,000000	21,570100
2075,000000	21,514900
2074,000000	21,451700
2073,000000	21,397000
2072,000000	21,330400
2071,000000	21,246000
2070,000000	21,151900
2069,000000	21,075200
2068,000000	20,995100
2067,000000	20,912200
2066,000000	20,816800
2065,000000	20,721900
2064,000000	20,628400
2063,000000	20,537900
2062,000000	20,455700
2061,000000	20,367500
2060,000000	20,292100
2059,000000	20,232500
2058,000000	20,171700
2057,000000	20,113600
2056,000000	20,067800
2055,000000	20,053200
2054,000000	20,058300
2053,000000	20,057700
2052,000000	20,086700
2051,000000	20,115300
2050,000000	20,179700
2049,000000	20,266100
2048,000000	20,350100
2047,000000	20,456200
2046,000000	20,550600
2045,000000	20,670200
2044,000000	20,795800
2043,000000	20,936400
2042,000000	21,058700
2041,000000	21,165600
2040,000000	21,281400
2039,000000	21,417200
2038,000000	21,552000
2037,000000	21,665900
2036,000000	21,778800
2035,000000	21,886500
2034,000000	21,989200
2033,000000	22,086300
2032,000000	22,171200
2031,000000	22,251900
2030,000000	22,353000
2029,000000	22,435700
2028,000000	22,498000
2027,000000	22,554800
2026,000000	22,623000
2025,000000	22,705500
2024,000000	22,760500
2023,000000	22,821600
2022,000000	22,871100
2021,000000	22,910000
2020,000000	22,941000
2019,000000	22,988800
2018,000000	23,010000
2017,000000	23,026900
2016,000000	23,066100
2015,000000	23,086700
2014,000000	23,109600
2013,000000	23,107400
2012,000000	23,100900
2011,000000	23,098800
2010,000000	23,092800
2009,000000	23,102100
2008,000000	23,068400
2007,000000	23,064300
2006,000000	23,027200
2005,000000	22,986500
2004,000000	22,955500
2003,000000	22,921900
2002,000000	22,881100
2001,000000	22,826800
2000,000000	22,759300
1999,000000	22,708000
1998,000000	22,634600
1997,000000	22,584700
1996,000000	22,517700
1995,000000	22,448100
1994,000000	22,378700
1993,000000	22,294300
1992,000000	22,205200
1991,000000	22,132300
1990,000000	22,058200
1989,000000	21,978000
1988,000000	21,872200
1987,000000	21,785600
1986,000000	21,697800
1985,000000	21,613800
1984,000000	21,538400
1983,000000	21,417100
1982,000000	21,308700
1981,000000	21,240100
1980,000000	21,163200
1979,000000	21,065800
1978,000000	20,978300
1977,000000	20,889200
1976,000000	20,810300
1975,000000	20,723000
1974,000000	20,631500
1973,000000	20,541100
1972,000000	20,486900
1971,000000	20,375700
1970,000000	20,291600
1969,000000	20,218000
1968,000000	20,154100
1967,000000	20,053800
1966,000000	19,957200
1965,000000	19,868800
1964,000000	19,802000
1963,000000	19,705200
1962,000000	19,635800
1961,000000	19,553900
1960,000000	19,469600
1959,000000	19,383300
1958,000000	19,305000
1957,000000	19,220700
1956,000000	19,139600
1955,000000	19,041400
1954,000000	18,978100
1953,000000	18,900700
1952,000000	18,806900
1951,000000	18,734600
1950,000000	18,660200
1949,000000	18,593800
1948,000000	18,519400
1947,000000	18,450800
1946,000000	18,394500
1945,000000	18,349100
1944,000000	18,278400
1943,000000	18,253000
1942,000000	18,179400
1941,000000	18,142700
1940,000000	18,115000
1939,000000	18,118300
1938,000000	18,103600
1937,000000	18,090200
1936,000000	18,091800
1935,000000	18,104800
1934,000000	18,091500
1933,000000	18,136200
1932,000000	18,142900
1931,000000	18,168100
1930,000000	18,203700
1929,000000	18,275400
1928,000000	18,362400
1927,000000	18,445300
1926,000000	18,552500
1925,000000	18,652200
1924,000000	18,736900
1923,000000	18,802800
1922,000000	18,969800
1921,000000	19,141800
1920,000000	19,355800
1919,000000	19,555500
1918,000000	19,719900
1917,000000	19,860400
1916,000000	19,989200
1915,000000	20,162600
1914,000000	20,431300
1913,000000	20,763800
1912,000000	21,092800
1911,000000	21,372700
1910,000000	21,638900
1909,000000	21,834400
1908,000000	22,081500
1907,000000	22,407300
1906,000000	22,821000
1905,000000	23,341200
1904,000000	23,823700
1903,000000	24,206000
1902,000000	24,607200
1901,000000	25,034300
1900,000000	25,539600
1899,000000	26,156600
1898,000000	26,698700
1897,000000	27,237500
1896,000000	27,663000
1895,000000	28,035000
1894,000000	28,477900
1893,000000	28,970800
1892,000000	29,540300
1891,000000	30,151500
1890,000000	30,686000
1889,000000	31,155000
1888,000000	31,641400
1887,000000	32,039200
1886,000000	32,444900
1885,000000	32,873000
1884,000000	33,340200
1883,000000	33,787600
1882,000000	34,143500
1881,000000	34,463100
1880,000000	34,735100
1879,000000	34,984900
1878,000000	35,280300
1877,000000	35,556600
1876,000000	35,814300
1875,000000	36,053100
1874,000000	36,292400
1873,000000	36,561100
1872,000000	36,825500
1871,000000	37,058200
1870,000000	37,301000
1869,000000	37,515200
1868,000000	37,680900
1867,000000	37,799200
1866,000000	37,836200
1865,000000	37,888000
1864,000000	37,942600
1863,000000	37,954100
1862,000000	38,015800
1861,000000	38,112800
1860,000000	38,226600
1859,000000	38,335500
1858,000000	38,426500
1857,000000	38,493000
1856,000000	38,519200
1855,000000	38,546300
1854,000000	38,620700
1853,000000	38,661400
1852,000000	38,670800
1851,000000	38,670000
1850,000000	38,638100
1849,000000	38,632600
1848,000000	38,725500
1847,000000	38,863500
1846,000000	38,882900
1845,000000	38,787900
1844,000000	38,667700
1843,000000	38,589200
1842,000000	38,623500
1841,000000	38,699600
1840,000000	38,709700
1839,000000	38,674000
1838,000000	38,619500
1837,000000	38,624800
1836,000000	38,646900
1835,000000	38,642000
1834,000000	38,584500
1833,000000	38,483700
1832,000000	38,416200
1831,000000	38,386000
1830,000000	38,398300
1829,000000	38,396900
1828,000000	38,351100
1827,000000	38,316800
1826,000000	38,326500
1825,000000	38,317200
1824,000000	38,262300
1823,000000	38,209200
1822,000000	38,233700
1821,000000	38,307700
1820,000000	38,365800
1819,000000	38,369300
1818,000000	38,325900
1817,000000	38,280900
1816,000000	38,276100
1815,000000	38,288000
1814,000000	38,283700
1813,000000	38,267100
1812,000000	38,236700
1811,000000	38,225900
1810,000000	38,192600
1809,000000	38,150500
1808,000000	38,117000
1807,000000	38,094100
1806,000000	38,094200
1805,000000	38,072800
1804,000000	38,043000
1803,000000	38,018500
1802,000000	38,011300
1801,000000	38,000200
1800,000000	37,980900
1799,000000	37,951600
1798,000000	37,922300
1797,000000	37,896400
1796,000000	37,890500
1795,000000	37,867800
1794,000000	37,849800
1793,000000	37,846400
1792,000000	37,830300
1791,000000	37,802000
1790,000000	37,789400
1789,000000	37,798000
1788,000000	37,797800
1787,000000	37,789200
1786,000000	37,804100
1785,000000	37,805200
1784,000000	37,806900
1783,000000	37,791700
1782,000000	37,797200
1781,000000	37,788100
1780,000000	37,766000
1779,000000	37,714000
1778,000000	37,685600
1777,000000	37,664100
1776,000000	37,624600
1775,000000	37,586100
1774,000000	37,544900
1773,000000	37,497200
1772,000000	37,461500
1771,000000	37,414400
1770,000000	37,379800
1769,000000	37,335300
1768,000000	37,274600
1767,000000	37,231100
1766,000000	37,191100
1765,000000	37,175200
1764,000000	37,142400
1763,000000	37,119700
1762,000000	37,099600
1761,000000	37,104200
1760,000000	37,112400
1759,000000	37,125900
1758,000000	37,123500
1757,000000	37,135800
1756,000000	37,138800
1755,000000	37,156200
1754,000000	37,159500
1753,000000	37,175300
1752,000000	37,178500
1751,000000	37,175400
1750,000000	37,166400
1749,000000	37,150700
1748,000000	37,120100
1747,000000	37,067800
1746,000000	37,040700
1745,000000	36,979900
1744,000000	36,923000
1743,000000	36,855800
1742,000000	36,774200
1741,000000	36,692700
1740,000000	36,612900
1739,000000	36,529100
1738,000000	36,439700
1737,000000	36,372200
1736,000000	36,298300
1735,000000	36,212100
1734,000000	36,140900
1733,000000	36,072100
1732,000000	36,000500
1731,000000	35,932900
1730,000000	35,878000
1729,000000	35,822700
1728,000000	35,784600
1727,000000	35,711800
1726,000000	35,692400
1725,000000	35,663400
1724,000000	35,663800
1723,000000	35,686700
1722,000000	35,755600
1721,000000	35,851100
1720,000000	35,979300
1719,000000	36,137200
1718,000000	36,332500
1717,000000	36,540000
1716,000000	36,737700
1715,000000	36,939100
1714,000000	37,137600
1713,000000	37,307300
1712,000000	37,477100
1711,000000	37,628800
1710,000000	37,753700
1709,000000	37,858500
1708,000000	37,980300
1707,000000	38,066400
1706,000000	38,165100
1705,000000	38,245700
1704,000000	38,303100
1703,000000	38,349400
1702,000000	38,396500
1701,000000	38,438000
1700,000000	38,464200
1699,000000	38,495500
1698,000000	38,517100
1697,000000	38,530900
1696,000000	38,524300
1695,000000	38,486200
1694,000000	38,424300
1693,000000	38,377400
1692,000000	38,299900
1691,000000	38,228400
1690,000000	38,161200
1689,000000	38,133300
1688,000000	38,132900
1687,000000	38,165600
1686,000000	38,246600
1685,000000	38,387300
1684,000000	38,533800
1683,000000	38,686700
1682,000000	38,886700
1681,000000	39,082800
1680,000000	39,292300
1679,000000	39,461400
1678,000000	39,653300
1677,000000	39,812500
1676,000000	39,938300
1675,000000	40,092100
1674,000000	40,212400
1673,000000	40,376800
1672,000000	40,515000
1671,000000	40,658900
1670,000000	40,799100
1669,000000	40,971800
1668,000000	41,117100
1667,000000	41,290100
1666,000000	41,417700
1665,000000	41,563400
1664,000000	41,701600
1663,000000	41,822700
1662,000000	41,969200
1661,000000	42,106100
1660,000000	42,209000
1659,000000	42,299500
1658,000000	42,401800
1657,000000	42,472000
1656,000000	42,560700
1655,000000	42,623500
1654,000000	42,679400
1653,000000	42,701600
1652,000000	42,752000
1651,000000	42,776100
1650,000000	42,801500
1649,000000	42,811700
1648,000000	42,819600
1647,000000	42,825900
1646,000000	42,829100
1645,000000	42,833700
1644,000000	42,839700
1643,000000	42,838300
1642,000000	42,825200
1641,000000	42,856700
1640,000000	42,852100
1639,000000	42,840500
1638,000000	42,832800
1637,000000	42,828100
1636,000000	42,820100
1635,000000	42,804000
1634,000000	42,776700
1633,000000	42,760700
1632,000000	42,735700
1631,000000	42,727900
1630,000000	42,711500
1629,000000	42,670000
1628,000000	42,619300
1627,000000	42,605400
1626,000000	42,572800
1625,000000	42,537700
1624,000000	42,518300
1623,000000	42,481500
1622,000000	42,459000
1621,000000	42,419800
1620,000000	42,386800
1619,000000	42,365000
1618,000000	42,340400
1617,000000	42,304800
1616,000000	42,277900
1615,000000	42,244000
1614,000000	42,219500
1613,000000	42,191300
1612,000000	42,151600
1611,000000	42,119500
1610,000000	42,080100
1609,000000	42,046900
1608,000000	41,992700
1607,000000	41,941100
1606,000000	41,890800
1605,000000	41,835400
1604,000000	41,770700
1603,000000	41,706500
1602,000000	41,645900
1601,000000	41,576900
1600,000000	41,522600
1599,000000	41,465200
1598,000000	41,416400
1597,000000	41,374400
1596,000000	41,320800
1595,000000	41,257400
1594,000000	41,208000
1593,000000	41,158200
1592,000000	41,118900
1591,000000	41,075400
1590,000000	41,036600
1589,000000	41,005000
1588,000000	40,961000
1587,000000	40,923700
1586,000000	40,887400
1585,000000	40,839200
1584,000000	40,806500
1583,000000	40,782100
1582,000000	40,745200
1581,000000	40,711900
1580,000000	40,685300
1579,000000	40,655300
1578,000000	40,621100
1577,000000	40,605300
1576,000000	40,587100
1575,000000	40,584200
1574,000000	40,578700
1573,000000	40,563900
1572,000000	40,580100
1571,000000	40,583900
1570,000000	40,590900
1569,000000	40,615700
1568,000000	40,624800
1567,000000	40,628300
1566,000000	40,633600
1565,000000	40,664900
1564,000000	40,671400
1563,000000	40,653600
1562,000000	40,662800
1561,000000	40,663100
1560,000000	40,647500
1559,000000	40,640100
1558,000000	40,622700
1557,000000	40,581800
1556,000000	40,551300
1555,000000	40,497700
1554,000000	40,436800
1553,000000	40,384800
1552,000000	40,342800
1551,000000	40,297400
1550,000000	40,197900
1549,000000	40,109900
1548,000000	40,046700
1547,000000	39,989400
1546,000000	39,935500
1545,000000	39,880200
1544,000000	39,828200
1543,000000	39,772400
1542,000000	39,723100
1541,000000	39,689000
1540,000000	39,642900
1539,000000	39,611600
1538,000000	39,573200
1537,000000	39,529900
1536,000000	39,502700
1535,000000	39,466400
1534,000000	39,402500
1533,000000	39,350300
1532,000000	39,316100
1531,000000	39,288200
1530,000000	39,233400
1529,000000	39,174400
1528,000000	39,125400
1527,000000	39,073200
1526,000000	39,006900
1525,000000	38,946000
1524,000000	38,893600
1523,000000	38,838400
1522,000000	38,778400
1521,000000	38,735600
1520,000000	38,679600
1519,000000	38,605500
1518,000000	38,540000
1517,000000	38,478400
1516,000000	38,403900
1515,000000	38,345700
1514,000000	38,287200
1513,000000	38,237300
1512,000000	38,161500
1511,000000	38,098900
1510,000000	38,026100
1509,000000	37,950100
1508,000000	37,899500
1507,000000	37,837700
1506,000000	37,772300
1505,000000	37,730300
1504,000000	37,674100
1503,000000	37,611000
1502,000000	37,564200
1501,000000	37,518300
1500,000000	37,473000
1499,000000	37,446000
1498,000000	37,414300
1497,000000	37,385000
1496,000000	37,383200
1495,000000	37,365200
1494,000000	37,353600
1493,000000	37,346300
1492,000000	37,361800
1491,000000	37,374200
1490,000000	37,386100
1489,000000	37,399600
1488,000000	37,417600
1487,000000	37,427000
1486,000000	37,443600
1485,000000	37,457900
1484,000000	37,486600
1483,000000	37,500500
1482,000000	37,525000
1481,000000	37,552500
1480,000000	37,575000
1479,000000	37,594500
1478,000000	37,621600
1477,000000	37,650800
1476,000000	37,709700
1475,000000	37,734800
1474,000000	37,767900
1473,000000	37,826200
1472,000000	37,916700
1471,000000	37,978300
1470,000000	38,018300
1469,000000	38,082500
1468,000000	38,138900
1467,000000	38,201200
1466,000000	38,304200
1465,000000	38,365600
1464,000000	38,435300
1463,000000	38,519200
1462,000000	38,589000
1461,000000	38,669800
1460,000000	38,756300
1459,000000	38,839200
1458,000000	38,919400
1457,000000	39,008800
1456,000000	39,086900
1455,000000	39,173600
1454,000000	39,254700
1453,000000	39,341000
1452,000000	39,433400
1451,000000	39,508000
1450,000000	39,616800
1449,000000	39,663400
1448,000000	39,733300
1447,000000	39,821400
1446,000000	39,929100
1445,000000	40,027000
1444,000000	40,086800
1443,000000	40,156000
1442,000000	40,260000
1441,000000	40,369300
1440,000000	40,456900
1439,000000	40,552800
1438,000000	40,686400
1437,000000	40,783200
1436,000000	40,884200
1435,000000	40,996600
1434,000000	41,130100
1433,000000	41,280200
1432,000000	41,441900
1431,000000	41,576300
1430,000000	41,687700
1429,000000	41,856400
1428,000000	42,046000
1427,000000	42,221800
1426,000000	42,385100
1425,000000	42,597800
1424,000000	42,816100
1423,000000	43,022900
1422,000000	43,241700
1421,000000	43,469800
1420,000000	43,729500
1419,000000	44,048800
1418,000000	44,306200
1417,000000	44,552400
1416,000000	44,789500
1415,000000	45,081800
1414,000000	45,488400
1413,000000	45,787400
1412,000000	46,048000
1411,000000	46,389300
1410,000000	46,772400
1409,000000	47,200400
1408,000000	47,579200
1407,000000	47,963400
1406,000000	48,319200
1405,000000	48,725500
1404,000000	49,060500
1403,000000	49,412000
1402,000000	49,742600
1401,000000	50,188500
1400,000000	50,672100
1399,000000	50,999600
1398,000000	51,145400
1397,000000	51,459600
1396,000000	51,871000
1395,000000	52,310500
1394,000000	52,525900
1393,000000	52,746200
1392,000000	53,040800
1391,000000	53,365600
1390,000000	53,581000
1389,000000	53,845100
1388,000000	54,229300
1387,000000	54,498200
1386,000000	54,726000
1385,000000	54,969800
1384,000000	55,277400
1383,000000	55,485900
1382,000000	55,746700
1381,000000	55,930400
1380,000000	56,015600
1379,000000	56,153400
1378,000000	56,253900
1377,000000	56,352400
1376,000000	56,457400
1375,000000	56,589100
1374,000000	56,668800
1373,000000	56,797800
1372,000000	56,936700
1371,000000	57,095600
1370,000000	57,207100
1369,000000	57,316600
1368,000000	57,481600
1367,000000	57,576600
1366,000000	57,659700
1365,000000	57,787600
1364,000000	57,917200
1363,000000	57,994700
1362,000000	58,160000
1361,000000	58,238100
1360,000000	58,266800
1359,000000	58,252800
1358,000000	58,345200
1357,000000	58,426400
1356,000000	58,523100
1355,000000	58,658500
1354,000000	58,790500
1353,000000	58,896200
1352,000000	59,020800
1351,000000	59,181000
1350,000000	59,349800
1349,000000	59,529100
1348,000000	59,725800
1347,000000	59,896900
1346,000000	60,051800
1345,000000	60,208300
1344,000000	60,408000
1343,000000	60,569800
1342,000000	60,707900
1341,000000	60,871900
1340,000000	60,998700
1339,000000	61,126600
1338,000000	61,258700
1337,000000	61,393400
1336,000000	61,526400
1335,000000	61,630400
1334,000000	61,731100
1333,000000	61,836600
1332,000000	61,945600
1331,000000	62,044500
1330,000000	62,135500
1329,000000	62,206200
1328,000000	62,285200
1327,000000	62,347500
1326,000000	62,415200
1325,000000	62,484500
1324,000000	62,545600
1323,000000	62,601200
1322,000000	62,662400
1321,000000	62,716200
1320,000000	62,765000
1319,000000	62,812200
1318,000000	62,856200
1317,000000	62,903600
1316,000000	62,943800
1315,000000	62,982900
1314,000000	63,029100
1313,000000	63,059900
1312,000000	63,087600
1311,000000	63,118100
1310,000000	63,150000
1309,000000	63,179300
1308,000000	63,199900
1307,000000	63,223200
1306,000000	63,240200
1305,000000	63,249800
1304,000000	63,267700
1303,000000	63,284700
1302,000000	63,297400
1301,000000	63,314300
1300,000000	63,312500
1299,000000	63,314100
1298,000000	63,317100
1297,000000	63,316700
1296,000000	63,315500
1295,000000	63,307800
1294,000000	63,313200
1293,000000	63,317800
1292,000000	63,309200
1291,000000	63,293700
1290,000000	63,270000
1289,000000	63,246700
1288,000000	63,229600
1287,000000	63,206000
1286,000000	63,187200
1285,000000	63,170800
1284,000000	63,157900
1283,000000	63,132800
1282,000000	63,107000
1281,000000	63,089000
1280,000000	63,082100
1279,000000	63,060600
1278,000000	63,035900
1277,000000	63,025900
1276,000000	63,036700
1275,000000	63,042000
1274,000000	63,038100
1273,000000	63,037400
1272,000000	63,048400
1271,000000	63,058700
1270,000000	63,061900
1269,000000	63,063500
1268,000000	63,065900
1267,000000	63,077600
1266,000000	63,081800
1265,000000	63,089900
1264,000000	63,097300
1263,000000	63,084700
1262,000000	63,082300
1261,000000	63,078200
1260,000000	63,084100
1259,000000	63,080000
1258,000000	63,073900
1257,000000	63,079100
1256,000000	63,062400
1255,000000	63,060400
1254,000000	63,055700
1253,000000	63,054700
1252,000000	63,029700
1251,000000	63,007000
1250,000000	62,971800
1249,000000	62,915200
1248,000000	62,881700
1247,000000	62,852100
1246,000000	62,811800
1245,000000	62,757500
1244,000000	62,714800
1243,000000	62,657800
1242,000000	62,625000
1241,000000	62,590700
1240,000000	62,536600
1239,000000	62,495100
1238,000000	62,455600
1237,000000	62,413900
1236,000000	62,382100
1235,000000	62,336900
1234,000000	62,293500
1233,000000	62,252100
1232,000000	62,202300
1231,000000	62,154700
1230,000000	62,118900
1229,000000	62,064200
1228,000000	62,025900
1227,000000	61,974900
1226,000000	61,905100
1225,000000	61,864600
1224,000000	61,801000
1223,000000	61,757100
1222,000000	61,701800
1221,000000	61,638400
1220,000000	61,584900
1219,000000	61,533000
1218,000000	61,466000
1217,000000	61,400600
1216,000000	61,351000
1215,000000	61,321400
1214,000000	61,268200
1213,000000	61,215700
1212,000000	61,157300
1211,000000	61,108600
1210,000000	61,073000
1209,000000	61,014200
1208,000000	60,950100
1207,000000	60,919100
1206,000000	60,881100
1205,000000	60,836500
1204,000000	60,800700
1203,000000	60,744100
1202,000000	60,706200
1201,000000	60,648800
1200,000000	60,621000
1199,000000	60,558700
1198,000000	60,510400
1197,000000	60,466300
1196,000000	60,400800
1195,000000	60,335000
1194,000000	60,273100
1193,000000	60,206400
1192,000000	60,133800
1191,000000	60,073900
1190,000000	60,031200
1189,000000	59,977600
1188,000000	59,949700
1187,000000	59,920200
1186,000000	59,920500
1185,000000	59,911200
1184,000000	59,929900
1183,000000	59,964900
1182,000000	59,999700
1181,000000	60,036400
1180,000000	60,087800
1179,000000	60,110100
1178,000000	60,157900
1177,000000	60,231900
1176,000000	60,275900
1175,000000	60,322900
1174,000000	60,363100
1173,000000	60,427800
1172,000000	60,480000
1171,000000	60,554400
1170,000000	60,636600
1169,000000	60,722200
1168,000000	60,813200
1167,000000	60,909100
1166,000000	61,044900
1165,000000	61,153900
1164,000000	61,271000
1163,000000	61,382500
1162,000000	61,507400
1161,000000	61,649000
1160,000000	61,773300
1159,000000	61,894800
1158,000000	62,001500
1157,000000	62,129400
1156,000000	62,240900
1155,000000	62,335700
1154,000000	62,450200
1153,000000	62,516500
1152,000000	62,599600
1151,000000	62,669800
1150,000000	62,719400
1149,000000	62,786800
1148,000000	62,852500
1147,000000	62,926300
1146,000000	62,980900
1145,000000	63,057300
1144,000000	63,111500
1143,000000	63,164300
1142,000000	63,213300
1141,000000	63,289000
1140,000000	63,350200
1139,000000	63,442100
1138,000000	63,507900
1137,000000	63,596100
1136,000000	63,682500
1135,000000	63,800700
1134,000000	63,911600
1133,000000	63,937200
1132,000000	63,987800
1131,000000	64,071600
1130,000000	64,109900
1129,000000	64,196800
1128,000000	64,246100
1127,000000	64,271500
1126,000000	64,304600
1125,000000	64,336000
1124,000000	64,355400
1123,000000	64,371700
1122,000000	64,387000
1121,000000	64,364400
1120,000000	64,354900
1119,000000	64,341800
1118,000000	64,313900
1117,000000	64,303400
1116,000000	64,287800
1115,000000	64,266600
1114,000000	64,228400
1113,000000	64,211600
1112,000000	64,183500
1111,000000	64,162300
1110,000000	64,136500
1109,000000	64,114000
1108,000000	64,076300
1107,000000	64,052800
1106,000000	64,010600
1105,000000	64,000500
1104,000000	63,976900
1103,000000	63,929300
1102,000000	63,901000
1101,000000	63,875300
1100,000000	63,845800
1099,000000	63,832600
1098,000000	63,783300
1097,000000	63,742000
1096,000000	63,733400
1095,000000	63,712900
1094,000000	63,685000
1093,000000	63,640400
1092,000000	63,599800
1091,000000	63,584300
1090,000000	63,547300
1089,000000	63,508100
1088,000000	63,451000
1087,000000	63,422400
1086,000000	63,388900
1085,000000	63,352400
1084,000000	63,322900
1083,000000	63,274900
1082,000000	63,230000
1081,000000	63,194200
1080,000000	63,146500
1079,000000	63,101400
1078,000000	63,071700
1077,000000	63,025700
1076,000000	62,967100
1075,000000	62,919000
1074,000000	62,883900
1073,000000	62,844500
1072,000000	62,775400
1071,000000	62,731600
1070,000000	62,685700
1069,000000	62,631300
1068,000000	62,586100
1067,000000	62,552700
1066,000000	62,497400
1065,000000	62,440800
1064,000000	62,390500
1063,000000	62,343200
1062,000000	62,289000
1061,000000	62,222300
1060,000000	62,151300
1059,000000	62,095200
1058,000000	62,043100
1057,000000	61,992100
1056,000000	61,930600
1055,000000	61,879500
1054,000000	61,834400
1053,000000	61,770600
1052,000000	61,716800
1051,000000	61,656200
1050,000000	61,613500
1049,000000	61,566400
1048,000000	61,507000
1047,000000	61,452000
1046,000000	61,393300
1045,000000	61,342500
1044,000000	61,287800
1043,000000	61,226100
1042,000000	61,176600
1041,000000	61,131100
1040,000000	61,079100
1039,000000	61,016300
1038,000000	60,958900
1037,000000	60,915900
1036,000000	60,858700
1035,000000	60,808600
1034,000000	60,767000
1033,000000	60,712500
1032,000000	60,654000
1031,000000	60,595700
1030,000000	60,538900
1029,000000	60,485800
1028,000000	60,433800
1027,000000	60,367100
1026,000000	60,312600
1025,000000	60,255400
1024,000000	60,194000
1023,000000	60,147700
1022,000000	60,099200
1021,000000	60,038300
1020,000000	59,983700
1019,000000	59,911000
1018,000000	59,840800
1017,000000	59,787500
1016,000000	59,729600
1015,000000	59,685300
1014,000000	59,641500
1013,000000	59,578600
1012,000000	59,520600
1011,000000	59,489300
1010,000000	59,452300
1009,000000	59,392100
1008,000000	59,350400
1007,000000	59,318200
1006,000000	59,247300
1005,000000	59,179300
1004,000000	59,141600
1003,000000	59,108200
1002,000000	59,062000
1001,000000	59,014400
1000,000000	58,977600
999,000000	58,921900
998,000000	58,885900
997,000000	58,835600
996,000000	58,798700
995,000000	58,771400
994,000000	58,709900
993,000000	58,667900
992,000000	58,628700
991,000000	58,591800
990,000000	58,530300
989,000000	58,501400
988,000000	58,473600
987,000000	58,418100
986,000000	58,350900
985,000000	58,309300
984,000000	58,286100
983,000000	58,248400
982,000000	58,214300
981,000000	58,174200
980,000000	58,132500
979,000000	58,109500
978,000000	58,078300
977,000000	58,027500
976,000000	57,981700
975,000000	57,966500
974,000000	57,918700
973,000000	57,873300
972,000000	57,832800
971,000000	57,799900
970,000000	57,775600
969,000000	57,735300
968,000000	57,697900
967,000000	57,661600
966,000000	57,645600
965,000000	57,625300
964,000000	57,589000
963,000000	57,547600
962,000000	57,537300
961,000000	57,511000
960,000000	57,495200
959,000000	57,493900
958,000000	57,484100
957,000000	57,447800
956,000000	57,440900
955,000000	57,442700
954,000000	57,439100
953,000000	57,425300
952,000000	57,415500
951,000000	57,386900
950,000000	57,397400
949,000000	57,384400
948,000000	57,384600
947,000000	57,371500
946,000000	57,362200
945,000000	57,392400
944,000000	57,385400
943,000000	57,375100
942,000000	57,375200
941,000000	57,388300
940,000000	57,352200
939,000000	57,367200
938,000000	57,353800
937,000000	57,365100
936,000000	57,381000
935,000000	57,407700
934,000000	57,432000
933,000000	57,425000
932,000000	57,427200
931,000000	57,431200
930,000000	57,425800
929,000000	57,429500
928,000000	57,424100
927,000000	57,441400
926,000000	57,423900
925,000000	57,446100
924,000000	57,443300
923,000000	57,480600
922,000000	57,472000
921,000000	57,458400
920,000000	57,481300
919,000000	57,468800
918,000000	57,503900
917,000000	57,504700
916,000000	57,525200
915,000000	57,565700
914,000000	57,570200
913,000000	57,600000
912,000000	57,609500
911,000000	57,618800
910,000000	57,680900
909,000000	57,692300
908,000000	57,708900
907,000000	57,741500
906,000000	57,755300
905,000000	57,771700
904,000000	57,825300
903,000000	57,847000
902,000000	57,882700
901,000000	57,902400
900,000000	57,942600
899,000000	57,934300
898,000000	57,941000
897,000000	57,942000
896,000000	57,945800
895,000000	57,944400
894,000000	57,942200
893,000000	57,975800
892,000000	57,976600
891,000000	57,982100
890,000000	57,967600
889,000000	57,970500
888,000000	57,906700
887,000000	57,911600
886,000000	57,861900
885,000000	57,830700
884,000000	57,811800
883,000000	57,760100
882,000000	57,711100
881,000000	57,695100
880,000000	57,637500
879,000000	57,567300
878,000000	57,521700
877,000000	57,432200
876,000000	57,355800
875,000000	57,294800
874,000000	57,224800
873,000000	57,095800
872,000000	57,026200
871,000000	56,888400
870,000000	56,857100
869,000000	56,798000
868,000000	56,652400
867,000000	56,556500
866,000000	56,426300
865,000000	56,327200
864,000000	56,133600
863,000000	55,956100
862,000000	55,793800
861,000000	55,559000
860,000000	55,287400
859,000000	55,077800
858,000000	55,776400
857,000000	60,413100
856,000000	60,379800
855,000000	60,764900
854,000000	60,242800
853,000000	60,314000
852,000000	60,660600
851,000000	60,683700
850,000000	60,566600
849,000000	60,585000
848,000000	60,728200
847,000000	60,583500
846,000000	60,894400
845,000000	61,076300
844,000000	60,994400
843,000000	60,953400
842,000000	61,085700
841,000000	61,185200
840,000000	61,067800
839,000000	61,168100
838,000000	61,173600
837,000000	61,274600
836,000000	61,031700
835,000000	61,259700
834,000000	61,025100
833,000000	61,069100
832,000000	61,206000
831,000000	61,237800
830,000000	61,009900
829,000000	61,111700
828,000000	61,180300
827,000000	61,211400
826,000000	61,121800
825,000000	61,225000
824,000000	61,221100
823,000000	61,112000
822,000000	61,122700
821,000000	61,208500
820,000000	61,282600
819,000000	61,201000
818,000000	61,358400
817,000000	61,340000
816,000000	61,466400
815,000000	61,554300
814,000000	61,602700
813,000000	61,681500
812,000000	61,690000
811,000000	61,705400
810,000000	61,893100
809,000000	62,033100
808,000000	62,100600
807,000000	62,194600
806,000000	62,221500
805,000000	62,335200
804,000000	62,617600
803,000000	62,683500
802,000000	62,768300
801,000000	62,815000
800,000000	62,954000
799,000000	63,081100
798,000000	63,238100
797,000000	63,400200
796,000000	63,515500
795,000000	63,651700
794,000000	63,686600
793,000000	63,824100
792,000000	64,014400
791,000000	64,100100
790,000000	64,210000
789,000000	64,326600
788,000000	64,452100
787,000000	64,558600
786,000000	64,724200
785,000000	64,887400
784,000000	64,953300
783,000000	65,110600
782,000000	65,234300
781,000000	65,393100
780,000000	65,550200
779,000000	65,643500
778,000000	65,749800
777,000000	65,910200
776,000000	66,083600
775,000000	66,206300
774,000000	66,382700
773,000000	66,578000
772,000000	66,767800
771,000000	66,940700
770,000000	67,085700
769,000000	67,269600
768,000000	67,333500
767,000000	67,465500
766,000000	67,712700
765,000000	67,827900
764,000000	67,893900
763,000000	68,035600
762,000000	68,242500
761,000000	68,400200
760,000000	68,582900
759,000000	68,785500
758,000000	68,948900
757,000000	69,046500
756,000000	69,172100
755,000000	69,336000
754,000000	69,466600
753,000000	69,642600
752,000000	69,867700
751,000000	70,045200
750,000000	70,193600
749,000000	70,360700
748,000000	70,492300
747,000000	70,568200
746,000000	70,668300
745,000000	70,828700
744,000000	70,946200
743,000000	71,015700
742,000000	71,145100
741,000000	71,305300
740,000000	71,421800
739,000000	71,528400
738,000000	71,666100
737,000000	71,790500
736,000000	71,877600
735,000000	71,915600
734,000000	71,934100
733,000000	72,020200
732,000000	72,134000
731,000000	72,213400
730,000000	72,247100
729,000000	72,298300
728,000000	72,356700
727,000000	72,397700
726,000000	72,403000
725,000000	72,438700
724,000000	72,452600
723,000000	72,529300
722,000000	72,593900
721,000000	72,663300
720,000000	72,677200
719,000000	72,689500
718,000000	72,730500
717,000000	72,733200
716,000000	72,738300
715,000000	72,734700
714,000000	72,793200
713,000000	72,832800
712,000000	72,813200
711,000000	72,772600
710,000000	72,747600
709,000000	72,713900
708,000000	72,666500
707,000000	72,574500
706,000000	72,513400
705,000000	72,446000
704,000000	72,339900
703,000000	72,260100
702,000000	72,225500
701,000000	72,109700
700,000000	71,992700
699,000000	71,873100
698,000000	71,709300
697,000000	71,589400
696,000000	71,432000
695,000000	71,275600
694,000000	71,144500
693,000000	70,993300
692,000000	70,828400
691,000000	70,719600
690,000000	70,501400
689,000000	70,341800
688,000000	70,214200
687,000000	70,093000
686,000000	69,970400
685,000000	69,805400
684,000000	69,669300
683,000000	69,478500
682,000000	69,355600
681,000000	69,244000
680,000000	69,068900
679,000000	68,863000
678,000000	68,636900
677,000000	68,473700
676,000000	68,318400
675,000000	68,126400
674,000000	67,936300
673,000000	67,750400
672,000000	67,583500
671,000000	67,382900
670,000000	67,186900
669,000000	66,961100
668,000000	66,758100
667,000000	66,509000
666,000000	66,326100
665,000000	66,082100
664,000000	65,812600
663,000000	65,610800
662,000000	65,346200
661,000000	65,107100
660,000000	64,815300
659,000000	64,590500
658,000000	64,284900
657,000000	63,979500
656,000000	63,680300
655,000000	63,379300
654,000000	63,091000
653,000000	62,740500
652,000000	62,465400
651,000000	62,123000
650,000000	61,816000
649,000000	61,459000
648,000000	61,105500
647,000000	60,755900
646,000000	60,388200
645,000000	60,021700
644,000000	59,634500
643,000000	59,240400
642,000000	58,810100
641,000000	58,374900
640,000000	57,945600
639,000000	57,538200
638,000000	57,123100
637,000000	56,691200
636,000000	56,224100
635,000000	55,864800
634,000000	55,532400
633,000000	55,137200
632,000000	54,819100
631,000000	54,467700
630,000000	54,188500
629,000000	53,912500
628,000000	53,694600
627,000000	53,491600
626,000000	53,350100
625,000000	53,209100
624,000000	53,096300
623,000000	53,004500
622,000000	53,004200
621,000000	52,955400
620,000000	52,959300
619,000000	52,989900
618,000000	53,052600
617,000000	53,057600
616,000000	53,137100
615,000000	53,269800
614,000000	53,394400
613,000000	53,546200
612,000000	53,736400
611,000000	53,878600
610,000000	54,067400
609,000000	54,250300
608,000000	54,529100
607,000000	54,765800
606,000000	54,969400
605,000000	55,204400
604,000000	55,425300
603,000000	55,711600
602,000000	55,940100
601,000000	56,211200
600,000000	56,452100
599,000000	56,723000
598,000000	56,989600
597,000000	57,289600
596,000000	57,529400
595,000000	57,829900
594,000000	58,058000
593,000000	58,290800
592,000000	58,584500
591,000000	58,904900
590,000000	59,168100
589,000000	59,460100
588,000000	59,689400
587,000000	59,998100
586,000000	60,218100
585,000000	60,469900
584,000000	60,723900
583,000000	60,951300
582,000000	61,177900
581,000000	61,434600
580,000000	61,653500
579,000000	61,894800
578,000000	62,089300
577,000000	62,187400
576,000000	62,352200
575,000000	62,527000
574,000000	62,656600
573,000000	62,795800
572,000000	62,903100
571,000000	63,036700
570,000000	63,183000
569,000000	63,233100
568,000000	63,352500
567,000000	63,401600
566,000000	63,431900
565,000000	63,476800
564,000000	63,538000
563,000000	63,523600
562,000000	63,528900
561,000000	63,533800
560,000000	63,516000
559,000000	63,683500
558,000000	63,546800
557,000000	63,455600
556,000000	63,341000
555,000000	63,165100
554,000000	62,984300
553,000000	62,808300
552,000000	62,590800
551,000000	62,401600
550,000000	62,172900
549,000000	61,997700
548,000000	61,810900
547,000000	61,647900
546,000000	61,447800
545,000000	61,234300
544,000000	61,044600
543,000000	60,815300
542,000000	60,598100
541,000000	60,383200
540,000000	60,153200
539,000000	59,904700
538,000000	59,618600
537,000000	59,330900
536,000000	58,960700
535,000000	58,613500
534,000000	58,232800
533,000000	57,858700
532,000000	57,423200
531,000000	56,983900
530,000000	56,544600
529,000000	56,096600
528,000000	55,677400
527,000000	55,214800
526,000000	54,762000
525,000000	54,273400
524,000000	53,792700
523,000000	53,311600
522,000000	52,830400
521,000000	52,347500
520,000000	51,829400
519,000000	51,302900
518,000000	50,782700
517,000000	50,208000
516,000000	49,621400
515,000000	49,024200
514,000000	48,411900
513,000000	47,746100
512,000000	47,074100
511,000000	46,383100
510,000000	45,747600
509,000000	45,073200
508,000000	44,434000
507,000000	43,801700
506,000000	43,191200
505,000000	42,548700
504,000000	41,946300
503,000000	41,326000
502,000000	40,702400
501,000000	40,065400
500,000000	39,464300
499,000000	38,867800
498,000000	38,240000
497,000000	37,626900
496,000000	37,012000
495,000000	36,414300
494,000000	35,829900
493,000000	35,251200
492,000000	34,707400
491,000000	34,177300
490,000000	33,652800
489,000000	33,123700
488,000000	32,621700
487,000000	32,171500
486,000000	31,722800
485,000000	31,302400
484,000000	30,841000
483,000000	30,386400
482,000000	29,948300
481,000000	29,500400
480,000000	29,053200
479,000000	28,623200
478,000000	28,224100
477,000000	27,826400
476,000000	27,437600
475,000000	27,077200
474,000000	26,700900
473,000000	26,345700
472,000000	26,021200
471,000000	25,720500
470,000000	25,425200
469,000000	25,161100
468,000000	24,904200
467,000000	24,646000
466,000000	24,406400
465,000000	24,194000
464,000000	23,965100
463,000000	23,765200
462,000000	23,559700
461,000000	23,360000
460,000000	23,179000
459,000000	23,013100
458,000000	22,853300
457,000000	22,690700
456,000000	22,564800
455,000000	22,426000
454,000000	22,277800
453,000000	22,134300
452,000000	21,987700
451,000000	21,857700
450,000000	21,728800
449,000000	21,600300
448,000000	21,490600
447,000000	21,375500
446,000000	21,243300
445,000000	21,128300
444,000000	21,024200
443,000000	20,911300
442,000000	20,793300
441,000000	20,675500
440,000000	20,536000
439,000000	20,409800
438,000000	20,301600
437,000000	20,198500
436,000000	20,102000
435,000000	19,996800
434,000000	19,866400
433,000000	19,763000
432,000000	19,664000
431,000000	19,536200
430,000000	19,415600
429,000000	19,297800
428,000000	19,190500
427,000000	19,079900
426,000000	18,944300
425,000000	18,779500
424,000000	18,641900
423,000000	18,502500
422,000000	18,316000
421,000000	18,123000
420,000000	17,941300
419,000000	17,770900
418,000000	17,580100
417,000000	17,376600
416,000000	17,159700
415,000000	16,940000
414,000000	16,716900
413,000000	16,455900
412,000000	16,185600
411,000000	15,945500
410,000000	15,691600
409,000000	15,426100
408,000000	15,152400
407,000000	14,871300
406,000000	14,588500
405,000000	14,274400
404,000000	13,980300
403,000000	13,695600
402,000000	13,395800
401,000000	13,091700
400,000000	12,791200
399,000000	12,474600
398,000000	12,157900
397,000000	11,851300
396,000000	11,562700
395,000000	11,270800
394,000000	10,975900
393,000000	10,681600
392,000000	10,383800
391,000000	10,124500
390,000000	9,853900
389,000000	9,580500
388,000000	9,335700
387,000000	9,088400
386,000000	8,852100
385,000000	8,635400
384,000000	8,414800
383,000000	8,205400
382,000000	8,005500
381,000000	7,799100
380,000000	7,630600
379,000000	7,458800
378,000000	7,300100
377,000000	7,162400
376,000000	7,047800
375,000000	6,686700
374,000000	6,637600
373,000000	6,600100
372,000000	6,458600
371,000000	6,405000
370,000000	6,355300
369,000000	6,290200
368,000000	6,225300
367,000000	6,137000
366,000000	6,109800
365,000000	6,053100
364,000000	6,019300
363,000000	5,978600
362,000000	5,944700
361,000000	5,916500
360,000000	5,855200
359,000000	5,795200
358,000000	5,683100
357,000000	5,646200
356,000000	5,643200
355,000000	5,646500
354,000000	5,563700
353,000000	5,582900
352,000000	5,534500
351,000000	5,522000
350,000000	5,465400
349,000000	5,511000
348,000000	5,460300
347,000000	5,416900
346,000000	5,407500
345,000000	5,313800
344,000000	5,359000
343,000000	5,372500
342,000000	5,390600
341,000000	5,333000
340,000000	5,317700
339,000000	5,304700
338,000000	5,254900
337,000000	5,347900
336,000000	5,371700
335,000000	5,376400
334,000000	5,439400
333,000000	5,286600
332,000000	5,220700
331,000000	5,378500
330,000000	5,361000
329,000000	5,347900
328,000000	5,354000
327,000000	5,192200
326,000000	5,409700
325,000000	5,258600
324,000000	5,278200
323,000000	5,501600
322,000000	5,341000
321,000000	5,269000
320,000000	5,415200
319,000000	5,716100
318,000000	5,682500
317,000000	5,873500
316,000000	5,113600
315,000000	5,067700
314,000000	5,067200
313,000000	5,069200
312,000000	4,986700
311,000000	5,010300
310,000000	5,043000
309,000000	5,041700
308,000000	4,988200
307,000000	5,022800
306,000000	5,035800
305,000000	5,103600
304,000000	5,033900
303,000000	5,049500
302,000000	5,059900
301,000000	5,028500
300,000000	5,049000
299,000000	4,991200
298,000000	4,984900
297,000000	5,031500
296,000000	5,008100
295,000000	5,028000
294,000000	5,018000
293,000000	4,985300
292,000000	4,997200
291,000000	5,010000
290,000000	4,988000
289,000000	4,941500
288,000000	5,009000
287,000000	4,947300
286,000000	4,949500
285,000000	4,973800
284,000000	4,955600
283,000000	4,990500
282,000000	5,023100
281,000000	4,915400
280,000000	5,007200
279,000000	5,005900
278,000000	5,003100
277,000000	4,977700
276,000000	5,046800
275,000000	5,097200
274,000000	5,022000
273,000000	5,059800
272,000000	5,045600
271,000000	5,114600
270,000000	5,130300
269,000000	5,125800
268,000000	5,107500
267,000000	5,157600
266,000000	5,136700
265,000000	5,207100
264,000000	5,216500
263,000000	5,221000
262,000000	5,244500
261,000000	5,304900
260,000000	5,319100
259,000000	5,237500
258,000000	5,370400
257,000000	5,374500
256,000000	5,373700
255,000000	5,311700
254,000000	5,390000
253,000000	5,369200
252,000000	5,432100
251,000000	5,434200
250,000000	5,404500
