PE UV       SUBTECH     SPECTRUM    ASCII       PEDS        4.00        
   -1
CICIMAUCR0013-1.Sample.ASC
24/04/11
15:20:09.00
24/04/11
15:20:09.00
Vinicio Soto Monge
C. resplendens
250,000000
1
Lambda 1050
1050L1511233
PerkinElmer UV WinLab 6.3.2.0749 / 2.02.05 Lambda 900 UV/VIS/NIR, Aug  7 2015 09:38:08

0
0
3350/2 860,8/2
0
0
UV/VIS
1
1
1
DoubleDePol,CommonBeamDepol,RBeamAtt,SBeamAtt,60mm sphere, WB InGaAs Detector
0
0
0
0
Program
Program
3350/2 860,8/2
3350/0,2 860,8/0,2
3350/0,2 860,8/0,2
0
15.00
 
 
 
0
 
860,8
319,2
860,8
Front
100
on
S:100 R:100
0
0
0
0
 
0
 
 
 
0
 
 
0
0
0
0
0
 
 
 
 
0
0


0
0
#HDR
-1
-1
#GR
nm
%R
1.0
0.0
2400,000000
-1,000000
2151
8
65,315600
4,166400
#DATA
2400,000000	11,353600
2399,000000	11,240700
2398,000000	10,890800
2397,000000	10,784000
2396,000000	11,466500
2395,000000	11,214500
2394,000000	10,889000
2393,000000	11,734100
2392,000000	11,194800
2391,000000	10,409700
2390,000000	11,403200
2389,000000	10,836300
2388,000000	11,173500
2387,000000	11,762800
2386,000000	10,659400
2385,000000	10,772200
2384,000000	10,726600
2383,000000	10,774200
2382,000000	11,009800
2381,000000	11,313300
2380,000000	11,083700
2379,000000	11,227000
2378,000000	10,156700
2377,000000	11,492000
2376,000000	10,878300
2375,000000	11,223300
2374,000000	11,605800
2373,000000	11,659300
2372,000000	10,577400
2371,000000	11,115400
2370,000000	10,578500
2369,000000	11,077100
2368,000000	10,771700
2367,000000	11,017700
2366,000000	11,170700
2365,000000	10,423400
2364,000000	10,198600
2363,000000	11,189700
2362,000000	10,093600
2361,000000	9,767400
2360,000000	10,504000
2359,000000	10,357600
2358,000000	10,373400
2357,000000	10,127900
2356,000000	10,133800
2355,000000	9,545600
2354,000000	9,764900
2353,000000	10,207600
2352,000000	9,945000
2351,000000	10,789900
2350,000000	10,242500
2349,000000	9,835500
2348,000000	9,759900
2347,000000	9,772800
2346,000000	10,484100
2345,000000	10,821400
2344,000000	10,708200
2343,000000	10,696200
2342,000000	10,501800
2341,000000	10,657900
2340,000000	10,228100
2339,000000	10,511400
2338,000000	9,889600
2337,000000	9,901500
2336,000000	10,073900
2335,000000	9,805000
2334,000000	9,659300
2333,000000	9,377800
2332,000000	9,693300
2331,000000	9,785000
2330,000000	9,485100
2329,000000	9,195800
2328,000000	9,766600
2327,000000	9,768000
2326,000000	9,396100
2325,000000	8,873500
2324,000000	9,309800
2323,000000	9,247700
2322,000000	8,919700
2321,000000	9,432300
2320,000000	9,738700
2319,000000	9,361200
2318,000000	8,720100
2317,000000	8,585400
2316,000000	8,803500
2315,000000	8,956200
2314,000000	8,731100
2313,000000	8,180400
2312,000000	8,225100
2311,000000	8,013000
2310,000000	7,598000
2309,000000	7,668900
2308,000000	7,885700
2307,000000	7,830500
2306,000000	7,837000
2305,000000	7,936300
2304,000000	8,030700
2303,000000	7,956000
2302,000000	8,432000
2301,000000	8,470900
2300,000000	8,079100
2299,000000	8,130900
2298,000000	8,423400
2297,000000	8,456600
2296,000000	8,516900
2295,000000	8,578000
2294,000000	8,695600
2293,000000	8,609100
2292,000000	8,561400
2291,000000	8,476600
2290,000000	8,663100
2289,000000	8,710700
2288,000000	8,415800
2287,000000	8,591300
2286,000000	8,926200
2285,000000	8,421500
2284,000000	8,189100
2283,000000	8,718800
2282,000000	8,436600
2281,000000	7,934800
2280,000000	7,853700
2279,000000	7,840900
2278,000000	7,852100
2277,000000	8,419800
2276,000000	8,493300
2275,000000	7,880000
2274,000000	8,023100
2273,000000	7,950400
2272,000000	7,826400
2271,000000	7,656300
2270,000000	7,643400
2269,000000	8,155900
2268,000000	7,982600
2267,000000	7,744800
2266,000000	7,740700
2265,000000	7,840800
2264,000000	8,030000
2263,000000	8,053400
2262,000000	8,191800
2261,000000	8,589100
2260,000000	8,869600
2259,000000	8,760700
2258,000000	9,117600
2257,000000	9,670800
2256,000000	9,534700
2255,000000	9,480500
2254,000000	9,701400
2253,000000	9,783500
2252,000000	10,098800
2251,000000	10,190700
2250,000000	10,135700
2249,000000	10,225900
2248,000000	10,370000
2247,000000	10,528300
2246,000000	10,688500
2245,000000	10,705800
2244,000000	10,689300
2243,000000	10,819200
2242,000000	10,839500
2241,000000	11,073900
2240,000000	11,353600
2239,000000	11,399400
2238,000000	11,251900
2237,000000	11,048400
2236,000000	11,103200
2235,000000	11,395600
2234,000000	11,563400
2233,000000	11,576900
2232,000000	11,629700
2231,000000	11,757400
2230,000000	12,022200
2229,000000	11,810200
2228,000000	11,649300
2227,000000	11,678000
2226,000000	11,737900
2225,000000	11,868200
2224,000000	11,939800
2223,000000	11,752000
2222,000000	11,545100
2221,000000	11,696600
2220,000000	11,615100
2219,000000	11,675300
2218,000000	11,532700
2217,000000	11,658800
2216,000000	11,940800
2215,000000	12,026900
2214,000000	12,000100
2213,000000	11,824800
2212,000000	12,080100
2211,000000	12,043200
2210,000000	11,813600
2209,000000	11,552700
2208,000000	11,799800
2207,000000	11,604000
2206,000000	11,936900
2205,000000	12,006300
2204,000000	12,260600
2203,000000	11,729000
2202,000000	11,364400
2201,000000	11,644600
2200,000000	11,744400
2199,000000	11,476800
2198,000000	11,839300
2197,000000	11,838600
2196,000000	11,937900
2195,000000	12,029000
2194,000000	12,078400
2193,000000	11,813400
2192,000000	11,478100
2191,000000	11,927900
2190,000000	11,816800
2189,000000	11,912100
2188,000000	11,646500
2187,000000	11,550400
2186,000000	11,635000
2185,000000	11,755400
2184,000000	11,752100
2183,000000	11,775300
2182,000000	11,630400
2181,000000	11,580100
2180,000000	11,584200
2179,000000	11,986300
2178,000000	11,724000
2177,000000	11,483300
2176,000000	11,503100
2175,000000	11,443900
2174,000000	11,465900
2173,000000	11,618100
2172,000000	11,369400
2171,000000	11,515500
2170,000000	11,978600
2169,000000	11,749500
2168,000000	11,978500
2167,000000	12,130300
2166,000000	12,031400
2165,000000	12,064200
2164,000000	11,707300
2163,000000	11,586800
2162,000000	11,957700
2161,000000	11,767400
2160,000000	11,705900
2159,000000	11,636300
2158,000000	11,521000
2157,000000	11,747300
2156,000000	12,067400
2155,000000	12,297500
2154,000000	11,792200
2153,000000	11,958800
2152,000000	11,704200
2151,000000	12,265100
2150,000000	12,081800
2149,000000	12,535800
2148,000000	11,774100
2147,000000	11,701600
2146,000000	12,098200
2145,000000	12,359400
2144,000000	11,925100
2143,000000	12,597700
2142,000000	12,285900
2141,000000	12,034600
2140,000000	11,874600
2139,000000	12,059100
2138,000000	12,148400
2137,000000	12,389500
2136,000000	11,961200
2135,000000	12,361200
2134,000000	12,213600
2133,000000	12,373900
2132,000000	12,116600
2131,000000	11,885800
2130,000000	12,157300
2129,000000	12,110900
2128,000000	12,519500
2127,000000	12,063100
2126,000000	11,996700
2125,000000	12,156100
2124,000000	11,915300
2123,000000	12,412100
2122,000000	12,293300
2121,000000	11,792100
2120,000000	11,764100
2119,000000	12,086400
2118,000000	11,975300
2117,000000	12,173000
2116,000000	12,092000
2115,000000	11,875900
2114,000000	11,837900
2113,000000	11,742900
2112,000000	11,910100
2111,000000	11,631800
2110,000000	11,804500
2109,000000	11,530000
2108,000000	11,537900
2107,000000	11,314000
2106,000000	11,176200
2105,000000	11,617800
2104,000000	11,567700
2103,000000	11,467900
2102,000000	11,348300
2101,000000	11,332400
2100,000000	11,761000
2099,000000	11,590100
2098,000000	11,473700
2097,000000	11,494600
2096,000000	11,127700
2095,000000	11,212600
2094,000000	11,127300
2093,000000	11,062000
2092,000000	11,183200
2091,000000	10,958100
2090,000000	11,400000
2089,000000	11,060900
2088,000000	11,108100
2087,000000	11,338600
2086,000000	11,437700
2085,000000	11,113000
2084,000000	11,120600
2083,000000	11,340300
2082,000000	11,310500
2081,000000	11,185100
2080,000000	11,359700
2079,000000	11,123400
2078,000000	11,100000
2077,000000	11,010800
2076,000000	10,916300
2075,000000	10,955600
2074,000000	10,956000
2073,000000	11,107000
2072,000000	11,143900
2071,000000	11,070500
2070,000000	10,866900
2069,000000	10,829900
2068,000000	10,950100
2067,000000	11,050000
2066,000000	10,923000
2065,000000	11,001200
2064,000000	11,112000
2063,000000	11,130500
2062,000000	11,139800
2061,000000	11,135800
2060,000000	11,215200
2059,000000	10,997600
2058,000000	11,143100
2057,000000	11,177200
2056,000000	10,973000
2055,000000	11,076700
2054,000000	11,149800
2053,000000	11,287000
2052,000000	11,328000
2051,000000	11,324400
2050,000000	11,441700
2049,000000	11,496100
2048,000000	11,543100
2047,000000	11,596900
2046,000000	11,571900
2045,000000	11,706900
2044,000000	11,898200
2043,000000	12,065400
2042,000000	12,290200
2041,000000	12,235300
2040,000000	12,271900
2039,000000	12,311200
2038,000000	12,276000
2037,000000	12,381900
2036,000000	12,565000
2035,000000	12,744700
2034,000000	12,876100
2033,000000	12,821300
2032,000000	12,897500
2031,000000	13,008400
2030,000000	13,074900
2029,000000	13,152100
2028,000000	13,208900
2027,000000	13,231500
2026,000000	13,258600
2025,000000	13,442300
2024,000000	13,452500
2023,000000	13,418000
2022,000000	13,527100
2021,000000	13,623300
2020,000000	13,671800
2019,000000	13,762400
2018,000000	13,775700
2017,000000	13,883100
2016,000000	13,917500
2015,000000	13,887900
2014,000000	13,939800
2013,000000	14,068000
2012,000000	14,123300
2011,000000	14,076700
2010,000000	14,087800
2009,000000	14,125100
2008,000000	14,078000
2007,000000	14,092400
2006,000000	14,168500
2005,000000	14,139800
2004,000000	14,210200
2003,000000	14,215700
2002,000000	14,119200
2001,000000	14,155900
2000,000000	14,113900
1999,000000	14,115400
1998,000000	14,105700
1997,000000	14,121700
1996,000000	14,071100
1995,000000	14,024100
1994,000000	14,062500
1993,000000	14,068300
1992,000000	14,011400
1991,000000	14,007800
1990,000000	14,036700
1989,000000	13,932500
1988,000000	13,882800
1987,000000	13,871400
1986,000000	13,798100
1985,000000	13,744000
1984,000000	13,716100
1983,000000	13,667900
1982,000000	13,624200
1981,000000	13,622200
1980,000000	13,566000
1979,000000	13,532200
1978,000000	13,489700
1977,000000	13,416000
1976,000000	13,363500
1975,000000	13,241400
1974,000000	13,235400
1973,000000	13,260400
1972,000000	13,235000
1971,000000	13,161000
1970,000000	13,127200
1969,000000	13,079500
1968,000000	13,063000
1967,000000	13,035400
1966,000000	13,012600
1965,000000	12,963700
1964,000000	12,929400
1963,000000	12,905800
1962,000000	12,811000
1961,000000	12,825500
1960,000000	12,771700
1959,000000	12,775500
1958,000000	12,707800
1957,000000	12,638500
1956,000000	12,576900
1955,000000	12,638900
1954,000000	12,682700
1953,000000	12,665200
1952,000000	12,538200
1951,000000	12,444100
1950,000000	12,381500
1949,000000	12,458100
1948,000000	12,395600
1947,000000	12,336900
1946,000000	12,319000
1945,000000	12,281000
1944,000000	12,322100
1943,000000	12,320400
1942,000000	12,298600
1941,000000	12,323500
1940,000000	12,365800
1939,000000	12,467400
1938,000000	12,469200
1937,000000	12,488700
1936,000000	12,452100
1935,000000	12,493800
1934,000000	12,565500
1933,000000	12,626800
1932,000000	12,694600
1931,000000	12,710400
1930,000000	12,807000
1929,000000	12,904100
1928,000000	12,909800
1927,000000	13,027700
1926,000000	13,159200
1925,000000	13,175300
1924,000000	13,377100
1923,000000	13,413800
1922,000000	13,417700
1921,000000	13,690400
1920,000000	14,033000
1919,000000	14,006900
1918,000000	14,038100
1917,000000	14,142300
1916,000000	14,317700
1915,000000	14,426500
1914,000000	14,569500
1913,000000	14,960700
1912,000000	15,097600
1911,000000	15,079400
1910,000000	15,330800
1909,000000	15,358800
1908,000000	15,437300
1907,000000	15,664300
1906,000000	16,090100
1905,000000	16,167200
1904,000000	16,294800
1903,000000	16,405100
1902,000000	16,627800
1901,000000	16,707900
1900,000000	17,018700
1899,000000	17,311800
1898,000000	17,446700
1897,000000	17,467600
1896,000000	17,594800
1895,000000	17,770700
1894,000000	17,983800
1893,000000	18,254300
1892,000000	18,504800
1891,000000	18,554600
1890,000000	18,687600
1889,000000	18,918200
1888,000000	19,037500
1887,000000	19,382300
1886,000000	19,481500
1885,000000	19,668600
1884,000000	20,005400
1883,000000	20,261300
1882,000000	20,478600
1881,000000	20,986300
1880,000000	21,233900
1879,000000	21,495900
1878,000000	21,719500
1877,000000	22,094400
1876,000000	22,413900
1875,000000	22,625300
1874,000000	22,664000
1873,000000	22,999900
1872,000000	23,312800
1871,000000	23,328500
1870,000000	23,505700
1869,000000	23,440200
1868,000000	23,572600
1867,000000	23,627900
1866,000000	23,538900
1865,000000	23,376900
1864,000000	23,590000
1863,000000	23,671900
1862,000000	23,509100
1861,000000	23,478200
1860,000000	23,594100
1859,000000	23,702300
1858,000000	23,455800
1857,000000	23,448000
1856,000000	23,565900
1855,000000	23,338000
1854,000000	23,266900
1853,000000	23,393700
1852,000000	23,216700
1851,000000	23,012300
1850,000000	22,989900
1849,000000	22,997600
1848,000000	23,093200
1847,000000	23,142600
1846,000000	22,918600
1845,000000	22,699400
1844,000000	22,543300
1843,000000	22,663200
1842,000000	22,692400
1841,000000	22,814000
1840,000000	22,604200
1839,000000	22,514700
1838,000000	22,519400
1837,000000	22,535200
1836,000000	22,464400
1835,000000	22,403400
1834,000000	22,266100
1833,000000	22,093400
1832,000000	22,030700
1831,000000	21,985000
1830,000000	21,898000
1829,000000	21,881500
1828,000000	21,857600
1827,000000	21,715200
1826,000000	21,667900
1825,000000	21,678000
1824,000000	21,498100
1823,000000	21,481900
1822,000000	21,495000
1821,000000	21,587400
1820,000000	21,579100
1819,000000	21,487200
1818,000000	21,395300
1817,000000	21,377200
1816,000000	21,370600
1815,000000	21,421300
1814,000000	21,444400
1813,000000	21,412600
1812,000000	21,430000
1811,000000	21,383500
1810,000000	21,326900
1809,000000	21,282100
1808,000000	21,264900
1807,000000	21,191200
1806,000000	21,212200
1805,000000	21,180900
1804,000000	21,150300
1803,000000	21,165500
1802,000000	21,059200
1801,000000	21,031200
1800,000000	20,977500
1799,000000	20,950000
1798,000000	20,898800
1797,000000	20,856600
1796,000000	20,823000
1795,000000	20,773100
1794,000000	20,746700
1793,000000	20,735500
1792,000000	20,695700
1791,000000	20,628400
1790,000000	20,568600
1789,000000	20,480500
1788,000000	20,450400
1787,000000	20,405800
1786,000000	20,315900
1785,000000	20,231800
1784,000000	20,188300
1783,000000	20,145500
1782,000000	20,065500
1781,000000	20,002000
1780,000000	19,933200
1779,000000	19,886400
1778,000000	19,832700
1777,000000	19,693500
1776,000000	19,602500
1775,000000	19,499100
1774,000000	19,390800
1773,000000	19,265600
1772,000000	19,137900
1771,000000	18,996700
1770,000000	18,855300
1769,000000	18,759400
1768,000000	18,662700
1767,000000	18,550400
1766,000000	18,460600
1765,000000	18,421900
1764,000000	18,358900
1763,000000	18,323500
1762,000000	18,336300
1761,000000	18,381600
1760,000000	18,430300
1759,000000	18,506300
1758,000000	18,556000
1757,000000	18,607300
1756,000000	18,673200
1755,000000	18,690500
1754,000000	18,674200
1753,000000	18,674700
1752,000000	18,668700
1751,000000	18,606700
1750,000000	18,582300
1749,000000	18,518200
1748,000000	18,427300
1747,000000	18,369800
1746,000000	18,285300
1745,000000	18,125100
1744,000000	17,967100
1743,000000	17,799100
1742,000000	17,620200
1741,000000	17,414600
1740,000000	17,164100
1739,000000	16,942200
1738,000000	16,764800
1737,000000	16,625400
1736,000000	16,503600
1735,000000	16,394100
1734,000000	16,337100
1733,000000	16,354300
1732,000000	16,402700
1731,000000	16,491500
1730,000000	16,585600
1729,000000	16,707600
1728,000000	16,823800
1727,000000	16,880700
1726,000000	16,983200
1725,000000	17,057400
1724,000000	17,093100
1723,000000	17,104900
1722,000000	17,093900
1721,000000	17,115400
1720,000000	17,136000
1719,000000	17,117000
1718,000000	17,118300
1717,000000	17,133400
1716,000000	17,149200
1715,000000	17,227500
1714,000000	17,290400
1713,000000	17,338900
1712,000000	17,353500
1711,000000	17,350100
1710,000000	17,382400
1709,000000	17,388200
1708,000000	17,367100
1707,000000	17,357900
1706,000000	17,315200
1705,000000	17,312400
1704,000000	17,294900
1703,000000	17,218900
1702,000000	17,149700
1701,000000	17,038700
1700,000000	16,896200
1699,000000	16,766000
1698,000000	16,645500
1697,000000	16,532100
1696,000000	16,451500
1695,000000	16,441100
1694,000000	16,505600
1693,000000	16,613800
1692,000000	16,749700
1691,000000	16,927900
1690,000000	17,069500
1689,000000	17,200200
1688,000000	17,272300
1687,000000	17,250000
1686,000000	17,229100
1685,000000	17,177300
1684,000000	17,227000
1683,000000	17,340400
1682,000000	17,631900
1681,000000	18,022800
1680,000000	18,511500
1679,000000	19,040600
1678,000000	19,566700
1677,000000	20,029800
1676,000000	20,442100
1675,000000	20,780600
1674,000000	21,083000
1673,000000	21,318700
1672,000000	21,591900
1671,000000	21,782700
1670,000000	21,950700
1669,000000	22,099800
1668,000000	22,209200
1667,000000	22,372600
1666,000000	22,478500
1665,000000	22,548400
1664,000000	22,621900
1663,000000	22,671800
1662,000000	22,753600
1661,000000	22,824700
1660,000000	22,845000
1659,000000	22,886700
1658,000000	22,937500
1657,000000	22,939600
1656,000000	22,959500
1655,000000	22,928200
1654,000000	22,941800
1653,000000	22,944900
1652,000000	22,953600
1651,000000	22,969600
1650,000000	22,938100
1649,000000	22,909900
1648,000000	22,869600
1647,000000	22,816000
1646,000000	22,791600
1645,000000	22,790100
1644,000000	22,734200
1643,000000	22,690200
1642,000000	22,647200
1641,000000	22,573100
1640,000000	22,543800
1639,000000	22,477200
1638,000000	22,448200
1637,000000	22,371600
1636,000000	22,352400
1635,000000	22,232400
1634,000000	22,187200
1633,000000	22,141400
1632,000000	22,090300
1631,000000	22,009300
1630,000000	21,942200
1629,000000	21,908000
1628,000000	21,793100
1627,000000	21,793300
1626,000000	21,699000
1625,000000	21,603700
1624,000000	21,505900
1623,000000	21,485900
1622,000000	21,390900
1621,000000	21,342800
1620,000000	21,280300
1619,000000	21,192400
1618,000000	21,139600
1617,000000	21,069200
1616,000000	21,014100
1615,000000	20,953800
1614,000000	20,910000
1613,000000	20,781700
1612,000000	20,760500
1611,000000	20,741500
1610,000000	20,644100
1609,000000	20,572000
1608,000000	20,528100
1607,000000	20,495300
1606,000000	20,457600
1605,000000	20,364200
1604,000000	20,295000
1603,000000	20,260000
1602,000000	20,205200
1601,000000	20,148000
1600,000000	20,090200
1599,000000	20,049200
1598,000000	19,994000
1597,000000	19,971800
1596,000000	19,874300
1595,000000	19,866900
1594,000000	19,833600
1593,000000	19,795300
1592,000000	19,784000
1591,000000	19,729200
1590,000000	19,709600
1589,000000	19,691700
1588,000000	19,672800
1587,000000	19,647100
1586,000000	19,584500
1585,000000	19,615800
1584,000000	19,617400
1583,000000	19,586600
1582,000000	19,537400
1581,000000	19,535000
1580,000000	19,560500
1579,000000	19,571300
1578,000000	19,586000
1577,000000	19,566300
1576,000000	19,519700
1575,000000	19,583400
1574,000000	19,601500
1573,000000	19,632100
1572,000000	19,632200
1571,000000	19,663100
1570,000000	19,661400
1569,000000	19,729300
1568,000000	19,732700
1567,000000	19,785600
1566,000000	19,815800
1565,000000	19,900300
1564,000000	19,904400
1563,000000	19,938200
1562,000000	19,949000
1561,000000	20,013700
1560,000000	20,034300
1559,000000	20,058500
1558,000000	20,068200
1557,000000	20,122500
1556,000000	20,103800
1555,000000	20,111500
1554,000000	20,110500
1553,000000	20,148700
1552,000000	20,187900
1551,000000	20,199500
1550,000000	20,176300
1549,000000	20,183200
1548,000000	20,208200
1547,000000	20,223000
1546,000000	20,230300
1545,000000	20,233700
1544,000000	20,246800
1543,000000	20,244900
1542,000000	20,277700
1541,000000	20,297900
1540,000000	20,302100
1539,000000	20,331400
1538,000000	20,338500
1537,000000	20,342800
1536,000000	20,329400
1535,000000	20,340300
1534,000000	20,377800
1533,000000	20,386200
1532,000000	20,373600
1531,000000	20,356600
1530,000000	20,382300
1529,000000	20,387900
1528,000000	20,401900
1527,000000	20,396600
1526,000000	20,385500
1525,000000	20,333900
1524,000000	20,349800
1523,000000	20,375300
1522,000000	20,367600
1521,000000	20,359500
1520,000000	20,361100
1519,000000	20,365500
1518,000000	20,361200
1517,000000	20,332800
1516,000000	20,307400
1515,000000	20,298100
1514,000000	20,326300
1513,000000	20,318400
1512,000000	20,285100
1511,000000	20,251500
1510,000000	20,237000
1509,000000	20,258900
1508,000000	20,254900
1507,000000	20,239500
1506,000000	20,243500
1505,000000	20,246700
1504,000000	20,253200
1503,000000	20,225200
1502,000000	20,221400
1501,000000	20,235000
1500,000000	20,224700
1499,000000	20,217300
1498,000000	20,224800
1497,000000	20,228600
1496,000000	20,257100
1495,000000	20,293200
1494,000000	20,289900
1493,000000	20,293000
1492,000000	20,323600
1491,000000	20,368800
1490,000000	20,398100
1489,000000	20,426200
1488,000000	20,439300
1487,000000	20,450300
1486,000000	20,465700
1485,000000	20,507600
1484,000000	20,543100
1483,000000	20,577500
1482,000000	20,625600
1481,000000	20,671800
1480,000000	20,706700
1479,000000	20,728300
1478,000000	20,758000
1477,000000	20,826700
1476,000000	20,869000
1475,000000	20,909200
1474,000000	20,960900
1473,000000	21,000900
1472,000000	21,048700
1471,000000	21,091300
1470,000000	21,147300
1469,000000	21,194200
1468,000000	21,213500
1467,000000	21,259600
1466,000000	21,314400
1465,000000	21,346700
1464,000000	21,396600
1463,000000	21,469400
1462,000000	21,548200
1461,000000	21,621500
1460,000000	21,699100
1459,000000	21,766900
1458,000000	21,834300
1457,000000	21,918900
1456,000000	22,019500
1455,000000	22,112200
1454,000000	22,191400
1453,000000	22,278900
1452,000000	22,392000
1451,000000	22,514500
1450,000000	22,635400
1449,000000	22,715900
1448,000000	22,822400
1447,000000	22,936000
1446,000000	23,057400
1445,000000	23,194600
1444,000000	23,301400
1443,000000	23,436400
1442,000000	23,549300
1441,000000	23,674700
1440,000000	23,805900
1439,000000	23,913000
1438,000000	24,036200
1437,000000	24,160000
1436,000000	24,248600
1435,000000	24,353600
1434,000000	24,480500
1433,000000	24,605600
1432,000000	24,719000
1431,000000	24,846300
1430,000000	24,965500
1429,000000	25,103600
1428,000000	25,261900
1427,000000	25,412000
1426,000000	25,587000
1425,000000	25,750600
1424,000000	25,950800
1423,000000	26,173800
1422,000000	26,337000
1421,000000	26,481700
1420,000000	26,681200
1419,000000	26,902800
1418,000000	27,109400
1417,000000	27,233100
1416,000000	27,349900
1415,000000	27,510900
1414,000000	27,738900
1413,000000	27,871200
1412,000000	27,992600
1411,000000	28,146700
1410,000000	28,319700
1409,000000	28,607200
1408,000000	28,831000
1407,000000	29,127100
1406,000000	29,419200
1405,000000	29,707300
1404,000000	30,050600
1403,000000	30,261200
1402,000000	30,484100
1401,000000	30,819400
1400,000000	31,209700
1399,000000	31,387700
1398,000000	31,474500
1397,000000	31,616400
1396,000000	31,836500
1395,000000	32,023000
1394,000000	32,029900
1393,000000	31,998900
1392,000000	32,196000
1391,000000	32,280500
1390,000000	32,309100
1389,000000	32,436500
1388,000000	32,693400
1387,000000	32,912600
1386,000000	33,047300
1385,000000	33,359100
1384,000000	33,620500
1383,000000	33,894100
1382,000000	34,228800
1381,000000	34,372900
1380,000000	34,444200
1379,000000	34,379500
1378,000000	34,376600
1377,000000	34,438200
1376,000000	34,510300
1375,000000	34,609300
1374,000000	34,814000
1373,000000	35,072800
1372,000000	35,435900
1371,000000	35,792500
1370,000000	36,098100
1369,000000	36,294600
1368,000000	36,628400
1367,000000	36,952000
1366,000000	37,023200
1365,000000	37,238800
1364,000000	37,472900
1363,000000	37,474500
1362,000000	37,695400
1361,000000	37,932500
1360,000000	37,850400
1359,000000	37,842900
1358,000000	37,905600
1357,000000	38,038300
1356,000000	38,246000
1355,000000	38,629600
1354,000000	39,182700
1353,000000	39,661900
1352,000000	40,153200
1351,000000	40,719300
1350,000000	41,199900
1349,000000	41,572900
1348,000000	41,979200
1347,000000	42,348900
1346,000000	42,681000
1345,000000	42,972700
1344,000000	43,298500
1343,000000	43,552800
1342,000000	43,800900
1341,000000	44,079600
1340,000000	44,307200
1339,000000	44,543800
1338,000000	44,794000
1337,000000	44,976700
1336,000000	45,216900
1335,000000	45,388300
1334,000000	45,574200
1333,000000	45,737100
1332,000000	45,854500
1331,000000	46,026500
1330,000000	46,169900
1329,000000	46,293500
1328,000000	46,396200
1327,000000	46,555100
1326,000000	46,650800
1325,000000	46,789800
1324,000000	46,862000
1323,000000	46,960000
1322,000000	47,049000
1321,000000	47,126600
1320,000000	47,227500
1319,000000	47,301800
1318,000000	47,395500
1317,000000	47,431600
1316,000000	47,492700
1315,000000	47,563700
1314,000000	47,630600
1313,000000	47,661700
1312,000000	47,728600
1311,000000	47,778500
1310,000000	47,804400
1309,000000	47,802000
1308,000000	47,828800
1307,000000	47,863800
1306,000000	47,901400
1305,000000	47,915800
1304,000000	47,920800
1303,000000	47,901100
1302,000000	47,849300
1301,000000	47,842000
1300,000000	47,851100
1299,000000	47,824200
1298,000000	47,819700
1297,000000	47,799100
1296,000000	47,803600
1295,000000	47,788300
1294,000000	47,788200
1293,000000	47,773800
1292,000000	47,767400
1291,000000	47,748400
1290,000000	47,711300
1289,000000	47,643400
1288,000000	47,608600
1287,000000	47,562000
1286,000000	47,513900
1285,000000	47,479200
1284,000000	47,428100
1283,000000	47,374500
1282,000000	47,322900
1281,000000	47,255200
1280,000000	47,161300
1279,000000	47,097100
1278,000000	47,032600
1277,000000	46,980100
1276,000000	46,943100
1275,000000	46,907900
1274,000000	46,875200
1273,000000	46,825900
1272,000000	46,771000
1271,000000	46,732100
1270,000000	46,667000
1269,000000	46,626500
1268,000000	46,555700
1267,000000	46,518400
1266,000000	46,465700
1265,000000	46,430500
1264,000000	46,377100
1263,000000	46,349400
1262,000000	46,310000
1261,000000	46,246400
1260,000000	46,211900
1259,000000	46,171300
1258,000000	46,128900
1257,000000	46,063400
1256,000000	46,013400
1255,000000	45,977200
1254,000000	45,929000
1253,000000	45,869600
1252,000000	45,811400
1251,000000	45,747700
1250,000000	45,653900
1249,000000	45,566200
1248,000000	45,494200
1247,000000	45,405100
1246,000000	45,319800
1245,000000	45,232500
1244,000000	45,151000
1243,000000	45,052400
1242,000000	44,930800
1241,000000	44,805100
1240,000000	44,662600
1239,000000	44,522500
1238,000000	44,395900
1237,000000	44,247900
1236,000000	44,074200
1235,000000	43,927000
1234,000000	43,776000
1233,000000	43,621000
1232,000000	43,453500
1231,000000	43,290600
1230,000000	43,144800
1229,000000	42,980000
1228,000000	42,803500
1227,000000	42,656000
1226,000000	42,499500
1225,000000	42,327500
1224,000000	42,167400
1223,000000	41,975600
1222,000000	41,827300
1221,000000	41,714000
1220,000000	41,548900
1219,000000	41,386100
1218,000000	41,250600
1217,000000	41,131100
1216,000000	41,012400
1215,000000	40,892600
1214,000000	40,783100
1213,000000	40,674500
1212,000000	40,587300
1211,000000	40,510200
1210,000000	40,421600
1209,000000	40,360800
1208,000000	40,300700
1207,000000	40,248700
1206,000000	40,212300
1205,000000	40,196700
1204,000000	40,188000
1203,000000	40,173200
1202,000000	40,161000
1201,000000	40,153100
1200,000000	40,138700
1199,000000	40,099600
1198,000000	40,019400
1197,000000	39,895300
1196,000000	39,734100
1195,000000	39,511200
1194,000000	39,211900
1193,000000	38,848800
1192,000000	38,428100
1191,000000	37,986500
1190,000000	37,555400
1189,000000	37,173900
1188,000000	36,878100
1187,000000	36,710000
1186,000000	36,674000
1185,000000	36,746300
1184,000000	36,925500
1183,000000	37,237100
1182,000000	37,679100
1181,000000	38,161000
1180,000000	38,637600
1179,000000	39,083200
1178,000000	39,478000
1177,000000	39,802900
1176,000000	40,087100
1175,000000	40,380000
1174,000000	40,646600
1173,000000	40,941700
1172,000000	41,257500
1171,000000	41,576100
1170,000000	41,895200
1169,000000	42,227100
1168,000000	42,553800
1167,000000	42,878700
1166,000000	43,207800
1165,000000	43,568600
1164,000000	43,907500
1163,000000	44,214300
1162,000000	44,558700
1161,000000	44,884200
1160,000000	45,190700
1159,000000	45,497900
1158,000000	45,786800
1157,000000	46,049200
1156,000000	46,279000
1155,000000	46,429100
1154,000000	46,549300
1153,000000	46,624400
1152,000000	46,602700
1151,000000	46,558900
1150,000000	46,551700
1149,000000	46,529900
1148,000000	46,482700
1147,000000	46,496100
1146,000000	46,581200
1145,000000	46,734100
1144,000000	46,963500
1143,000000	47,217200
1142,000000	47,466500
1141,000000	47,757800
1140,000000	48,067700
1139,000000	48,307700
1138,000000	48,593800
1137,000000	48,914400
1136,000000	49,214400
1135,000000	49,575600
1134,000000	49,830900
1133,000000	50,042600
1132,000000	50,261800
1131,000000	50,475300
1130,000000	50,651100
1129,000000	50,813800
1128,000000	50,941700
1127,000000	51,045700
1126,000000	51,103800
1125,000000	51,170200
1124,000000	51,217500
1123,000000	51,271100
1122,000000	51,284600
1121,000000	51,321300
1120,000000	51,362800
1119,000000	51,393800
1118,000000	51,363100
1117,000000	51,362200
1116,000000	51,358100
1115,000000	51,338900
1114,000000	51,330000
1113,000000	51,280200
1112,000000	51,284000
1111,000000	51,272800
1110,000000	51,245700
1109,000000	51,249400
1108,000000	51,231700
1107,000000	51,205600
1106,000000	51,183200
1105,000000	51,167400
1104,000000	51,103700
1103,000000	51,121600
1102,000000	51,141800
1101,000000	51,080700
1100,000000	51,064600
1099,000000	51,000900
1098,000000	50,969900
1097,000000	50,918400
1096,000000	50,898100
1095,000000	50,869500
1094,000000	50,819800
1093,000000	50,785600
1092,000000	50,727900
1091,000000	50,706000
1090,000000	50,665600
1089,000000	50,648700
1088,000000	50,547500
1087,000000	50,486100
1086,000000	50,470400
1085,000000	50,420800
1084,000000	50,356200
1083,000000	50,278800
1082,000000	50,194600
1081,000000	50,163300
1080,000000	50,107000
1079,000000	50,077200
1078,000000	50,046200
1077,000000	50,000900
1076,000000	49,961900
1075,000000	49,930400
1074,000000	49,848000
1073,000000	49,833300
1072,000000	49,763200
1071,000000	49,712900
1070,000000	49,679000
1069,000000	49,646000
1068,000000	49,602000
1067,000000	49,520500
1066,000000	49,482700
1065,000000	49,423300
1064,000000	49,379000
1063,000000	49,313600
1062,000000	49,301800
1061,000000	49,206600
1060,000000	49,165000
1059,000000	49,097100
1058,000000	49,064100
1057,000000	48,963500
1056,000000	48,932600
1055,000000	48,837100
1054,000000	48,843800
1053,000000	48,743300
1052,000000	48,707900
1051,000000	48,676500
1050,000000	48,605600
1049,000000	48,541300
1048,000000	48,520500
1047,000000	48,464400
1046,000000	48,435800
1045,000000	48,434400
1044,000000	48,391300
1043,000000	48,309100
1042,000000	48,278800
1041,000000	48,249000
1040,000000	48,195300
1039,000000	48,159100
1038,000000	48,094300
1037,000000	48,099800
1036,000000	48,047600
1035,000000	47,991700
1034,000000	47,915200
1033,000000	47,828300
1032,000000	47,788000
1031,000000	47,771800
1030,000000	47,763300
1029,000000	47,668400
1028,000000	47,644700
1027,000000	47,548800
1026,000000	47,533500
1025,000000	47,459400
1024,000000	47,338100
1023,000000	47,281400
1022,000000	47,221400
1021,000000	47,158100
1020,000000	47,071400
1019,000000	47,031600
1018,000000	47,007100
1017,000000	46,954900
1016,000000	46,891000
1015,000000	46,912300
1014,000000	46,873400
1013,000000	46,805500
1012,000000	46,818200
1011,000000	46,756200
1010,000000	46,756000
1009,000000	46,773400
1008,000000	46,716000
1007,000000	46,741700
1006,000000	46,757800
1005,000000	46,780500
1004,000000	46,710500
1003,000000	46,735300
1002,000000	46,668600
1001,000000	46,660800
1000,000000	46,707000
999,000000	46,714300
998,000000	46,693800
997,000000	46,662500
996,000000	46,692200
995,000000	46,749000
994,000000	46,721000
993,000000	46,686300
992,000000	46,702700
991,000000	46,706000
990,000000	46,650800
989,000000	46,678800
988,000000	46,757100
987,000000	46,769000
986,000000	46,747900
985,000000	46,673000
984,000000	46,742600
983,000000	46,877000
982,000000	46,867900
981,000000	46,794300
980,000000	46,791600
979,000000	46,801100
978,000000	46,805700
977,000000	46,839300
976,000000	46,867500
975,000000	46,887000
974,000000	46,873700
973,000000	46,915300
972,000000	46,888200
971,000000	46,895700
970,000000	46,939900
969,000000	46,900700
968,000000	46,843400
967,000000	46,814600
966,000000	46,892700
965,000000	46,942900
964,000000	46,974400
963,000000	46,931100
962,000000	46,852000
961,000000	46,932900
960,000000	46,858800
959,000000	46,877400
958,000000	47,024200
957,000000	47,115300
956,000000	47,077800
955,000000	47,005400
954,000000	46,980100
953,000000	46,993400
952,000000	47,017400
951,000000	47,070800
950,000000	47,113700
949,000000	47,140300
948,000000	47,072400
947,000000	47,075900
946,000000	47,211300
945,000000	47,142900
944,000000	47,081900
943,000000	47,129800
942,000000	47,128700
941,000000	47,154000
940,000000	47,178700
939,000000	47,259100
938,000000	47,329500
937,000000	47,348600
936,000000	47,436100
935,000000	47,393900
934,000000	47,411000
933,000000	47,469600
932,000000	47,479300
931,000000	47,531900
930,000000	47,562400
929,000000	47,610100
928,000000	47,675800
927,000000	47,643800
926,000000	47,626800
925,000000	47,720700
924,000000	47,839900
923,000000	47,946200
922,000000	47,908100
921,000000	47,953200
920,000000	47,923900
919,000000	48,101500
918,000000	48,416500
917,000000	48,381300
916,000000	48,212000
915,000000	48,204300
914,000000	48,178000
913,000000	48,274900
912,000000	48,539100
911,000000	48,577400
910,000000	48,595300
909,000000	48,651200
908,000000	48,607300
907,000000	48,620200
906,000000	48,825500
905,000000	48,999200
904,000000	49,341000
903,000000	49,464800
902,000000	49,490600
901,000000	49,625500
900,000000	49,888400
899,000000	50,095400
898,000000	50,210900
897,000000	50,201400
896,000000	50,303300
895,000000	50,623100
894,000000	50,877400
893,000000	50,945700
892,000000	51,009700
891,000000	51,236900
890,000000	51,162900
889,000000	51,355900
888,000000	51,690300
887,000000	50,926900
886,000000	51,313000
885,000000	51,861800
884,000000	52,166500
883,000000	51,880400
882,000000	51,837900
881,000000	52,295600
880,000000	52,917600
879,000000	52,936400
878,000000	53,181700
877,000000	52,990700
876,000000	52,815200
875,000000	53,387000
874,000000	53,778200
873,000000	53,937800
872,000000	53,986300
871,000000	53,782200
870,000000	53,873700
869,000000	54,390300
868,000000	54,655200
867,000000	54,852600
866,000000	54,203100
865,000000	54,242200
864,000000	54,510500
863,000000	54,916100
862,000000	55,961400
861,000000	55,889000
860,000000	56,425700
859,000000	56,255800
858,000000	52,913800
857,000000	52,897000
856,000000	52,931500
855,000000	53,041800
854,000000	53,092000
853,000000	53,180300
852,000000	53,284600
851,000000	53,616100
850,000000	53,795700
849,000000	54,002900
848,000000	54,271000
847,000000	54,529600
846,000000	54,808200
845,000000	54,942500
844,000000	55,266100
843,000000	55,340500
842,000000	55,527900
841,000000	55,857100
840,000000	55,792200
839,000000	56,113200
838,000000	56,513500
837,000000	56,889600
836,000000	57,050800
835,000000	56,931100
834,000000	57,266300
833,000000	57,483100
832,000000	57,599200
831,000000	57,730600
830,000000	58,060400
829,000000	58,048800
828,000000	58,394800
827,000000	58,678300
826,000000	58,814900
825,000000	59,017000
824,000000	59,216700
823,000000	59,391900
822,000000	59,563000
821,000000	59,746500
820,000000	59,949800
819,000000	60,010000
818,000000	60,453800
817,000000	60,467200
816,000000	60,650400
815,000000	60,901500
814,000000	61,054500
813,000000	61,346500
812,000000	61,444700
811,000000	61,604600
810,000000	61,740500
809,000000	61,793400
808,000000	62,014300
807,000000	62,019500
806,000000	62,222700
805,000000	62,356700
804,000000	62,404800
803,000000	62,693600
802,000000	62,794000
801,000000	62,864800
800,000000	62,960100
799,000000	63,039300
798,000000	63,236100
797,000000	63,088000
796,000000	63,355700
795,000000	63,409600
794,000000	63,721500
793,000000	63,763400
792,000000	63,724700
791,000000	64,040500
790,000000	64,238800
789,000000	64,071800
788,000000	64,107000
787,000000	64,273300
786,000000	64,373700
785,000000	64,610500
784,000000	64,533100
783,000000	64,592300
782,000000	64,768900
781,000000	64,688700
780,000000	64,843600
779,000000	64,982600
778,000000	64,909300
777,000000	65,026800
776,000000	65,122200
775,000000	65,167900
774,000000	65,109200
773,000000	65,275600
772,000000	65,231300
771,000000	65,232300
770,000000	65,315000
769,000000	65,244900
768,000000	65,228400
767,000000	65,299700
766,000000	65,231900
765,000000	65,233400
764,000000	65,315600
763,000000	65,222600
762,000000	65,231800
761,000000	65,134400
760,000000	65,240700
759,000000	65,118700
758,000000	65,108900
757,000000	65,060500
756,000000	64,982800
755,000000	64,940000
754,000000	64,959500
753,000000	64,947200
752,000000	64,805200
751,000000	64,734000
750,000000	64,630700
749,000000	64,572700
748,000000	64,424600
747,000000	64,334500
746,000000	64,162700
745,000000	64,003100
744,000000	63,858000
743,000000	63,717900
742,000000	63,491500
741,000000	63,281300
740,000000	63,061200
739,000000	62,921100
738,000000	62,727200
737,000000	62,452600
736,000000	62,306900
735,000000	62,042600
734,000000	61,817600
733,000000	61,622700
732,000000	61,395900
731,000000	61,087200
730,000000	60,802600
729,000000	60,584600
728,000000	60,329800
727,000000	60,039200
726,000000	59,818300
725,000000	59,497900
724,000000	59,221000
723,000000	58,958000
722,000000	58,645900
721,000000	58,312600
720,000000	58,072400
719,000000	57,822600
718,000000	57,600400
717,000000	57,406500
716,000000	57,148700
715,000000	56,897100
714,000000	56,648600
713,000000	56,486800
712,000000	56,251700
711,000000	56,080400
710,000000	55,897700
709,000000	55,732000
708,000000	55,541100
707,000000	55,401900
706,000000	55,269700
705,000000	55,148300
704,000000	54,986800
703,000000	54,944000
702,000000	54,849800
701,000000	54,794900
700,000000	54,712200
699,000000	54,652300
698,000000	54,624600
697,000000	54,565100
696,000000	54,571200
695,000000	54,519800
694,000000	54,457500
693,000000	54,403500
692,000000	54,361600
691,000000	54,310200
690,000000	54,348600
689,000000	54,346800
688,000000	54,326400
687,000000	54,354700
686,000000	54,347300
685,000000	54,318100
684,000000	54,316400
683,000000	54,264200
682,000000	54,247900
681,000000	54,191600
680,000000	54,185500
679,000000	54,167000
678,000000	54,116500
677,000000	54,046900
676,000000	53,941100
675,000000	53,820600
674,000000	53,743800
673,000000	53,649700
672,000000	53,500900
671,000000	53,411400
670,000000	53,298100
669,000000	53,135600
668,000000	53,013300
667,000000	52,876100
666,000000	52,737000
665,000000	52,606100
664,000000	52,421000
663,000000	52,224800
662,000000	52,041800
661,000000	51,849700
660,000000	51,620400
659,000000	51,370200
658,000000	51,149400
657,000000	50,934100
656,000000	50,686000
655,000000	50,461300
654,000000	50,189000
653,000000	49,887700
652,000000	49,615800
651,000000	49,286700
650,000000	48,959000
649,000000	48,627100
648,000000	48,286500
647,000000	47,967800
646,000000	47,670200
645,000000	47,346000
644,000000	47,004200
643,000000	46,674900
642,000000	46,369900
641,000000	46,091800
640,000000	45,811700
639,000000	45,548900
638,000000	45,315800
637,000000	45,114300
636,000000	44,933800
635,000000	44,758200
634,000000	44,625800
633,000000	44,546700
632,000000	44,466600
631,000000	44,403200
630,000000	44,360700
629,000000	44,320000
628,000000	44,333700
627,000000	44,374600
626,000000	44,450200
625,000000	44,564400
624,000000	44,675000
623,000000	44,815800
622,000000	44,988500
621,000000	45,170300
620,000000	45,422500
619,000000	45,677500
618,000000	45,905700
617,000000	46,185000
616,000000	46,479100
615,000000	46,810900
614,000000	47,160200
613,000000	47,475000
612,000000	47,775900
611,000000	48,079900
610,000000	48,416500
609,000000	48,724500
608,000000	49,033500
607,000000	49,342400
606,000000	49,651500
605,000000	49,966100
604,000000	50,261600
603,000000	50,558800
602,000000	50,879800
601,000000	51,190900
600,000000	51,488700
599,000000	51,796900
598,000000	52,132200
597,000000	52,482900
596,000000	52,774200
595,000000	53,053200
594,000000	53,401100
593,000000	53,725300
592,000000	53,988900
591,000000	54,259300
590,000000	54,556600
589,000000	54,847700
588,000000	55,112500
587,000000	55,363400
586,000000	55,607300
585,000000	55,850800
584,000000	56,077400
583,000000	56,313400
582,000000	56,538600
581,000000	56,731200
580,000000	56,932500
579,000000	57,146500
578,000000	57,353700
577,000000	57,549300
576,000000	57,747100
575,000000	57,947600
574,000000	58,166400
573,000000	58,364700
572,000000	58,515600
571,000000	58,685000
570,000000	58,837000
569,000000	58,973300
568,000000	59,096700
567,000000	59,214500
566,000000	59,330200
565,000000	59,400600
564,000000	59,486700
563,000000	59,531500
562,000000	59,586400
561,000000	59,641000
560,000000	59,661700
559,000000	60,137500
558,000000	60,326200
557,000000	60,390200
556,000000	60,392000
555,000000	60,371900
554,000000	60,345800
553,000000	60,366400
552,000000	60,377100
551,000000	60,295100
550,000000	60,232800
549,000000	60,160700
548,000000	60,056100
547,000000	59,947900
546,000000	59,874500
545,000000	59,759300
544,000000	59,602900
543,000000	59,441000
542,000000	59,230800
541,000000	59,007700
540,000000	58,790100
539,000000	58,545000
538,000000	58,303700
537,000000	58,078300
536,000000	57,774200
535,000000	57,443400
534,000000	57,107600
533,000000	56,790900
532,000000	56,401000
531,000000	56,017300
530,000000	55,581700
529,000000	55,129400
528,000000	54,689200
527,000000	54,237000
526,000000	53,742000
525,000000	53,252900
524,000000	52,726200
523,000000	52,216000
522,000000	51,641600
521,000000	51,059400
520,000000	50,494700
519,000000	49,891000
518,000000	49,272700
517,000000	48,644500
516,000000	48,048900
515,000000	47,413800
514,000000	46,753800
513,000000	46,140700
512,000000	45,489500
511,000000	44,871400
510,000000	44,188700
509,000000	43,539500
508,000000	42,890700
507,000000	42,235800
506,000000	41,592100
505,000000	40,906000
504,000000	40,244300
503,000000	39,552100
502,000000	38,909100
501,000000	38,238400
500,000000	37,560100
499,000000	36,908400
498,000000	36,291500
497,000000	35,660900
496,000000	35,015200
495,000000	34,372100
494,000000	33,730200
493,000000	33,136100
492,000000	32,574800
491,000000	31,947600
490,000000	31,406200
489,000000	30,903300
488,000000	30,363700
487,000000	29,870700
486,000000	29,397400
485,000000	28,957200
484,000000	28,543100
483,000000	28,139200
482,000000	27,727400
481,000000	27,365200
480,000000	26,994600
479,000000	26,662900
478,000000	26,365900
477,000000	26,138000
476,000000	25,871100
475,000000	25,625000
474,000000	25,406800
473,000000	25,184200
472,000000	24,932500
471,000000	24,721900
470,000000	24,511000
469,000000	24,287600
468,000000	24,071700
467,000000	23,817000
466,000000	23,617900
465,000000	23,364700
464,000000	23,116200
463,000000	22,853200
462,000000	22,573600
461,000000	22,306600
460,000000	22,034300
459,000000	21,741600
458,000000	21,421700
457,000000	21,109200
456,000000	20,805000
455,000000	20,502400
454,000000	20,189700
453,000000	19,896700
452,000000	19,556100
451,000000	19,259600
450,000000	18,938300
449,000000	18,631700
448,000000	18,350600
447,000000	18,090300
446,000000	17,837400
445,000000	17,578700
444,000000	17,376800
443,000000	17,151500
442,000000	16,931500
441,000000	16,763800
440,000000	16,609000
439,000000	16,500200
438,000000	16,368800
437,000000	16,235400
436,000000	16,150800
435,000000	16,066400
434,000000	15,987500
433,000000	15,947500
432,000000	15,901700
431,000000	15,873200
430,000000	15,823800
429,000000	15,799800
428,000000	15,796000
427,000000	15,770700
426,000000	15,768400
425,000000	15,765100
424,000000	15,770300
423,000000	15,743800
422,000000	15,744000
421,000000	15,732800
420,000000	15,700000
419,000000	15,668500
418,000000	15,646200
417,000000	15,620800
416,000000	15,580900
415,000000	15,544600
414,000000	15,486600
413,000000	15,433500
412,000000	15,361000
411,000000	15,291100
410,000000	15,193200
409,000000	15,112500
408,000000	15,016300
407,000000	14,909200
406,000000	14,772000
405,000000	14,634200
404,000000	14,506900
403,000000	14,337000
402,000000	14,164500
401,000000	13,963900
400,000000	13,800200
399,000000	13,579800
398,000000	13,371900
397,000000	13,176900
396,000000	12,938800
395,000000	12,703300
394,000000	12,460700
393,000000	12,202900
392,000000	11,931500
391,000000	11,663800
390,000000	11,410300
389,000000	11,118200
388,000000	10,834000
387,000000	10,564700
386,000000	10,296600
385,000000	10,025700
384,000000	9,779400
383,000000	9,508400
382,000000	9,208500
381,000000	8,950200
380,000000	8,687900
379,000000	8,431100
378,000000	8,191900
377,000000	7,971800
376,000000	7,825200
375,000000	7,805800
374,000000	7,619200
373,000000	7,387900
372,000000	7,115100
371,000000	6,928600
370,000000	6,801800
369,000000	6,657400
368,000000	6,443000
367,000000	6,295300
366,000000	6,144700
365,000000	6,035400
364,000000	5,916200
363,000000	5,788100
362,000000	5,646000
361,000000	5,507700
360,000000	5,406000
359,000000	5,300300
358,000000	5,217100
357,000000	5,149000
356,000000	5,034900
355,000000	4,967400
354,000000	4,923400
353,000000	4,830300
352,000000	4,722200
351,000000	4,660100
350,000000	4,615500
349,000000	4,595200
348,000000	4,603700
347,000000	4,581500
346,000000	4,489500
345,000000	4,483200
344,000000	4,519600
343,000000	4,521000
342,000000	4,452500
341,000000	4,441500
340,000000	4,391200
339,000000	4,389700
338,000000	4,422800
337,000000	4,411100
336,000000	4,355600
335,000000	4,376000
334,000000	4,414200
333,000000	4,384400
332,000000	4,355100
331,000000	4,310500
330,000000	4,301300
329,000000	4,332100
328,000000	4,343600
327,000000	4,395300
326,000000	4,331100
325,000000	4,245100
324,000000	4,271900
323,000000	4,236700
322,000000	4,284200
321,000000	4,327400
320,000000	4,343000
319,000000	4,391900
318,000000	4,350500
317,000000	4,408000
316,000000	4,328100
315,000000	4,166400
314,000000	4,171400
313,000000	4,217400
312,000000	4,247100
311,000000	4,229400
310,000000	4,194100
309,000000	4,210500
308,000000	4,222300
307,000000	4,186300
306,000000	4,166800
305,000000	4,204800
304,000000	4,231800
303,000000	4,234900
302,000000	4,248300
301,000000	4,264800
300,000000	4,249900
299,000000	4,251900
298,000000	4,239300
297,000000	4,247800
296,000000	4,249700
295,000000	4,253000
294,000000	4,252600
293,000000	4,283700
292,000000	4,285300
291,000000	4,271500
290,000000	4,296000
289,000000	4,313000
288,000000	4,313200
287,000000	4,339700
286,000000	4,317100
285,000000	4,293200
284,000000	4,316400
283,000000	4,340100
282,000000	4,340600
281,000000	4,351300
280,000000	4,330200
279,000000	4,334600
278,000000	4,353400
277,000000	4,338400
276,000000	4,360200
275,000000	4,383500
274,000000	4,386700
273,000000	4,402000
272,000000	4,403400
271,000000	4,404700
270,000000	4,390600
269,000000	4,407400
268,000000	4,420500
267,000000	4,428000
266,000000	4,450900
265,000000	4,455000
264,000000	4,456000
263,000000	4,512900
262,000000	4,523800
261,000000	4,529600
260,000000	4,538000
259,000000	4,574300
258,000000	4,564900
257,000000	4,549100
256,000000	4,595500
255,000000	4,619600
254,000000	4,607500
253,000000	4,579300
252,000000	4,580800
251,000000	4,625600
250,000000	4,620700
