PE UV       SUBTECH     SPECTRUM    ASCII       PEDS        4.00        
   -1
CICIMAUCR0020-1.Sample.ASC
24/04/12
14:23:27.00
24/04/12
14:23:27.00
Vinicio Soto Monge
C. resplendens
250,000000
1
Lambda 1050
1050L1511233
PerkinElmer UV WinLab 6.3.2.0749 / 2.02.05 Lambda 900 UV/VIS/NIR, Aug  7 2015 09:38:08

0
0
3350/servo 860,8/2
0
0
UV/VIS
1
1
1
DoubleDePol,CommonBeamDepol,RBeamAtt,SBeamAtt,60mm sphere, WB InGaAs Detector
0
0
0
0
Program
Program
3350/servo 860,8/2
3350/0,2 860,8/0,2
3350/0,2 860,8/0,2
0
15.00
 
 
 
0
 
860,8
319,2
860,8
Front
100
on
S:100 R:100
0
0
0
0
 
0
 
 
 
0
 
 
0
0
0
0
0
 
 
 
 
0
0


0
0
#HDR
-1
-1
#GR
nm
%R
1.0
0.0
2500,000000
-1,000000
2251
8
48,794800
3,290600
#DATA
2500,000000	8,761100
2499,000000	8,905100
2498,000000	8,770200
2497,000000	8,770200
2496,000000	8,749800
2495,000000	8,886300
2494,000000	8,716800
2493,000000	8,798000
2492,000000	8,686400
2491,000000	8,622700
2490,000000	8,657500
2489,000000	8,592500
2488,000000	8,614100
2487,000000	8,575300
2486,000000	8,553200
2485,000000	8,629800
2484,000000	8,556400
2483,000000	8,550000
2482,000000	8,557600
2481,000000	8,604600
2480,000000	8,557400
2479,000000	8,588700
2478,000000	8,605100
2477,000000	8,601100
2476,000000	8,626900
2475,000000	8,651100
2474,000000	8,670600
2473,000000	8,621900
2472,000000	8,596400
2471,000000	8,647700
2470,000000	8,629100
2469,000000	8,715100
2468,000000	8,708900
2467,000000	8,721400
2466,000000	8,769100
2465,000000	8,803200
2464,000000	8,856900
2463,000000	8,879700
2462,000000	8,928900
2461,000000	8,983200
2460,000000	9,040100
2459,000000	9,117300
2458,000000	9,187100
2457,000000	9,225400
2456,000000	9,302800
2455,000000	9,378900
2454,000000	9,444900
2453,000000	9,487500
2452,000000	9,559300
2451,000000	9,634600
2450,000000	9,711500
2449,000000	9,738400
2448,000000	9,805200
2447,000000	9,852500
2446,000000	9,931800
2445,000000	9,992900
2444,000000	10,050800
2443,000000	10,103400
2442,000000	10,175100
2441,000000	10,244800
2440,000000	10,301300
2439,000000	10,351100
2438,000000	10,399000
2437,000000	10,459300
2436,000000	10,539700
2435,000000	10,581400
2434,000000	10,615500
2433,000000	10,660100
2432,000000	10,710100
2431,000000	10,759600
2430,000000	10,818100
2429,000000	10,861700
2428,000000	10,916100
2427,000000	10,940500
2426,000000	10,933700
2425,000000	10,896400
2424,000000	10,836100
2423,000000	10,785100
2422,000000	10,780200
2421,000000	10,821500
2420,000000	10,846700
2419,000000	10,868200
2418,000000	10,903600
2417,000000	10,870900
2416,000000	10,853400
2415,000000	10,840800
2414,000000	10,867100
2413,000000	10,879700
2412,000000	10,896600
2411,000000	10,873800
2410,000000	10,867900
2409,000000	10,896500
2408,000000	10,904400
2407,000000	10,912500
2406,000000	10,889000
2405,000000	10,882100
2404,000000	10,891500
2403,000000	10,894800
2402,000000	10,887900
2401,000000	10,902900
2400,000000	10,904100
2399,000000	10,891700
2398,000000	10,910600
2397,000000	10,911300
2396,000000	10,909000
2395,000000	10,917700
2394,000000	10,919500
2393,000000	10,901900
2392,000000	10,915500
2391,000000	10,897200
2390,000000	10,877300
2389,000000	10,893500
2388,000000	10,875900
2387,000000	10,844200
2386,000000	10,835500
2385,000000	10,836700
2384,000000	10,794300
2383,000000	10,756800
2382,000000	10,759700
2381,000000	10,743200
2380,000000	10,736200
2379,000000	10,716300
2378,000000	10,668900
2377,000000	10,652600
2376,000000	10,620900
2375,000000	10,578100
2374,000000	10,563700
2373,000000	10,548100
2372,000000	10,501200
2371,000000	10,449000
2370,000000	10,408300
2369,000000	10,381800
2368,000000	10,331100
2367,000000	10,275000
2366,000000	10,241300
2365,000000	10,202400
2364,000000	10,130200
2363,000000	10,047100
2362,000000	10,019400
2361,000000	9,954000
2360,000000	9,884500
2359,000000	9,865200
2358,000000	9,836400
2357,000000	9,808500
2356,000000	9,763600
2355,000000	9,724800
2354,000000	9,718600
2353,000000	9,712300
2352,000000	9,701200
2351,000000	9,710100
2350,000000	9,723000
2349,000000	9,725500
2348,000000	9,734300
2347,000000	9,747600
2346,000000	9,779100
2345,000000	9,797500
2344,000000	9,789600
2343,000000	9,769400
2342,000000	9,772100
2341,000000	9,776100
2340,000000	9,763300
2339,000000	9,747800
2338,000000	9,725200
2337,000000	9,685500
2336,000000	9,677300
2335,000000	9,671400
2334,000000	9,609500
2333,000000	9,537900
2332,000000	9,491100
2331,000000	9,469700
2330,000000	9,449200
2329,000000	9,375000
2328,000000	9,328600
2327,000000	9,273800
2326,000000	9,215900
2325,000000	9,178200
2324,000000	9,098800
2323,000000	9,046100
2322,000000	9,005900
2321,000000	8,913200
2320,000000	8,848600
2319,000000	8,796100
2318,000000	8,712100
2317,000000	8,651200
2316,000000	8,602300
2315,000000	8,513800
2314,000000	8,460600
2313,000000	8,430100
2312,000000	8,409200
2311,000000	8,345700
2310,000000	8,316300
2309,000000	8,311400
2308,000000	8,290900
2307,000000	8,283900
2306,000000	8,324300
2305,000000	8,370900
2304,000000	8,377500
2303,000000	8,406100
2302,000000	8,453300
2301,000000	8,504000
2300,000000	8,548100
2299,000000	8,580700
2298,000000	8,649600
2297,000000	8,666400
2296,000000	8,697000
2295,000000	8,731400
2294,000000	8,761900
2293,000000	8,776700
2292,000000	8,784700
2291,000000	8,779100
2290,000000	8,753400
2289,000000	8,753100
2288,000000	8,740300
2287,000000	8,698700
2286,000000	8,668300
2285,000000	8,641500
2284,000000	8,602200
2283,000000	8,552400
2282,000000	8,490600
2281,000000	8,479400
2280,000000	8,443900
2279,000000	8,390400
2278,000000	8,336400
2277,000000	8,312300
2276,000000	8,294100
2275,000000	8,243100
2274,000000	8,218800
2273,000000	8,203200
2272,000000	8,228900
2271,000000	8,219200
2270,000000	8,231900
2269,000000	8,259700
2268,000000	8,319800
2267,000000	8,340000
2266,000000	8,416400
2265,000000	8,510800
2264,000000	8,601300
2263,000000	8,726300
2262,000000	8,814500
2261,000000	8,947800
2260,000000	9,082500
2259,000000	9,240000
2258,000000	9,397800
2257,000000	9,532000
2256,000000	9,687900
2255,000000	9,838400
2254,000000	9,954600
2253,000000	10,128100
2252,000000	10,261700
2251,000000	10,390100
2250,000000	10,523700
2249,000000	10,624700
2248,000000	10,738900
2247,000000	10,846600
2246,000000	10,929200
2245,000000	10,996800
2244,000000	11,095800
2243,000000	11,195200
2242,000000	11,287900
2241,000000	11,323000
2240,000000	11,392200
2239,000000	11,466100
2238,000000	11,529400
2237,000000	11,587400
2236,000000	11,620100
2235,000000	11,678300
2234,000000	11,722800
2233,000000	11,758200
2232,000000	11,810100
2231,000000	11,815200
2230,000000	11,837300
2229,000000	11,841700
2228,000000	11,864000
2227,000000	11,887000
2226,000000	11,886900
2225,000000	11,915400
2224,000000	11,906900
2223,000000	11,841000
2222,000000	11,855600
2221,000000	11,854900
2220,000000	11,844400
2219,000000	11,826600
2218,000000	11,833200
2217,000000	11,813600
2216,000000	11,808100
2215,000000	11,778700
2214,000000	11,775300
2213,000000	11,773200
2212,000000	11,764600
2211,000000	11,722300
2210,000000	11,725900
2209,000000	11,699800
2208,000000	11,702600
2207,000000	11,685700
2206,000000	11,622700
2205,000000	11,604500
2204,000000	11,586100
2203,000000	11,604600
2202,000000	11,603600
2201,000000	11,577000
2200,000000	11,588300
2199,000000	11,567200
2198,000000	11,537700
2197,000000	11,513800
2196,000000	11,492700
2195,000000	11,465600
2194,000000	11,473600
2193,000000	11,453600
2192,000000	11,445600
2191,000000	11,425300
2190,000000	11,430500
2189,000000	11,401600
2188,000000	11,395200
2187,000000	11,385600
2186,000000	11,382800
2185,000000	11,339500
2184,000000	11,319900
2183,000000	11,338500
2182,000000	11,325300
2181,000000	11,324700
2180,000000	11,327800
2179,000000	11,319500
2178,000000	11,288100
2177,000000	11,277700
2176,000000	11,333100
2175,000000	11,304500
2174,000000	11,303000
2173,000000	11,313500
2172,000000	11,283100
2171,000000	11,296600
2170,000000	11,326400
2169,000000	11,315800
2168,000000	11,319800
2167,000000	11,337200
2166,000000	11,376600
2165,000000	11,368900
2164,000000	11,381700
2163,000000	11,387800
2162,000000	11,438200
2161,000000	11,455100
2160,000000	11,467300
2159,000000	11,478000
2158,000000	11,484300
2157,000000	11,519100
2156,000000	11,518400
2155,000000	11,547900
2154,000000	11,573900
2153,000000	11,595600
2152,000000	11,594900
2151,000000	11,605800
2150,000000	11,639700
2149,000000	11,653400
2148,000000	11,708900
2147,000000	11,724500
2146,000000	11,734200
2145,000000	11,736800
2144,000000	11,748800
2143,000000	11,752400
2142,000000	11,761400
2141,000000	11,762400
2140,000000	11,750500
2139,000000	11,757300
2138,000000	11,765000
2137,000000	11,772200
2136,000000	11,771700
2135,000000	11,772700
2134,000000	11,762300
2133,000000	11,749000
2132,000000	11,711400
2131,000000	11,711800
2130,000000	11,711100
2129,000000	11,685400
2128,000000	11,659900
2127,000000	11,653300
2126,000000	11,618300
2125,000000	11,580300
2124,000000	11,577600
2123,000000	11,545100
2122,000000	11,486900
2121,000000	11,484400
2120,000000	11,460400
2119,000000	11,420200
2118,000000	11,388300
2117,000000	11,359300
2116,000000	11,320400
2115,000000	11,289900
2114,000000	11,265600
2113,000000	11,246700
2112,000000	11,215600
2111,000000	11,155600
2110,000000	11,103400
2109,000000	11,068900
2108,000000	11,064300
2107,000000	11,032100
2106,000000	10,998100
2105,000000	10,961700
2104,000000	10,922700
2103,000000	10,915700
2102,000000	10,914600
2101,000000	10,880200
2100,000000	10,841300
2099,000000	10,819200
2098,000000	10,809900
2097,000000	10,805700
2096,000000	10,774400
2095,000000	10,746200
2094,000000	10,734400
2093,000000	10,705400
2092,000000	10,686700
2091,000000	10,682200
2090,000000	10,665300
2089,000000	10,654300
2088,000000	10,642500
2087,000000	10,619600
2086,000000	10,611900
2085,000000	10,604400
2084,000000	10,593500
2083,000000	10,585300
2082,000000	10,578900
2081,000000	10,546100
2080,000000	10,514100
2079,000000	10,512800
2078,000000	10,504700
2077,000000	10,483500
2076,000000	10,460000
2075,000000	10,437900
2074,000000	10,443000
2073,000000	10,444200
2072,000000	10,438100
2071,000000	10,416700
2070,000000	10,385500
2069,000000	10,368200
2068,000000	10,379200
2067,000000	10,383400
2066,000000	10,355900
2065,000000	10,351800
2064,000000	10,368200
2063,000000	10,356500
2062,000000	10,345800
2061,000000	10,341900
2060,000000	10,335800
2059,000000	10,369900
2058,000000	10,392800
2057,000000	10,412800
2056,000000	10,420600
2055,000000	10,446600
2054,000000	10,497900
2053,000000	10,523400
2052,000000	10,573400
2051,000000	10,634500
2050,000000	10,687500
2049,000000	10,747100
2048,000000	10,835500
2047,000000	10,894200
2046,000000	10,970200
2045,000000	11,059000
2044,000000	11,141500
2043,000000	11,208200
2042,000000	11,285700
2041,000000	11,368400
2040,000000	11,458700
2039,000000	11,555000
2038,000000	11,633900
2037,000000	11,705800
2036,000000	11,789300
2035,000000	11,860200
2034,000000	11,919700
2033,000000	11,975000
2032,000000	12,055400
2031,000000	12,098500
2030,000000	12,153700
2029,000000	12,214600
2028,000000	12,263800
2027,000000	12,316300
2026,000000	12,377800
2025,000000	12,401400
2024,000000	12,426200
2023,000000	12,463200
2022,000000	12,532000
2021,000000	12,564300
2020,000000	12,612000
2019,000000	12,627900
2018,000000	12,658000
2017,000000	12,693300
2016,000000	12,710400
2015,000000	12,741100
2014,000000	12,755100
2013,000000	12,759400
2012,000000	12,767000
2011,000000	12,788300
2010,000000	12,788900
2009,000000	12,798200
2008,000000	12,809500
2007,000000	12,810200
2006,000000	12,808000
2005,000000	12,778500
2004,000000	12,783600
2003,000000	12,784300
2002,000000	12,755400
2001,000000	12,757600
2000,000000	12,728500
1999,000000	12,691100
1998,000000	12,668400
1997,000000	12,651300
1996,000000	12,615200
1995,000000	12,569500
1994,000000	12,538900
1993,000000	12,518600
1992,000000	12,470500
1991,000000	12,448500
1990,000000	12,406100
1989,000000	12,378900
1988,000000	12,289100
1987,000000	12,264800
1986,000000	12,220400
1985,000000	12,172000
1984,000000	12,122100
1983,000000	12,070200
1982,000000	12,001600
1981,000000	11,980400
1980,000000	11,919500
1979,000000	11,863800
1978,000000	11,832000
1977,000000	11,773400
1976,000000	11,716300
1975,000000	11,674100
1974,000000	11,639200
1973,000000	11,572000
1972,000000	11,530500
1971,000000	11,468700
1970,000000	11,447500
1969,000000	11,384500
1968,000000	11,339300
1967,000000	11,294900
1966,000000	11,271000
1965,000000	11,219600
1964,000000	11,175200
1963,000000	11,150300
1962,000000	11,113900
1961,000000	11,075900
1960,000000	11,017200
1959,000000	10,982200
1958,000000	10,922200
1957,000000	10,898700
1956,000000	10,833500
1955,000000	10,784000
1954,000000	10,765200
1953,000000	10,733200
1952,000000	10,709000
1951,000000	10,653500
1950,000000	10,611100
1949,000000	10,591600
1948,000000	10,563100
1947,000000	10,514900
1946,000000	10,518500
1945,000000	10,507800
1944,000000	10,467200
1943,000000	10,468600
1942,000000	10,431900
1941,000000	10,425700
1940,000000	10,431500
1939,000000	10,450500
1938,000000	10,489700
1937,000000	10,531500
1936,000000	10,534900
1935,000000	10,549100
1934,000000	10,561300
1933,000000	10,580300
1932,000000	10,606600
1931,000000	10,638800
1930,000000	10,683500
1929,000000	10,778400
1928,000000	10,894200
1927,000000	10,979500
1926,000000	11,057700
1925,000000	11,146500
1924,000000	11,170900
1923,000000	11,192900
1922,000000	11,321800
1921,000000	11,521800
1920,000000	11,697500
1919,000000	11,852700
1918,000000	11,955300
1917,000000	11,977200
1916,000000	11,995300
1915,000000	12,105900
1914,000000	12,315000
1913,000000	12,570500
1912,000000	12,806900
1911,000000	12,984900
1910,000000	13,069800
1909,000000	13,092000
1908,000000	13,170000
1907,000000	13,377900
1906,000000	13,605600
1905,000000	13,937500
1904,000000	14,239100
1903,000000	14,389500
1902,000000	14,493900
1901,000000	14,669800
1900,000000	14,923200
1899,000000	15,213200
1898,000000	15,495800
1897,000000	15,698600
1896,000000	15,765400
1895,000000	15,809900
1894,000000	15,947700
1893,000000	16,133100
1892,000000	16,415000
1891,000000	16,787000
1890,000000	17,060900
1889,000000	17,258000
1888,000000	17,435600
1887,000000	17,575100
1886,000000	17,790700
1885,000000	18,112000
1884,000000	18,469500
1883,000000	18,805600
1882,000000	19,123600
1881,000000	19,428600
1880,000000	19,641500
1879,000000	19,876400
1878,000000	20,134400
1877,000000	20,401400
1876,000000	20,672500
1875,000000	20,990400
1874,000000	21,243600
1873,000000	21,513300
1872,000000	21,830400
1871,000000	22,079100
1870,000000	22,304600
1869,000000	22,533700
1868,000000	22,655000
1867,000000	22,633000
1866,000000	22,580800
1865,000000	22,526300
1864,000000	22,419000
1863,000000	22,325200
1862,000000	22,300700
1861,000000	22,324300
1860,000000	22,399500
1859,000000	22,524600
1858,000000	22,628200
1857,000000	22,583400
1856,000000	22,468000
1855,000000	22,431100
1854,000000	22,472300
1853,000000	22,465800
1852,000000	22,425700
1851,000000	22,298300
1850,000000	22,057900
1849,000000	21,980700
1848,000000	22,144500
1847,000000	22,372900
1846,000000	22,425900
1845,000000	22,207400
1844,000000	21,893800
1843,000000	21,679200
1842,000000	21,689500
1841,000000	21,847200
1840,000000	21,936900
1839,000000	21,919300
1838,000000	21,844100
1837,000000	21,821300
1836,000000	21,852900
1835,000000	21,838000
1834,000000	21,716800
1833,000000	21,491400
1832,000000	21,318100
1831,000000	21,242600
1830,000000	21,257300
1829,000000	21,244300
1828,000000	21,157800
1827,000000	21,120200
1826,000000	21,109800
1825,000000	21,051100
1824,000000	20,900200
1823,000000	20,709700
1822,000000	20,657800
1821,000000	20,789800
1820,000000	20,955300
1819,000000	20,985800
1818,000000	20,880700
1817,000000	20,751800
1816,000000	20,717500
1815,000000	20,744700
1814,000000	20,729000
1813,000000	20,678700
1812,000000	20,670000
1811,000000	20,703400
1810,000000	20,687000
1809,000000	20,625900
1808,000000	20,522500
1807,000000	20,480800
1806,000000	20,476500
1805,000000	20,462900
1804,000000	20,426600
1803,000000	20,359800
1802,000000	20,325300
1801,000000	20,331500
1800,000000	20,299600
1799,000000	20,254500
1798,000000	20,189800
1797,000000	20,117000
1796,000000	20,093300
1795,000000	20,064100
1794,000000	20,037900
1793,000000	20,024200
1792,000000	19,986100
1791,000000	19,926200
1790,000000	19,870100
1789,000000	19,819400
1788,000000	19,775200
1787,000000	19,715600
1786,000000	19,657200
1785,000000	19,623300
1784,000000	19,564800
1783,000000	19,499100
1782,000000	19,433700
1781,000000	19,374900
1780,000000	19,331900
1779,000000	19,282100
1778,000000	19,222200
1777,000000	19,150000
1776,000000	19,077200
1775,000000	18,979700
1774,000000	18,883100
1773,000000	18,780000
1772,000000	18,661300
1771,000000	18,559000
1770,000000	18,470800
1769,000000	18,369200
1768,000000	18,284900
1767,000000	18,184100
1766,000000	18,133300
1765,000000	18,051800
1764,000000	18,024200
1763,000000	18,015100
1762,000000	18,025500
1761,000000	18,061200
1760,000000	18,109600
1759,000000	18,159300
1758,000000	18,212100
1757,000000	18,261400
1756,000000	18,296900
1755,000000	18,339700
1754,000000	18,354600
1753,000000	18,337100
1752,000000	18,315800
1751,000000	18,289700
1750,000000	18,255200
1749,000000	18,211800
1748,000000	18,122600
1747,000000	18,057000
1746,000000	17,977500
1745,000000	17,873100
1744,000000	17,734600
1743,000000	17,585100
1742,000000	17,385200
1741,000000	17,219100
1740,000000	17,013800
1739,000000	16,838800
1738,000000	16,648600
1737,000000	16,502100
1736,000000	16,379900
1735,000000	16,306600
1734,000000	16,283000
1733,000000	16,272400
1732,000000	16,315200
1731,000000	16,389100
1730,000000	16,475500
1729,000000	16,563800
1728,000000	16,648600
1727,000000	16,744300
1726,000000	16,806500
1725,000000	16,864500
1724,000000	16,917600
1723,000000	16,930400
1722,000000	16,933500
1721,000000	16,941000
1720,000000	16,956300
1719,000000	16,975900
1718,000000	16,994600
1717,000000	17,034400
1716,000000	17,041200
1715,000000	17,095600
1714,000000	17,135300
1713,000000	17,195500
1712,000000	17,216900
1711,000000	17,242700
1710,000000	17,239900
1709,000000	17,242000
1708,000000	17,234800
1707,000000	17,216200
1706,000000	17,190700
1705,000000	17,157600
1704,000000	17,094100
1703,000000	17,030100
1702,000000	16,958200
1701,000000	16,889900
1700,000000	16,738400
1699,000000	16,611500
1698,000000	16,484500
1697,000000	16,387700
1696,000000	16,334400
1695,000000	16,305900
1694,000000	16,356700
1693,000000	16,466500
1692,000000	16,573000
1691,000000	16,723900
1690,000000	16,882500
1689,000000	16,949200
1688,000000	16,999200
1687,000000	17,000800
1686,000000	17,017100
1685,000000	17,040200
1684,000000	17,086400
1683,000000	17,256200
1682,000000	17,521900
1681,000000	17,877100
1680,000000	18,304000
1679,000000	18,787900
1678,000000	19,192900
1677,000000	19,596400
1676,000000	19,976400
1675,000000	20,275000
1674,000000	20,556700
1673,000000	20,773200
1672,000000	21,004000
1671,000000	21,180000
1670,000000	21,328000
1669,000000	21,465900
1668,000000	21,590200
1667,000000	21,677400
1666,000000	21,749400
1665,000000	21,837500
1664,000000	21,919800
1663,000000	21,998500
1662,000000	22,038100
1661,000000	22,091300
1660,000000	22,128700
1659,000000	22,156500
1658,000000	22,173100
1657,000000	22,196700
1656,000000	22,212700
1655,000000	22,225500
1654,000000	22,220800
1653,000000	22,200700
1652,000000	22,197800
1651,000000	22,176600
1650,000000	22,149600
1649,000000	22,115400
1648,000000	22,111800
1647,000000	22,066600
1646,000000	22,033900
1645,000000	21,996100
1644,000000	21,954800
1643,000000	21,879100
1642,000000	21,843900
1641,000000	21,794300
1640,000000	21,755800
1639,000000	21,723200
1638,000000	21,680500
1637,000000	21,618300
1636,000000	21,556900
1635,000000	21,477700
1634,000000	21,442400
1633,000000	21,379900
1632,000000	21,313700
1631,000000	21,266900
1630,000000	21,214400
1629,000000	21,140200
1628,000000	21,059900
1627,000000	20,978200
1626,000000	20,923400
1625,000000	20,870300
1624,000000	20,811300
1623,000000	20,722800
1622,000000	20,654700
1621,000000	20,599400
1620,000000	20,532400
1619,000000	20,455500
1618,000000	20,378400
1617,000000	20,309200
1616,000000	20,249200
1615,000000	20,188400
1614,000000	20,130100
1613,000000	20,074400
1612,000000	20,026300
1611,000000	19,962700
1610,000000	19,892500
1609,000000	19,842300
1608,000000	19,780100
1607,000000	19,725400
1606,000000	19,655900
1605,000000	19,596200
1604,000000	19,539400
1603,000000	19,455400
1602,000000	19,405100
1601,000000	19,369800
1600,000000	19,308100
1599,000000	19,245800
1598,000000	19,189200
1597,000000	19,121100
1596,000000	19,077500
1595,000000	19,036400
1594,000000	19,008000
1593,000000	18,981300
1592,000000	18,932600
1591,000000	18,888000
1590,000000	18,859000
1589,000000	18,830500
1588,000000	18,803900
1587,000000	18,775400
1586,000000	18,733400
1585,000000	18,708800
1584,000000	18,685000
1583,000000	18,666700
1582,000000	18,656200
1581,000000	18,632600
1580,000000	18,629300
1579,000000	18,623200
1578,000000	18,618400
1577,000000	18,631800
1576,000000	18,635800
1575,000000	18,628400
1574,000000	18,626400
1573,000000	18,637500
1572,000000	18,660000
1571,000000	18,687800
1570,000000	18,701400
1569,000000	18,718400
1568,000000	18,749600
1567,000000	18,760000
1566,000000	18,784500
1565,000000	18,807000
1564,000000	18,815800
1563,000000	18,847200
1562,000000	18,858200
1561,000000	18,887000
1560,000000	18,911400
1559,000000	18,915700
1558,000000	18,931100
1557,000000	18,937500
1556,000000	18,942100
1555,000000	18,938600
1554,000000	18,932600
1553,000000	18,928000
1552,000000	18,936800
1551,000000	18,928800
1550,000000	18,905100
1549,000000	18,900200
1548,000000	18,886100
1547,000000	18,865700
1546,000000	18,858200
1545,000000	18,859500
1544,000000	18,849700
1543,000000	18,844000
1542,000000	18,857400
1541,000000	18,855200
1540,000000	18,846400
1539,000000	18,850800
1538,000000	18,839300
1537,000000	18,835000
1536,000000	18,837300
1535,000000	18,839100
1534,000000	18,847000
1533,000000	18,830300
1532,000000	18,821400
1531,000000	18,802400
1530,000000	18,768900
1529,000000	18,772200
1528,000000	18,757300
1527,000000	18,715000
1526,000000	18,692100
1525,000000	18,683300
1524,000000	18,667400
1523,000000	18,639400
1522,000000	18,615800
1521,000000	18,611700
1520,000000	18,598500
1519,000000	18,578800
1518,000000	18,551000
1517,000000	18,542000
1516,000000	18,525700
1515,000000	18,503900
1514,000000	18,480700
1513,000000	18,448100
1512,000000	18,445500
1511,000000	18,426300
1510,000000	18,394200
1509,000000	18,365400
1508,000000	18,364300
1507,000000	18,348800
1506,000000	18,330300
1505,000000	18,308500
1504,000000	18,307600
1503,000000	18,294000
1502,000000	18,265100
1501,000000	18,253300
1500,000000	18,235000
1499,000000	18,236900
1498,000000	18,231900
1497,000000	18,235000
1496,000000	18,241700
1495,000000	18,254900
1494,000000	18,251700
1493,000000	18,256600
1492,000000	18,272900
1491,000000	18,295200
1490,000000	18,304100
1489,000000	18,317400
1488,000000	18,321000
1487,000000	18,338900
1486,000000	18,380500
1485,000000	18,388400
1484,000000	18,411300
1483,000000	18,415600
1482,000000	18,433000
1481,000000	18,468700
1480,000000	18,517100
1479,000000	18,541500
1478,000000	18,578500
1477,000000	18,610300
1476,000000	18,642100
1475,000000	18,683400
1474,000000	18,705200
1473,000000	18,728400
1472,000000	18,773800
1471,000000	18,829900
1470,000000	18,870200
1469,000000	18,906400
1468,000000	18,928200
1467,000000	18,961000
1466,000000	19,015800
1465,000000	19,060900
1464,000000	19,102400
1463,000000	19,164400
1462,000000	19,243600
1461,000000	19,276600
1460,000000	19,373200
1459,000000	19,419500
1458,000000	19,488000
1457,000000	19,559400
1456,000000	19,613900
1455,000000	19,715000
1454,000000	19,791700
1453,000000	19,869900
1452,000000	19,955200
1451,000000	20,047400
1450,000000	20,190000
1449,000000	20,282000
1448,000000	20,334700
1447,000000	20,403600
1446,000000	20,533200
1445,000000	20,704500
1444,000000	20,790100
1443,000000	20,853900
1442,000000	20,955300
1441,000000	21,093700
1440,000000	21,173900
1439,000000	21,277100
1438,000000	21,431100
1437,000000	21,528100
1436,000000	21,634400
1435,000000	21,703100
1434,000000	21,853800
1433,000000	21,913200
1432,000000	22,038100
1431,000000	22,212000
1430,000000	22,327700
1429,000000	22,410900
1428,000000	22,563900
1427,000000	22,721000
1426,000000	22,873700
1425,000000	23,033100
1424,000000	23,194600
1423,000000	23,414500
1422,000000	23,591000
1421,000000	23,714900
1420,000000	23,889800
1419,000000	24,126700
1418,000000	24,357400
1417,000000	24,491100
1416,000000	24,593600
1415,000000	24,715900
1414,000000	25,033600
1413,000000	25,286000
1412,000000	25,391300
1411,000000	25,494400
1410,000000	25,692400
1409,000000	26,012700
1408,000000	26,270300
1407,000000	26,574100
1406,000000	26,778800
1405,000000	27,056200
1404,000000	27,405200
1403,000000	27,698000
1402,000000	27,744600
1401,000000	28,080600
1400,000000	28,552000
1399,000000	28,841700
1398,000000	28,788100
1397,000000	28,803300
1396,000000	29,043200
1395,000000	29,427500
1394,000000	29,569800
1393,000000	29,575500
1392,000000	29,721200
1391,000000	29,928000
1390,000000	29,940900
1389,000000	29,969500
1388,000000	30,307500
1387,000000	30,571400
1386,000000	30,741000
1385,000000	30,908600
1384,000000	31,156400
1383,000000	31,441400
1382,000000	31,782500
1381,000000	32,095400
1380,000000	32,140500
1379,000000	32,210400
1378,000000	32,118600
1377,000000	32,126300
1376,000000	32,189700
1375,000000	32,340800
1374,000000	32,465100
1373,000000	32,602700
1372,000000	32,821400
1371,000000	33,181500
1370,000000	33,442400
1369,000000	33,561800
1368,000000	33,810200
1367,000000	34,065600
1366,000000	34,139200
1365,000000	34,251800
1364,000000	34,446300
1363,000000	34,459300
1362,000000	34,545800
1361,000000	34,837800
1360,000000	34,942800
1359,000000	34,881300
1358,000000	34,875200
1357,000000	34,940200
1356,000000	35,077400
1355,000000	35,392300
1354,000000	35,803800
1353,000000	36,113300
1352,000000	36,430500
1351,000000	36,770800
1350,000000	37,068200
1349,000000	37,284300
1348,000000	37,552900
1347,000000	37,848100
1346,000000	38,069800
1345,000000	38,230500
1344,000000	38,447400
1343,000000	38,627100
1342,000000	38,795200
1341,000000	38,971900
1340,000000	39,122300
1339,000000	39,285300
1338,000000	39,446800
1337,000000	39,584900
1336,000000	39,700300
1335,000000	39,819000
1334,000000	39,924700
1333,000000	40,026900
1332,000000	40,129900
1331,000000	40,215600
1330,000000	40,316700
1329,000000	40,423600
1328,000000	40,491000
1327,000000	40,557700
1326,000000	40,623700
1325,000000	40,693200
1324,000000	40,737500
1323,000000	40,780900
1322,000000	40,836600
1321,000000	40,898100
1320,000000	40,956500
1319,000000	41,012500
1318,000000	41,056900
1317,000000	41,072800
1316,000000	41,112700
1315,000000	41,161300
1314,000000	41,195300
1313,000000	41,236500
1312,000000	41,274500
1311,000000	41,285400
1310,000000	41,296000
1309,000000	41,314600
1308,000000	41,326000
1307,000000	41,341400
1306,000000	41,359600
1305,000000	41,367900
1304,000000	41,363700
1303,000000	41,381000
1302,000000	41,401400
1301,000000	41,393200
1300,000000	41,385300
1299,000000	41,365400
1298,000000	41,360400
1297,000000	41,370300
1296,000000	41,378800
1295,000000	41,368100
1294,000000	41,345700
1293,000000	41,319300
1292,000000	41,298200
1291,000000	41,287400
1290,000000	41,262000
1289,000000	41,245100
1288,000000	41,221800
1287,000000	41,182600
1286,000000	41,134800
1285,000000	41,104100
1284,000000	41,073700
1283,000000	41,026100
1282,000000	40,993300
1281,000000	40,970300
1280,000000	40,921000
1279,000000	40,868100
1278,000000	40,820300
1277,000000	40,797700
1276,000000	40,780900
1275,000000	40,752600
1274,000000	40,723800
1273,000000	40,679500
1272,000000	40,635800
1271,000000	40,607600
1270,000000	40,584800
1269,000000	40,558900
1268,000000	40,530200
1267,000000	40,508700
1266,000000	40,496900
1265,000000	40,493500
1264,000000	40,455200
1263,000000	40,414600
1262,000000	40,372400
1261,000000	40,337800
1260,000000	40,303400
1259,000000	40,268300
1258,000000	40,245400
1257,000000	40,219900
1256,000000	40,189600
1255,000000	40,161300
1254,000000	40,106000
1253,000000	40,040500
1252,000000	39,991800
1251,000000	39,928600
1250,000000	39,882500
1249,000000	39,837800
1248,000000	39,785700
1247,000000	39,741100
1246,000000	39,683200
1245,000000	39,602700
1244,000000	39,516700
1243,000000	39,433200
1242,000000	39,352600
1241,000000	39,257700
1240,000000	39,157400
1239,000000	39,070800
1238,000000	38,988700
1237,000000	38,897900
1236,000000	38,808300
1235,000000	38,706500
1234,000000	38,589300
1233,000000	38,464700
1232,000000	38,375700
1231,000000	38,254200
1230,000000	38,130000
1229,000000	38,020500
1228,000000	37,911600
1227,000000	37,800700
1226,000000	37,672100
1225,000000	37,561200
1224,000000	37,441600
1223,000000	37,343000
1222,000000	37,225800
1221,000000	37,120000
1220,000000	37,029600
1219,000000	36,930400
1218,000000	36,831000
1217,000000	36,723100
1216,000000	36,636200
1215,000000	36,557400
1214,000000	36,485100
1213,000000	36,411100
1212,000000	36,335100
1211,000000	36,271900
1210,000000	36,175500
1209,000000	36,124800
1208,000000	36,078500
1207,000000	36,039500
1206,000000	36,003000
1205,000000	35,990600
1204,000000	35,958100
1203,000000	35,920300
1202,000000	35,922400
1201,000000	35,894300
1200,000000	35,877900
1199,000000	35,814300
1198,000000	35,718800
1197,000000	35,623900
1196,000000	35,507800
1195,000000	35,366500
1194,000000	35,182100
1193,000000	34,948800
1192,000000	34,684700
1191,000000	34,355400
1190,000000	34,076700
1189,000000	33,797600
1188,000000	33,614100
1187,000000	33,507200
1186,000000	33,464100
1185,000000	33,533100
1184,000000	33,664100
1183,000000	33,879200
1182,000000	34,145100
1181,000000	34,442900
1180,000000	34,790600
1179,000000	35,090500
1178,000000	35,344200
1177,000000	35,542800
1176,000000	35,774700
1175,000000	35,945300
1174,000000	36,135100
1173,000000	36,327700
1172,000000	36,496600
1171,000000	36,696200
1170,000000	36,874400
1169,000000	37,104400
1168,000000	37,290200
1167,000000	37,513500
1166,000000	37,728700
1165,000000	37,915900
1164,000000	38,125000
1163,000000	38,340700
1162,000000	38,555900
1161,000000	38,749700
1160,000000	38,929600
1159,000000	39,110500
1158,000000	39,284700
1157,000000	39,408800
1156,000000	39,569900
1155,000000	39,669800
1154,000000	39,741200
1153,000000	39,773100
1152,000000	39,783000
1151,000000	39,776800
1150,000000	39,770300
1149,000000	39,728300
1148,000000	39,724100
1147,000000	39,758300
1146,000000	39,797600
1145,000000	39,869400
1144,000000	40,002700
1143,000000	40,152600
1142,000000	40,275900
1141,000000	40,451900
1140,000000	40,607200
1139,000000	40,732600
1138,000000	40,901300
1137,000000	41,073300
1136,000000	41,206000
1135,000000	41,445300
1134,000000	41,668000
1133,000000	41,836600
1132,000000	41,920500
1131,000000	41,980800
1130,000000	42,018000
1129,000000	42,135700
1128,000000	42,229900
1127,000000	42,266200
1126,000000	42,303800
1125,000000	42,328500
1124,000000	42,335800
1123,000000	42,368200
1122,000000	42,416300
1121,000000	42,435700
1120,000000	42,463300
1119,000000	42,463300
1118,000000	42,447800
1117,000000	42,440100
1116,000000	42,434400
1115,000000	42,405100
1114,000000	42,385700
1113,000000	42,350400
1112,000000	42,310400
1111,000000	42,317600
1110,000000	42,315600
1109,000000	42,321700
1108,000000	42,304100
1107,000000	42,271100
1106,000000	42,237700
1105,000000	42,217600
1104,000000	42,181400
1103,000000	42,149700
1102,000000	42,127500
1101,000000	42,122200
1100,000000	42,114300
1099,000000	42,077100
1098,000000	42,032500
1097,000000	42,015500
1096,000000	41,977800
1095,000000	41,941500
1094,000000	41,922300
1093,000000	41,872100
1092,000000	41,832300
1091,000000	41,812800
1090,000000	41,776300
1089,000000	41,736300
1088,000000	41,698900
1087,000000	41,650400
1086,000000	41,607100
1085,000000	41,574000
1084,000000	41,542100
1083,000000	41,519900
1082,000000	41,516500
1081,000000	41,472900
1080,000000	41,428200
1079,000000	41,399600
1078,000000	41,381900
1077,000000	41,339300
1076,000000	41,294100
1075,000000	41,276400
1074,000000	41,255900
1073,000000	41,227500
1072,000000	41,213800
1071,000000	41,186700
1070,000000	41,157600
1069,000000	41,124000
1068,000000	41,107100
1067,000000	41,064100
1066,000000	41,016800
1065,000000	40,979400
1064,000000	40,937100
1063,000000	40,909700
1062,000000	40,879500
1061,000000	40,854300
1060,000000	40,851800
1059,000000	40,841300
1058,000000	40,792200
1057,000000	40,737200
1056,000000	40,696600
1055,000000	40,671300
1054,000000	40,632600
1053,000000	40,596200
1052,000000	40,563200
1051,000000	40,531900
1050,000000	40,498300
1049,000000	40,482600
1048,000000	40,459900
1047,000000	40,430400
1046,000000	40,406100
1045,000000	40,362100
1044,000000	40,316000
1043,000000	40,294700
1042,000000	40,278800
1041,000000	40,243900
1040,000000	40,212400
1039,000000	40,185300
1038,000000	40,145900
1037,000000	40,110500
1036,000000	40,072100
1035,000000	40,017900
1034,000000	39,974400
1033,000000	39,950600
1032,000000	39,926700
1031,000000	39,885400
1030,000000	39,839400
1029,000000	39,801700
1028,000000	39,760900
1027,000000	39,718100
1026,000000	39,674500
1025,000000	39,629900
1024,000000	39,581800
1023,000000	39,539100
1022,000000	39,515100
1021,000000	39,480000
1020,000000	39,446400
1019,000000	39,429600
1018,000000	39,412100
1017,000000	39,410900
1016,000000	39,398600
1015,000000	39,373700
1014,000000	39,366400
1013,000000	39,357600
1012,000000	39,345700
1011,000000	39,376000
1010,000000	39,399100
1009,000000	39,410800
1008,000000	39,434300
1007,000000	39,433700
1006,000000	39,431500
1005,000000	39,451800
1004,000000	39,468700
1003,000000	39,468700
1002,000000	39,478600
1001,000000	39,507900
1000,000000	39,523900
999,000000	39,526300
998,000000	39,541400
997,000000	39,562600
996,000000	39,593600
995,000000	39,601000
994,000000	39,588300
993,000000	39,582300
992,000000	39,576700
991,000000	39,593000
990,000000	39,617200
989,000000	39,626100
988,000000	39,625000
987,000000	39,627600
986,000000	39,625300
985,000000	39,654300
984,000000	39,666200
983,000000	39,692900
982,000000	39,703100
981,000000	39,697100
980,000000	39,698200
979,000000	39,703100
978,000000	39,694800
977,000000	39,685000
976,000000	39,709000
975,000000	39,716300
974,000000	39,706200
973,000000	39,692400
972,000000	39,687700
971,000000	39,692000
970,000000	39,702400
969,000000	39,694200
968,000000	39,715000
967,000000	39,698900
966,000000	39,696100
965,000000	39,690500
964,000000	39,695500
963,000000	39,705700
962,000000	39,698900
961,000000	39,684300
960,000000	39,686100
959,000000	39,688200
958,000000	39,698400
957,000000	39,711000
956,000000	39,732000
955,000000	39,736300
954,000000	39,748500
953,000000	39,756500
952,000000	39,744600
951,000000	39,753100
950,000000	39,801000
949,000000	39,808600
948,000000	39,786900
947,000000	39,787000
946,000000	39,799700
945,000000	39,812000
944,000000	39,801200
943,000000	39,826100
942,000000	39,834700
941,000000	39,847300
940,000000	39,817900
939,000000	39,797700
938,000000	39,805300
937,000000	39,849300
936,000000	39,892600
935,000000	39,944700
934,000000	39,990000
933,000000	40,027000
932,000000	40,071200
931,000000	40,060400
930,000000	40,047900
929,000000	40,080700
928,000000	40,080200
927,000000	40,115700
926,000000	40,155500
925,000000	40,194300
924,000000	40,249800
923,000000	40,247900
922,000000	40,262700
921,000000	40,320900
920,000000	40,331900
919,000000	40,383200
918,000000	40,420000
917,000000	40,474800
916,000000	40,499300
915,000000	40,531500
914,000000	40,575100
913,000000	40,619800
912,000000	40,633700
911,000000	40,680200
910,000000	40,703600
909,000000	40,752300
908,000000	40,818200
907,000000	40,850100
906,000000	40,893000
905,000000	40,927800
904,000000	40,992700
903,000000	41,073700
902,000000	41,142700
901,000000	41,178300
900,000000	41,244400
899,000000	41,277100
898,000000	41,348400
897,000000	41,432000
896,000000	41,513400
895,000000	41,568800
894,000000	41,624600
893,000000	41,662000
892,000000	41,745800
891,000000	41,828200
890,000000	41,931700
889,000000	41,999100
888,000000	42,046100
887,000000	42,133900
886,000000	42,235800
885,000000	42,319800
884,000000	42,447700
883,000000	42,602100
882,000000	42,689700
881,000000	42,809700
880,000000	43,001400
879,000000	43,092800
878,000000	43,217100
877,000000	43,347900
876,000000	43,512900
875,000000	43,678500
874,000000	43,878100
873,000000	44,095300
872,000000	44,244300
871,000000	44,380200
870,000000	44,579900
869,000000	44,788500
868,000000	44,977300
867,000000	45,207900
866,000000	45,410200
865,000000	45,603400
864,000000	45,823000
863,000000	46,062300
862,000000	46,265600
861,000000	46,482600
860,000000	46,658700
859,000000	46,882500
858,000000	46,746500
857,000000	44,995200
856,000000	45,169300
855,000000	45,313500
854,000000	45,301300
853,000000	45,399900
852,000000	45,491500
851,000000	45,742100
850,000000	45,680300
849,000000	45,693000
848,000000	45,974700
847,000000	45,770600
846,000000	45,908800
845,000000	45,862200
844,000000	45,874400
843,000000	46,097500
842,000000	46,166500
841,000000	46,065900
840,000000	45,957600
839,000000	46,145500
838,000000	46,192100
837,000000	46,131500
836,000000	46,266300
835,000000	46,291400
834,000000	46,468100
833,000000	46,378900
832,000000	46,312500
831,000000	46,337300
830,000000	46,369400
829,000000	46,474000
828,000000	46,380100
827,000000	46,390100
826,000000	46,339600
825,000000	46,343000
824,000000	46,319200
823,000000	46,401500
822,000000	46,397400
821,000000	46,421200
820,000000	46,556100
819,000000	46,510800
818,000000	46,519900
817,000000	46,536500
816,000000	46,693000
815,000000	46,671900
814,000000	46,719300
813,000000	46,864300
812,000000	46,986900
811,000000	46,889100
810,000000	46,965100
809,000000	47,140400
808,000000	47,181100
807,000000	47,287400
806,000000	47,355100
805,000000	47,389800
804,000000	47,467400
803,000000	47,512000
802,000000	47,577500
801,000000	47,652100
800,000000	47,729700
799,000000	47,808000
798,000000	47,882300
797,000000	47,987400
796,000000	48,054300
795,000000	48,107000
794,000000	48,111500
793,000000	48,174500
792,000000	48,242600
791,000000	48,332300
790,000000	48,366400
789,000000	48,431000
788,000000	48,354800
787,000000	48,423300
786,000000	48,499200
785,000000	48,490800
784,000000	48,556600
783,000000	48,584300
782,000000	48,597400
781,000000	48,654300
780,000000	48,715100
779,000000	48,690700
778,000000	48,654300
777,000000	48,655600
776,000000	48,687200
775,000000	48,736400
774,000000	48,770900
773,000000	48,768000
772,000000	48,763100
771,000000	48,794800
770,000000	48,788300
769,000000	48,764500
768,000000	48,752900
767,000000	48,765400
766,000000	48,719700
765,000000	48,701400
764,000000	48,718000
763,000000	48,702300
762,000000	48,599800
761,000000	48,485600
760,000000	48,545800
759,000000	48,607300
758,000000	48,562800
757,000000	48,473000
756,000000	48,410900
755,000000	48,356000
754,000000	48,271300
753,000000	48,185400
752,000000	48,086700
751,000000	47,987900
750,000000	47,891900
749,000000	47,816500
748,000000	47,747900
747,000000	47,604900
746,000000	47,515800
745,000000	47,487800
744,000000	47,465600
743,000000	47,387300
742,000000	47,215000
741,000000	47,079500
740,000000	47,009400
739,000000	46,957400
738,000000	46,861700
737,000000	46,816600
736,000000	46,699200
735,000000	46,564000
734,000000	46,492000
733,000000	46,354800
732,000000	46,234800
731,000000	46,170900
730,000000	46,100000
729,000000	46,057500
728,000000	45,974200
727,000000	45,851800
726,000000	45,759900
725,000000	45,676500
724,000000	45,597900
723,000000	45,518700
722,000000	45,406200
721,000000	45,260100
720,000000	45,159100
719,000000	45,087500
718,000000	45,043900
717,000000	44,953100
716,000000	44,860900
715,000000	44,774200
714,000000	44,738100
713,000000	44,685100
712,000000	44,603800
711,000000	44,584000
710,000000	44,569800
709,000000	44,489900
708,000000	44,446300
707,000000	44,440600
706,000000	44,418800
705,000000	44,423200
704,000000	44,361800
703,000000	44,281500
702,000000	44,225100
701,000000	44,187300
700,000000	44,106600
699,000000	44,026800
698,000000	43,991100
697,000000	43,922400
696,000000	43,875800
695,000000	43,789100
694,000000	43,726300
693,000000	43,654700
692,000000	43,524500
691,000000	43,425600
690,000000	43,359700
689,000000	43,253300
688,000000	43,188200
687,000000	43,162900
686,000000	43,117100
685,000000	43,057900
684,000000	42,963300
683,000000	42,860100
682,000000	42,748800
681,000000	42,653700
680,000000	42,526900
679,000000	42,418600
678,000000	42,273000
677,000000	42,156900
676,000000	42,047500
675,000000	41,921600
674,000000	41,774500
673,000000	41,605500
672,000000	41,429900
671,000000	41,229300
670,000000	41,039400
669,000000	40,846900
668,000000	40,626500
667,000000	40,418100
666,000000	40,171200
665,000000	39,916400
664,000000	39,671900
663,000000	39,388100
662,000000	39,132600
661,000000	38,883300
660,000000	38,623300
659,000000	38,331800
658,000000	38,026000
657,000000	37,765500
656,000000	37,458400
655,000000	37,146500
654,000000	36,835700
653,000000	36,524700
652,000000	36,184300
651,000000	35,871300
650,000000	35,565100
649,000000	35,237600
648,000000	34,948400
647,000000	34,647100
646,000000	34,376100
645,000000	34,133300
644,000000	33,893200
643,000000	33,639600
642,000000	33,426100
641,000000	33,213400
640,000000	33,021800
639,000000	32,865300
638,000000	32,731500
637,000000	32,580100
636,000000	32,480200
635,000000	32,374800
634,000000	32,335500
633,000000	32,312100
632,000000	32,352600
631,000000	32,337200
630,000000	32,356100
629,000000	32,448800
628,000000	32,531600
627,000000	32,578300
626,000000	32,625400
625,000000	32,721800
624,000000	32,830800
623,000000	32,917600
622,000000	33,042700
621,000000	33,197900
620,000000	33,369900
619,000000	33,486800
618,000000	33,643200
617,000000	33,780700
616,000000	33,899500
615,000000	34,045300
614,000000	34,167000
613,000000	34,348700
612,000000	34,560900
611,000000	34,752500
610,000000	34,910200
609,000000	35,103100
608,000000	35,264500
607,000000	35,503800
606,000000	35,725100
605,000000	35,950300
604,000000	36,185600
603,000000	36,428700
602,000000	36,691300
601,000000	36,960300
600,000000	37,207900
599,000000	37,481000
598,000000	37,778800
597,000000	38,034500
596,000000	38,277100
595,000000	38,478900
594,000000	38,762100
593,000000	39,013800
592,000000	39,238100
591,000000	39,499600
590,000000	39,706000
589,000000	39,851800
588,000000	40,041200
587,000000	40,204000
586,000000	40,342900
585,000000	40,569400
584,000000	40,697000
583,000000	40,837400
582,000000	40,924600
581,000000	41,044400
580,000000	41,150200
579,000000	41,249000
578,000000	41,403000
577,000000	41,563600
576,000000	41,660900
575,000000	41,708600
574,000000	41,691900
573,000000	41,755700
572,000000	41,772700
571,000000	41,912000
570,000000	41,995100
569,000000	41,990200
568,000000	41,986000
567,000000	42,023900
566,000000	42,012000
565,000000	41,996300
564,000000	41,937000
563,000000	41,919000
562,000000	41,877500
561,000000	41,729900
560,000000	41,654900
559,000000	41,722900
558,000000	41,672400
557,000000	41,638600
556,000000	41,543400
555,000000	41,457400
554,000000	41,353800
553,000000	41,232500
552,000000	41,154500
551,000000	40,997500
550,000000	40,828100
549,000000	40,677100
548,000000	40,547700
547,000000	40,415900
546,000000	40,185100
545,000000	39,888300
544,000000	39,664700
543,000000	39,433400
542,000000	39,188600
541,000000	38,971500
540,000000	38,743000
539,000000	38,444200
538,000000	38,130600
537,000000	37,782700
536,000000	37,454100
535,000000	37,125300
534,000000	36,795700
533,000000	36,472200
532,000000	36,143500
531,000000	35,799700
530,000000	35,449300
529,000000	35,096600
528,000000	34,750700
527,000000	34,416300
526,000000	34,087900
525,000000	33,769300
524,000000	33,444000
523,000000	33,048700
522,000000	32,693900
521,000000	32,358100
520,000000	31,992800
519,000000	31,656100
518,000000	31,304000
517,000000	30,930100
516,000000	30,567600
515,000000	30,188800
514,000000	29,787500
513,000000	29,379300
512,000000	28,968200
511,000000	28,573400
510,000000	28,173900
509,000000	27,754700
508,000000	27,364700
507,000000	26,976600
506,000000	26,620700
505,000000	26,243000
504,000000	25,842400
503,000000	25,447100
502,000000	25,035800
501,000000	24,635400
500,000000	24,264900
499,000000	23,854800
498,000000	23,446500
497,000000	23,032900
496,000000	22,608700
495,000000	22,183700
494,000000	21,743200
493,000000	21,305100
492,000000	20,876300
491,000000	20,441100
490,000000	20,012800
489,000000	19,619000
488,000000	19,210100
487,000000	18,818000
486,000000	18,451100
485,000000	18,096100
484,000000	17,752900
483,000000	17,406300
482,000000	17,034200
481,000000	16,624200
480,000000	16,214600
479,000000	15,888200
478,000000	15,630300
477,000000	15,372200
476,000000	15,120400
475,000000	14,901900
474,000000	14,697800
473,000000	14,493100
472,000000	14,302600
471,000000	14,134800
470,000000	13,997300
469,000000	13,880500
468,000000	13,772100
467,000000	13,674400
466,000000	13,596500
465,000000	13,533000
464,000000	13,479000
463,000000	13,435600
462,000000	13,397800
461,000000	13,350600
460,000000	13,316600
459,000000	13,301400
458,000000	13,285800
457,000000	13,275700
456,000000	13,255400
455,000000	13,225400
454,000000	13,212700
453,000000	13,221100
452,000000	13,237800
451,000000	13,253800
450,000000	13,259100
449,000000	13,246200
448,000000	13,236300
447,000000	13,225700
446,000000	13,227300
445,000000	13,259500
444,000000	13,259400
443,000000	13,209400
442,000000	13,152000
441,000000	13,106100
440,000000	13,051000
439,000000	12,968200
438,000000	12,890100
437,000000	12,821600
436,000000	12,764200
435,000000	12,685000
434,000000	12,595000
433,000000	12,506000
432,000000	12,424000
431,000000	12,329400
430,000000	12,220200
429,000000	12,128400
428,000000	12,013800
427,000000	11,873400
426,000000	11,745500
425,000000	11,605700
424,000000	11,461000
423,000000	11,324800
422,000000	11,179200
421,000000	11,018600
420,000000	10,863600
419,000000	10,714800
418,000000	10,560400
417,000000	10,392700
416,000000	10,217000
415,000000	10,041600
414,000000	9,878600
413,000000	9,703200
412,000000	9,523600
411,000000	9,341500
410,000000	9,166800
409,000000	8,995000
408,000000	8,827800
407,000000	8,651600
406,000000	8,482400
405,000000	8,309000
404,000000	8,130000
403,000000	7,964900
402,000000	7,813900
401,000000	7,655200
400,000000	7,486000
399,000000	7,331000
398,000000	7,183400
397,000000	7,025800
396,000000	6,864900
395,000000	6,727100
394,000000	6,590800
393,000000	6,461300
392,000000	6,325500
391,000000	6,192800
390,000000	6,075700
389,000000	5,974500
388,000000	5,848000
387,000000	5,727500
386,000000	5,630800
385,000000	5,539500
384,000000	5,445700
383,000000	5,343500
382,000000	5,235100
381,000000	5,157000
380,000000	5,071900
379,000000	5,003800
378,000000	4,929300
377,000000	4,858000
376,000000	4,838100
375,000000	4,819500
374,000000	4,734700
373,000000	4,627300
372,000000	4,576900
371,000000	4,517400
370,000000	4,445800
369,000000	4,396700
368,000000	4,384100
367,000000	4,325100
366,000000	4,315500
365,000000	4,246300
364,000000	4,220400
363,000000	4,184300
362,000000	4,116900
361,000000	4,062900
360,000000	4,039100
359,000000	4,086700
358,000000	4,024600
357,000000	4,016300
356,000000	3,941200
355,000000	3,929200
354,000000	3,854500
353,000000	3,838200
352,000000	3,754000
351,000000	3,759700
350,000000	3,785600
349,000000	3,758700
348,000000	3,749500
347,000000	3,688500
346,000000	3,681300
345,000000	3,650100
344,000000	3,661900
343,000000	3,661300
342,000000	3,645000
341,000000	3,628400
340,000000	3,622500
339,000000	3,610100
338,000000	3,637100
337,000000	3,599500
336,000000	3,566200
335,000000	3,540600
334,000000	3,497300
333,000000	3,512200
332,000000	3,463000
331,000000	3,474600
330,000000	3,479000
329,000000	3,450800
328,000000	3,426300
327,000000	3,434800
326,000000	3,439000
325,000000	3,290600
324,000000	3,518000
323,000000	3,458500
322,000000	3,418800
321,000000	3,473200
320,000000	3,438800
319,000000	3,541100
318,000000	3,363500
317,000000	3,489500
316,000000	3,513000
315,000000	3,536200
314,000000	3,488100
313,000000	3,533000
312,000000	3,516500
311,000000	3,527200
310,000000	3,522000
309,000000	3,528700
308,000000	3,526900
307,000000	3,530300
306,000000	3,499400
305,000000	3,509500
304,000000	3,517400
303,000000	3,513100
302,000000	3,537500
301,000000	3,497600
300,000000	3,515400
299,000000	3,488300
298,000000	3,505600
297,000000	3,490800
296,000000	3,476800
295,000000	3,521000
294,000000	3,528900
293,000000	3,521000
292,000000	3,493600
291,000000	3,513500
290,000000	3,493400
289,000000	3,504100
288,000000	3,500700
287,000000	3,509800
286,000000	3,489200
285,000000	3,472200
284,000000	3,466300
283,000000	3,489400
282,000000	3,481300
281,000000	3,460200
280,000000	3,485900
279,000000	3,495500
278,000000	3,487200
277,000000	3,443300
276,000000	3,501500
275,000000	3,518600
274,000000	3,470200
273,000000	3,504600
272,000000	3,491600
271,000000	3,510600
270,000000	3,518900
269,000000	3,498100
268,000000	3,520600
267,000000	3,526700
266,000000	3,548700
265,000000	3,519600
264,000000	3,538600
263,000000	3,527000
262,000000	3,559300
261,000000	3,582700
260,000000	3,573700
259,000000	3,568900
258,000000	3,593900
257,000000	3,612600
256,000000	3,614400
255,000000	3,625900
254,000000	3,640100
253,000000	3,640500
252,000000	3,619500
251,000000	3,647800
250,000000	3,651100
