PE UV       SUBTECH     SPECTRUM    ASCII       PEDS        4.00        
   -1
CICIMAUCR0020-2.Sample.ASC
24/04/17
09:09:44.00
24/04/17
09:09:44.00
Vinicio Soto Monge
C. resplendens
250,000000
1
Lambda 1050
1050L1511233
PerkinElmer UV WinLab 6.3.2.0749 / 2.02.05 Lambda 900 UV/VIS/NIR, Aug  7 2015 09:38:08

0
0
3350/servo 860,8/2
0
0
UV/VIS
1
1
1
DoubleDePol,CommonBeamDepol,RBeamAtt,SBeamAtt,60mm sphere, WB InGaAs Detector
0
0
0
0
Program
Program
3350/servo 860,8/2
3350/0,2 860,8/0,2
3350/0,2 860,8/0,2
0
15.00
 
 
 
0
 
860,8
319,2
860,8
Front
100
on
S:100 R:100
0
0
0
0
 
0
 
 
 
0
 
 
0
0
0
0
0
 
 
 
 
0
0


0
0
#HDR
-1
-1
#GR
nm
%R
1.0
0.0
2500,000000
-1,000000
2251
8
83,706800
5,981400
#DATA
2500,000000	17,281800
2499,000000	17,197600
2498,000000	17,209300
2497,000000	17,150200
2496,000000	17,128800
2495,000000	17,130000
2494,000000	17,128800
2493,000000	17,123000
2492,000000	17,125800
2491,000000	17,102600
2490,000000	17,182900
2489,000000	17,082900
2488,000000	17,075300
2487,000000	17,110500
2486,000000	17,155200
2485,000000	17,169900
2484,000000	17,146800
2483,000000	17,176000
2482,000000	17,154100
2481,000000	17,190400
2480,000000	17,212800
2479,000000	17,173000
2478,000000	17,244400
2477,000000	17,284000
2476,000000	17,280900
2475,000000	17,300000
2474,000000	17,302100
2473,000000	17,410300
2472,000000	17,458400
2471,000000	17,440300
2470,000000	17,518500
2469,000000	17,537500
2468,000000	17,543200
2467,000000	17,614100
2466,000000	17,650400
2465,000000	17,708900
2464,000000	17,755400
2463,000000	17,830600
2462,000000	17,878500
2461,000000	17,937600
2460,000000	17,997600
2459,000000	18,041900
2458,000000	18,124500
2457,000000	18,190800
2456,000000	18,275200
2455,000000	18,371300
2454,000000	18,439400
2453,000000	18,515600
2452,000000	18,597900
2451,000000	18,708900
2450,000000	18,829000
2449,000000	18,912000
2448,000000	18,994000
2447,000000	19,120500
2446,000000	19,222300
2445,000000	19,350200
2444,000000	19,458900
2443,000000	19,561000
2442,000000	19,662600
2441,000000	19,767700
2440,000000	19,867300
2439,000000	19,961700
2438,000000	20,069000
2437,000000	20,171100
2436,000000	20,249200
2435,000000	20,356400
2434,000000	20,445600
2433,000000	20,531000
2432,000000	20,628100
2431,000000	20,717800
2430,000000	20,802100
2429,000000	20,900200
2428,000000	20,956500
2427,000000	21,035100
2426,000000	21,126200
2425,000000	21,262800
2424,000000	21,469500
2423,000000	21,688700
2422,000000	21,832200
2421,000000	21,944500
2420,000000	21,997900
2419,000000	22,107100
2418,000000	22,233800
2417,000000	22,309400
2416,000000	22,420900
2415,000000	22,482300
2414,000000	22,556100
2413,000000	22,678600
2412,000000	22,794700
2411,000000	22,822800
2410,000000	22,896000
2409,000000	23,004100
2408,000000	23,065000
2407,000000	23,150300
2406,000000	23,180500
2405,000000	23,234300
2404,000000	23,319500
2403,000000	23,372200
2402,000000	23,437800
2401,000000	23,459200
2400,000000	23,514800
2399,000000	23,589400
2398,000000	23,619700
2397,000000	23,667600
2396,000000	23,724300
2395,000000	23,733000
2394,000000	23,779900
2393,000000	23,847500
2392,000000	23,868100
2391,000000	23,860400
2390,000000	23,889100
2389,000000	23,945800
2388,000000	23,951100
2387,000000	24,004300
2386,000000	24,053300
2385,000000	24,041200
2384,000000	24,066200
2383,000000	24,118700
2382,000000	24,117700
2381,000000	24,099400
2380,000000	24,115800
2379,000000	24,142200
2378,000000	24,115700
2377,000000	24,094000
2376,000000	24,123400
2375,000000	24,156100
2374,000000	24,137900
2373,000000	24,119900
2372,000000	24,145200
2371,000000	24,175600
2370,000000	24,160200
2369,000000	24,190200
2368,000000	24,221600
2367,000000	24,206600
2366,000000	24,193200
2365,000000	24,215900
2364,000000	24,234400
2363,000000	24,222500
2362,000000	24,220300
2361,000000	24,260400
2360,000000	24,285400
2359,000000	24,276700
2358,000000	24,277200
2357,000000	24,298000
2356,000000	24,309400
2355,000000	24,303200
2354,000000	24,301900
2353,000000	24,343500
2352,000000	24,357400
2351,000000	24,332000
2350,000000	24,315800
2349,000000	24,338900
2348,000000	24,361900
2347,000000	24,357500
2346,000000	24,395000
2345,000000	24,415500
2344,000000	24,390100
2343,000000	24,414500
2342,000000	24,433400
2341,000000	24,438300
2340,000000	24,487100
2339,000000	24,508700
2338,000000	24,499400
2337,000000	24,558000
2336,000000	24,587700
2335,000000	24,617200
2334,000000	24,643900
2333,000000	24,652400
2332,000000	24,694300
2331,000000	24,736600
2330,000000	24,788200
2329,000000	24,833500
2328,000000	24,861200
2327,000000	24,928800
2326,000000	24,966600
2325,000000	25,002100
2324,000000	25,041600
2323,000000	25,057200
2322,000000	25,062000
2321,000000	25,106600
2320,000000	25,144000
2319,000000	25,150000
2318,000000	25,137500
2317,000000	25,118400
2316,000000	25,136500
2315,000000	25,120400
2314,000000	25,083700
2313,000000	25,085400
2312,000000	25,057000
2311,000000	25,027800
2310,000000	24,984700
2309,000000	24,974200
2308,000000	24,932000
2307,000000	24,878400
2306,000000	24,876900
2305,000000	24,851000
2304,000000	24,838500
2303,000000	24,813000
2302,000000	24,808500
2301,000000	24,808400
2300,000000	24,807400
2299,000000	24,826600
2298,000000	24,830100
2297,000000	24,831400
2296,000000	24,853300
2295,000000	24,889300
2294,000000	24,910900
2293,000000	24,929400
2292,000000	24,988500
2291,000000	25,035800
2290,000000	25,067500
2289,000000	25,068900
2288,000000	25,143700
2287,000000	25,187600
2286,000000	25,224300
2285,000000	25,272500
2284,000000	25,333400
2283,000000	25,386800
2282,000000	25,440800
2281,000000	25,485100
2280,000000	25,559300
2279,000000	25,590300
2278,000000	25,623400
2277,000000	25,672800
2276,000000	25,738100
2275,000000	25,763500
2274,000000	25,796900
2273,000000	25,820100
2272,000000	25,891900
2271,000000	25,945400
2270,000000	25,982400
2269,000000	26,027300
2268,000000	26,134700
2267,000000	26,190900
2266,000000	26,261200
2265,000000	26,360500
2264,000000	26,481500
2263,000000	26,569000
2262,000000	26,697400
2261,000000	26,841500
2260,000000	26,980500
2259,000000	27,163500
2258,000000	27,340200
2257,000000	27,507200
2256,000000	27,667500
2255,000000	27,852100
2254,000000	28,071400
2253,000000	28,249400
2252,000000	28,432100
2251,000000	28,602400
2250,000000	28,799200
2249,000000	28,989600
2248,000000	29,122300
2247,000000	29,288600
2246,000000	29,419900
2245,000000	29,605700
2244,000000	29,709500
2243,000000	29,819200
2242,000000	29,913400
2241,000000	29,983100
2240,000000	30,097200
2239,000000	30,171200
2238,000000	30,205100
2237,000000	30,233900
2236,000000	30,263000
2235,000000	30,284200
2234,000000	30,328500
2233,000000	30,324300
2232,000000	30,317000
2231,000000	30,291300
2230,000000	30,262600
2229,000000	30,226400
2228,000000	30,207200
2227,000000	30,150700
2226,000000	30,089900
2225,000000	30,005800
2224,000000	29,953800
2223,000000	29,884600
2222,000000	29,797200
2221,000000	29,700500
2220,000000	29,605100
2219,000000	29,514700
2218,000000	29,431000
2217,000000	29,355100
2216,000000	29,262800
2215,000000	29,194600
2214,000000	29,097100
2213,000000	29,019000
2212,000000	28,923100
2211,000000	28,847400
2210,000000	28,783800
2209,000000	28,702900
2208,000000	28,639000
2207,000000	28,563000
2206,000000	28,509000
2205,000000	28,446200
2204,000000	28,404300
2203,000000	28,359500
2202,000000	28,333600
2201,000000	28,278400
2200,000000	28,239000
2199,000000	28,171600
2198,000000	28,154500
2197,000000	28,135200
2196,000000	28,074600
2195,000000	28,047200
2194,000000	28,027000
2193,000000	28,015300
2192,000000	27,991300
2191,000000	27,957400
2190,000000	27,939700
2189,000000	27,928600
2188,000000	27,887300
2187,000000	27,851800
2186,000000	27,820600
2185,000000	27,804200
2184,000000	27,779800
2183,000000	27,741600
2182,000000	27,733200
2181,000000	27,717900
2180,000000	27,698700
2179,000000	27,666100
2178,000000	27,640800
2177,000000	27,615900
2176,000000	27,615700
2175,000000	27,599600
2174,000000	27,596200
2173,000000	27,605000
2172,000000	27,614900
2171,000000	27,633300
2170,000000	27,653800
2169,000000	27,678100
2168,000000	27,678900
2167,000000	27,725100
2166,000000	27,753700
2165,000000	27,777800
2164,000000	27,833200
2163,000000	27,883200
2162,000000	27,953700
2161,000000	28,031600
2160,000000	28,089800
2159,000000	28,153000
2158,000000	28,242900
2157,000000	28,356300
2156,000000	28,456200
2155,000000	28,550200
2154,000000	28,663400
2153,000000	28,776400
2152,000000	28,901100
2151,000000	29,031600
2150,000000	29,145100
2149,000000	29,256900
2148,000000	29,387200
2147,000000	29,522000
2146,000000	29,659700
2145,000000	29,780100
2144,000000	29,896800
2143,000000	30,016200
2142,000000	30,135800
2141,000000	30,258800
2140,000000	30,362000
2139,000000	30,474100
2138,000000	30,591600
2137,000000	30,714400
2136,000000	30,819500
2135,000000	30,939100
2134,000000	31,065000
2133,000000	31,159000
2132,000000	31,266800
2131,000000	31,370000
2130,000000	31,428000
2129,000000	31,506400
2128,000000	31,600900
2127,000000	31,700400
2126,000000	31,766000
2125,000000	31,833500
2124,000000	31,911000
2123,000000	31,985800
2122,000000	32,039500
2121,000000	32,094400
2120,000000	32,138700
2119,000000	32,190200
2118,000000	32,246500
2117,000000	32,286000
2116,000000	32,323300
2115,000000	32,340600
2114,000000	32,381200
2113,000000	32,414400
2112,000000	32,433000
2111,000000	32,448900
2110,000000	32,464100
2109,000000	32,489000
2108,000000	32,504800
2107,000000	32,503800
2106,000000	32,510600
2105,000000	32,550200
2104,000000	32,561300
2103,000000	32,560900
2102,000000	32,570400
2101,000000	32,575800
2100,000000	32,575000
2099,000000	32,581500
2098,000000	32,597400
2097,000000	32,614300
2096,000000	32,620000
2095,000000	32,642800
2094,000000	32,664300
2093,000000	32,664400
2092,000000	32,679000
2091,000000	32,704300
2090,000000	32,704200
2089,000000	32,715700
2088,000000	32,730600
2087,000000	32,716300
2086,000000	32,718100
2085,000000	32,707400
2084,000000	32,674200
2083,000000	32,654900
2082,000000	32,617100
2081,000000	32,570400
2080,000000	32,520500
2079,000000	32,442900
2078,000000	32,379300
2077,000000	32,306400
2076,000000	32,219500
2075,000000	32,127400
2074,000000	32,024500
2073,000000	31,906000
2072,000000	31,781900
2071,000000	31,671700
2070,000000	31,549000
2069,000000	31,416600
2068,000000	31,283400
2067,000000	31,154100
2066,000000	31,020200
2065,000000	30,894800
2064,000000	30,768400
2063,000000	30,650700
2062,000000	30,535700
2061,000000	30,426100
2060,000000	30,330900
2059,000000	30,243500
2058,000000	30,171900
2057,000000	30,116500
2056,000000	30,086900
2055,000000	30,081300
2054,000000	30,084900
2053,000000	30,115500
2052,000000	30,174400
2051,000000	30,250700
2050,000000	30,342300
2049,000000	30,468200
2048,000000	30,586700
2047,000000	30,744200
2046,000000	30,889700
2045,000000	31,047800
2044,000000	31,234900
2043,000000	31,401600
2042,000000	31,582500
2041,000000	31,759600
2040,000000	31,939900
2039,000000	32,117500
2038,000000	32,268400
2037,000000	32,429800
2036,000000	32,580400
2035,000000	32,732400
2034,000000	32,870400
2033,000000	33,009700
2032,000000	33,120500
2031,000000	33,253600
2030,000000	33,368600
2029,000000	33,472700
2028,000000	33,578800
2027,000000	33,678800
2026,000000	33,769100
2025,000000	33,863600
2024,000000	33,926200
2023,000000	34,004000
2022,000000	34,065700
2021,000000	34,135200
2020,000000	34,194200
2019,000000	34,248500
2018,000000	34,294000
2017,000000	34,329600
2016,000000	34,355200
2015,000000	34,395000
2014,000000	34,404700
2013,000000	34,412800
2012,000000	34,416900
2011,000000	34,417900
2010,000000	34,403700
2009,000000	34,397000
2008,000000	34,364300
2007,000000	34,324000
2006,000000	34,299400
2005,000000	34,264400
2004,000000	34,218200
2003,000000	34,158300
2002,000000	34,100200
2001,000000	34,027400
2000,000000	33,968800
1999,000000	33,891200
1998,000000	33,801200
1997,000000	33,722000
1996,000000	33,623100
1995,000000	33,528100
1994,000000	33,414700
1993,000000	33,337800
1992,000000	33,219400
1991,000000	33,108300
1990,000000	32,988200
1989,000000	32,891700
1988,000000	32,788200
1987,000000	32,647400
1986,000000	32,533100
1985,000000	32,415900
1984,000000	32,307300
1983,000000	32,184200
1982,000000	32,052700
1981,000000	31,935100
1980,000000	31,838900
1979,000000	31,704200
1978,000000	31,585000
1977,000000	31,487300
1976,000000	31,356600
1975,000000	31,242100
1974,000000	31,164800
1973,000000	31,046400
1972,000000	30,941800
1971,000000	30,825300
1970,000000	30,727600
1969,000000	30,617700
1968,000000	30,522800
1967,000000	30,429600
1966,000000	30,323400
1965,000000	30,210100
1964,000000	30,123700
1963,000000	30,010300
1962,000000	29,886300
1961,000000	29,796300
1960,000000	29,693400
1959,000000	29,567000
1958,000000	29,458500
1957,000000	29,357500
1956,000000	29,240700
1955,000000	29,142200
1954,000000	29,026900
1953,000000	28,897300
1952,000000	28,794700
1951,000000	28,697000
1950,000000	28,610000
1949,000000	28,525200
1948,000000	28,450600
1947,000000	28,353300
1946,000000	28,272200
1945,000000	28,208100
1944,000000	28,118000
1943,000000	28,070900
1942,000000	28,046000
1941,000000	27,992600
1940,000000	27,971300
1939,000000	27,943900
1938,000000	27,926000
1937,000000	27,909100
1936,000000	27,904200
1935,000000	27,916500
1934,000000	27,951300
1933,000000	27,997700
1932,000000	28,062700
1931,000000	28,128500
1930,000000	28,208500
1929,000000	28,310900
1928,000000	28,423300
1927,000000	28,536000
1926,000000	28,651000
1925,000000	28,806600
1924,000000	28,932800
1923,000000	29,133500
1922,000000	29,345400
1921,000000	29,567300
1920,000000	29,791300
1919,000000	29,983800
1918,000000	30,251400
1917,000000	30,472300
1916,000000	30,746300
1915,000000	31,068800
1914,000000	31,440100
1913,000000	31,812000
1912,000000	32,159800
1911,000000	32,519200
1910,000000	32,870600
1909,000000	33,215700
1908,000000	33,654600
1907,000000	34,156500
1906,000000	34,703600
1905,000000	35,280200
1904,000000	35,799500
1903,000000	36,294200
1902,000000	36,853500
1901,000000	37,424700
1900,000000	38,045000
1899,000000	38,665200
1898,000000	39,277500
1897,000000	39,893000
1896,000000	40,427900
1895,000000	41,018700
1894,000000	41,646900
1893,000000	42,303000
1892,000000	43,006700
1891,000000	43,681700
1890,000000	44,308700
1889,000000	44,873800
1888,000000	45,415300
1887,000000	45,961000
1886,000000	46,503500
1885,000000	47,055000
1884,000000	47,567900
1883,000000	48,039000
1882,000000	48,470000
1881,000000	48,884300
1880,000000	49,241800
1879,000000	49,625000
1878,000000	49,988800
1877,000000	50,339400
1876,000000	50,687800
1875,000000	51,010000
1874,000000	51,312300
1873,000000	51,588900
1872,000000	51,849700
1871,000000	52,059300
1870,000000	52,226600
1869,000000	52,410200
1868,000000	52,519000
1867,000000	52,597100
1866,000000	52,657700
1865,000000	52,740600
1864,000000	52,827800
1863,000000	52,928300
1862,000000	53,062100
1861,000000	53,193100
1860,000000	53,308300
1859,000000	53,395500
1858,000000	53,456100
1857,000000	53,494200
1856,000000	53,538400
1855,000000	53,608200
1854,000000	53,620000
1853,000000	53,602200
1852,000000	53,639600
1851,000000	53,672400
1850,000000	53,756000
1849,000000	53,852600
1848,000000	53,844400
1847,000000	53,800400
1846,000000	53,725700
1845,000000	53,669200
1844,000000	53,660700
1843,000000	53,712800
1842,000000	53,749700
1841,000000	53,731900
1840,000000	53,708600
1839,000000	53,673700
1838,000000	53,649000
1837,000000	53,603800
1836,000000	53,540500
1835,000000	53,460200
1834,000000	53,373800
1833,000000	53,311800
1832,000000	53,289300
1831,000000	53,275700
1830,000000	53,264000
1829,000000	53,238200
1828,000000	53,173900
1827,000000	53,144500
1826,000000	53,112700
1825,000000	53,062100
1824,000000	53,051200
1823,000000	53,126200
1822,000000	53,185200
1821,000000	53,177000
1820,000000	53,143200
1819,000000	53,089400
1818,000000	53,048500
1817,000000	53,046000
1816,000000	53,051400
1815,000000	53,028100
1814,000000	53,010100
1813,000000	52,995000
1812,000000	52,972800
1811,000000	52,914600
1810,000000	52,874000
1809,000000	52,853700
1808,000000	52,828100
1807,000000	52,819700
1806,000000	52,777900
1805,000000	52,733600
1804,000000	52,716500
1803,000000	52,704800
1802,000000	52,705100
1801,000000	52,688600
1800,000000	52,621700
1799,000000	52,581100
1798,000000	52,550500
1797,000000	52,537300
1796,000000	52,517500
1795,000000	52,486800
1794,000000	52,469700
1793,000000	52,453800
1792,000000	52,430900
1791,000000	52,416900
1790,000000	52,406400
1789,000000	52,396700
1788,000000	52,398200
1787,000000	52,398700
1786,000000	52,391400
1785,000000	52,381900
1784,000000	52,373500
1783,000000	52,352300
1782,000000	52,336500
1781,000000	52,312700
1780,000000	52,289200
1779,000000	52,260900
1778,000000	52,213800
1777,000000	52,168300
1776,000000	52,122500
1775,000000	52,073600
1774,000000	52,006100
1773,000000	51,963400
1772,000000	51,908200
1771,000000	51,852600
1770,000000	51,795300
1769,000000	51,735000
1768,000000	51,674100
1767,000000	51,619200
1766,000000	51,567700
1765,000000	51,513400
1764,000000	51,478800
1763,000000	51,442900
1762,000000	51,411300
1761,000000	51,380100
1760,000000	51,353100
1759,000000	51,321800
1758,000000	51,298900
1757,000000	51,270100
1756,000000	51,251800
1755,000000	51,211900
1754,000000	51,173800
1753,000000	51,131900
1752,000000	51,078900
1751,000000	51,041900
1750,000000	50,992200
1749,000000	50,934800
1748,000000	50,869800
1747,000000	50,801300
1746,000000	50,711000
1745,000000	50,649200
1744,000000	50,550500
1743,000000	50,473100
1742,000000	50,381100
1741,000000	50,309300
1740,000000	50,235600
1739,000000	50,159100
1738,000000	50,108400
1737,000000	50,055000
1736,000000	49,995700
1735,000000	49,961500
1734,000000	49,917700
1733,000000	49,902400
1732,000000	49,872000
1731,000000	49,844700
1730,000000	49,811400
1729,000000	49,784600
1728,000000	49,764300
1727,000000	49,742100
1726,000000	49,733100
1725,000000	49,751500
1724,000000	49,778800
1723,000000	49,844100
1722,000000	49,926800
1721,000000	50,073600
1720,000000	50,236300
1719,000000	50,438300
1718,000000	50,632400
1717,000000	50,874000
1716,000000	51,078200
1715,000000	51,272000
1714,000000	51,468500
1713,000000	51,633800
1712,000000	51,806200
1711,000000	51,930800
1710,000000	52,036200
1709,000000	52,145100
1708,000000	52,225500
1707,000000	52,284100
1706,000000	52,342200
1705,000000	52,376000
1704,000000	52,388600
1703,000000	52,399000
1702,000000	52,388500
1701,000000	52,395400
1700,000000	52,400900
1699,000000	52,380800
1698,000000	52,374000
1697,000000	52,352100
1696,000000	52,334100
1695,000000	52,314900
1694,000000	52,252800
1693,000000	52,188200
1692,000000	52,151100
1691,000000	52,093000
1690,000000	52,051700
1689,000000	52,070600
1688,000000	52,127400
1687,000000	52,242800
1686,000000	52,414600
1685,000000	52,580600
1684,000000	52,807600
1683,000000	53,000900
1682,000000	53,252800
1681,000000	53,499900
1680,000000	53,746600
1679,000000	53,956600
1678,000000	54,168900
1677,000000	54,387500
1676,000000	54,592600
1675,000000	54,778100
1674,000000	54,963500
1673,000000	55,183300
1672,000000	55,356800
1671,000000	55,558200
1670,000000	55,756600
1669,000000	55,958000
1668,000000	56,148900
1667,000000	56,304000
1666,000000	56,465200
1665,000000	56,630700
1664,000000	56,796300
1663,000000	56,940200
1662,000000	57,066800
1661,000000	57,191800
1660,000000	57,324700
1659,000000	57,410700
1658,000000	57,504300
1657,000000	57,579300
1656,000000	57,663600
1655,000000	57,702000
1654,000000	57,756300
1653,000000	57,785200
1652,000000	57,817500
1651,000000	57,852500
1650,000000	57,842000
1649,000000	57,840700
1648,000000	57,849300
1647,000000	57,850300
1646,000000	57,838700
1645,000000	57,832500
1644,000000	57,829300
1643,000000	57,813400
1642,000000	57,795500
1641,000000	57,787500
1640,000000	57,796000
1639,000000	57,775600
1638,000000	57,752700
1637,000000	57,737900
1636,000000	57,724800
1635,000000	57,687500
1634,000000	57,646500
1633,000000	57,606600
1632,000000	57,572000
1631,000000	57,525700
1630,000000	57,484700
1629,000000	57,442500
1628,000000	57,400600
1627,000000	57,358100
1626,000000	57,305500
1625,000000	57,260700
1624,000000	57,222900
1623,000000	57,187300
1622,000000	57,152100
1621,000000	57,101200
1620,000000	57,067700
1619,000000	57,036600
1618,000000	56,999000
1617,000000	56,973900
1616,000000	56,931000
1615,000000	56,891600
1614,000000	56,849600
1613,000000	56,797800
1612,000000	56,740900
1611,000000	56,692500
1610,000000	56,640400
1609,000000	56,589800
1608,000000	56,506000
1607,000000	56,429900
1606,000000	56,358800
1605,000000	56,286600
1604,000000	56,199300
1603,000000	56,117700
1602,000000	56,048700
1601,000000	55,975300
1600,000000	55,888700
1599,000000	55,803800
1598,000000	55,731500
1597,000000	55,670300
1596,000000	55,590100
1595,000000	55,516200
1594,000000	55,448200
1593,000000	55,393900
1592,000000	55,333900
1591,000000	55,272700
1590,000000	55,208300
1589,000000	55,163300
1588,000000	55,112900
1587,000000	55,055100
1586,000000	55,004800
1585,000000	54,960100
1584,000000	54,909000
1583,000000	54,860500
1582,000000	54,825700
1581,000000	54,790200
1580,000000	54,738600
1579,000000	54,696500
1578,000000	54,670100
1577,000000	54,645300
1576,000000	54,624300
1575,000000	54,613100
1574,000000	54,608500
1573,000000	54,602300
1572,000000	54,613300
1571,000000	54,624400
1570,000000	54,624700
1569,000000	54,630200
1568,000000	54,637900
1567,000000	54,657400
1566,000000	54,681600
1565,000000	54,690100
1564,000000	54,695600
1563,000000	54,710400
1562,000000	54,707300
1561,000000	54,694500
1560,000000	54,686900
1559,000000	54,672600
1558,000000	54,635500
1557,000000	54,589300
1556,000000	54,545100
1555,000000	54,486600
1554,000000	54,423200
1553,000000	54,355000
1552,000000	54,269800
1551,000000	54,183300
1550,000000	54,100000
1549,000000	54,014900
1548,000000	53,929500
1547,000000	53,848300
1546,000000	53,776000
1545,000000	53,710500
1544,000000	53,659600
1543,000000	53,606000
1542,000000	53,557400
1541,000000	53,521600
1540,000000	53,479000
1539,000000	53,431600
1538,000000	53,396800
1537,000000	53,348900
1536,000000	53,311700
1535,000000	53,273900
1534,000000	53,229100
1533,000000	53,187200
1532,000000	53,130700
1531,000000	53,069100
1530,000000	53,021700
1529,000000	52,954500
1528,000000	52,890300
1527,000000	52,838700
1526,000000	52,782700
1525,000000	52,720000
1524,000000	52,665800
1523,000000	52,593000
1522,000000	52,525000
1521,000000	52,465900
1520,000000	52,405900
1519,000000	52,336300
1518,000000	52,269300
1517,000000	52,204800
1516,000000	52,142300
1515,000000	52,078300
1514,000000	52,004200
1513,000000	51,932300
1512,000000	51,850900
1511,000000	51,778300
1510,000000	51,726800
1509,000000	51,658700
1508,000000	51,590200
1507,000000	51,527500
1506,000000	51,478300
1505,000000	51,419600
1504,000000	51,365900
1503,000000	51,301500
1502,000000	51,253500
1501,000000	51,212300
1500,000000	51,164300
1499,000000	51,141300
1498,000000	51,107000
1497,000000	51,081000
1496,000000	51,093000
1495,000000	51,087500
1494,000000	51,089800
1493,000000	51,094100
1492,000000	51,119800
1491,000000	51,141400
1490,000000	51,178000
1489,000000	51,224400
1488,000000	51,275500
1487,000000	51,313000
1486,000000	51,353800
1485,000000	51,389100
1484,000000	51,407700
1483,000000	51,456800
1482,000000	51,519700
1481,000000	51,565100
1480,000000	51,592400
1479,000000	51,630900
1478,000000	51,683900
1477,000000	51,716500
1476,000000	51,752200
1475,000000	51,801400
1474,000000	51,876700
1473,000000	51,949500
1472,000000	52,028200
1471,000000	52,100200
1470,000000	52,126300
1469,000000	52,184300
1468,000000	52,247500
1467,000000	52,354200
1466,000000	52,416400
1465,000000	52,476000
1464,000000	52,555200
1463,000000	52,638500
1462,000000	52,730600
1461,000000	52,806000
1460,000000	52,903800
1459,000000	52,981700
1458,000000	53,103600
1457,000000	53,198300
1456,000000	53,282500
1455,000000	53,376000
1454,000000	53,481000
1453,000000	53,589400
1452,000000	53,712400
1451,000000	53,824600
1450,000000	53,886500
1449,000000	53,924900
1448,000000	54,030200
1447,000000	54,181000
1446,000000	54,331900
1445,000000	54,379300
1444,000000	54,450700
1443,000000	54,569100
1442,000000	54,677700
1441,000000	54,784500
1440,000000	54,899000
1439,000000	55,025900
1438,000000	55,169800
1437,000000	55,250700
1436,000000	55,385400
1435,000000	55,517600
1434,000000	55,670400
1433,000000	55,850300
1432,000000	55,979500
1431,000000	56,146500
1430,000000	56,262100
1429,000000	56,484600
1428,000000	56,655600
1427,000000	56,809000
1426,000000	57,044500
1425,000000	57,261000
1424,000000	57,534100
1423,000000	57,748600
1422,000000	57,913700
1421,000000	58,229100
1420,000000	58,546100
1419,000000	58,808800
1418,000000	59,031600
1417,000000	59,249400
1416,000000	59,604100
1415,000000	60,007900
1414,000000	60,336500
1413,000000	60,587500
1412,000000	60,882700
1411,000000	61,295700
1410,000000	61,703000
1409,000000	62,114400
1408,000000	62,456000
1407,000000	62,823800
1406,000000	63,209800
1405,000000	63,572300
1404,000000	63,863400
1403,000000	64,228700
1402,000000	64,633700
1401,000000	65,199300
1400,000000	65,445500
1399,000000	65,639100
1398,000000	65,870500
1397,000000	66,290000
1396,000000	66,736800
1395,000000	66,992100
1394,000000	67,163100
1393,000000	67,421100
1392,000000	67,737700
1391,000000	67,934900
1390,000000	68,172100
1389,000000	68,506800
1388,000000	68,836300
1387,000000	69,069400
1386,000000	69,309400
1385,000000	69,603000
1384,000000	69,954900
1383,000000	70,114900
1382,000000	70,314300
1381,000000	70,426000
1380,000000	70,477100
1379,000000	70,549700
1378,000000	70,603800
1377,000000	70,705900
1376,000000	70,804500
1375,000000	70,887100
1374,000000	71,011100
1373,000000	71,167600
1372,000000	71,293300
1371,000000	71,411300
1370,000000	71,482000
1369,000000	71,621400
1368,000000	71,750600
1367,000000	71,823100
1366,000000	71,913200
1365,000000	72,025000
1364,000000	72,075700
1363,000000	72,179400
1362,000000	72,327100
1361,000000	72,336900
1360,000000	72,258800
1359,000000	72,362100
1358,000000	72,402400
1357,000000	72,458000
1356,000000	72,563500
1355,000000	72,695100
1354,000000	72,780500
1353,000000	72,830500
1352,000000	72,974900
1351,000000	73,123200
1350,000000	73,272800
1349,000000	73,433600
1348,000000	73,587300
1347,000000	73,694400
1346,000000	73,826200
1345,000000	74,002400
1344,000000	74,142800
1343,000000	74,262200
1342,000000	74,386600
1341,000000	74,522100
1340,000000	74,647500
1339,000000	74,755600
1338,000000	74,858500
1337,000000	74,958000
1336,000000	75,053400
1335,000000	75,137900
1334,000000	75,215100
1333,000000	75,317000
1332,000000	75,406000
1331,000000	75,475400
1330,000000	75,533100
1329,000000	75,589200
1328,000000	75,653200
1327,000000	75,710200
1326,000000	75,763300
1325,000000	75,824400
1324,000000	75,878400
1323,000000	75,920200
1322,000000	75,952700
1321,000000	76,001900
1320,000000	76,046300
1319,000000	76,090700
1318,000000	76,138400
1317,000000	76,170700
1316,000000	76,208600
1315,000000	76,250600
1314,000000	76,294100
1313,000000	76,313800
1312,000000	76,338900
1311,000000	76,370400
1310,000000	76,381900
1309,000000	76,400300
1308,000000	76,427900
1307,000000	76,451000
1306,000000	76,461000
1305,000000	76,473100
1304,000000	76,481500
1303,000000	76,478200
1302,000000	76,483100
1301,000000	76,483100
1300,000000	76,490400
1299,000000	76,494600
1298,000000	76,482500
1297,000000	76,480300
1296,000000	76,475100
1295,000000	76,457800
1294,000000	76,439800
1293,000000	76,433500
1292,000000	76,415300
1291,000000	76,382500
1290,000000	76,368300
1289,000000	76,347200
1288,000000	76,316800
1287,000000	76,289000
1286,000000	76,262400
1285,000000	76,235400
1284,000000	76,201000
1283,000000	76,170900
1282,000000	76,147500
1281,000000	76,123500
1280,000000	76,097800
1279,000000	76,070900
1278,000000	76,057600
1277,000000	76,036500
1276,000000	76,019900
1275,000000	76,002300
1274,000000	75,987200
1273,000000	75,992900
1272,000000	75,995000
1271,000000	75,993900
1270,000000	75,989800
1269,000000	75,988000
1268,000000	75,992900
1267,000000	75,993100
1266,000000	75,990600
1265,000000	75,986900
1264,000000	75,980100
1263,000000	75,969600
1262,000000	75,972000
1261,000000	75,961600
1260,000000	75,943400
1259,000000	75,942900
1258,000000	75,929500
1257,000000	75,899400
1256,000000	75,897100
1255,000000	75,895200
1254,000000	75,873700
1253,000000	75,824600
1252,000000	75,795600
1251,000000	75,770600
1250,000000	75,728500
1249,000000	75,695600
1248,000000	75,655500
1247,000000	75,584600
1246,000000	75,541600
1245,000000	75,512400
1244,000000	75,454700
1243,000000	75,395200
1242,000000	75,335400
1241,000000	75,284900
1240,000000	75,256700
1239,000000	75,206000
1238,000000	75,158400
1237,000000	75,133100
1236,000000	75,087900
1235,000000	75,049900
1234,000000	75,017100
1233,000000	74,977500
1232,000000	74,936400
1231,000000	74,900400
1230,000000	74,861200
1229,000000	74,839100
1228,000000	74,796100
1227,000000	74,770100
1226,000000	74,724700
1225,000000	74,672900
1224,000000	74,644900
1223,000000	74,593600
1222,000000	74,549200
1221,000000	74,512600
1220,000000	74,486000
1219,000000	74,426300
1218,000000	74,394100
1217,000000	74,356000
1216,000000	74,292600
1215,000000	74,244200
1214,000000	74,192400
1213,000000	74,135100
1212,000000	74,085100
1211,000000	73,999200
1210,000000	73,934200
1209,000000	73,882500
1208,000000	73,786000
1207,000000	73,728400
1206,000000	73,649900
1205,000000	73,567800
1204,000000	73,504000
1203,000000	73,443700
1202,000000	73,347600
1201,000000	73,280200
1200,000000	73,219200
1199,000000	73,116000
1198,000000	73,054600
1197,000000	72,975200
1196,000000	72,913700
1195,000000	72,820900
1194,000000	72,752400
1193,000000	72,659300
1192,000000	72,581900
1191,000000	72,513000
1190,000000	72,443500
1189,000000	72,393200
1188,000000	72,360300
1187,000000	72,336900
1186,000000	72,331400
1185,000000	72,331600
1184,000000	72,359300
1183,000000	72,375500
1182,000000	72,419800
1181,000000	72,468700
1180,000000	72,522000
1179,000000	72,593300
1178,000000	72,619700
1177,000000	72,667000
1176,000000	72,728500
1175,000000	72,796300
1174,000000	72,841400
1173,000000	72,918800
1172,000000	72,971800
1171,000000	73,054900
1170,000000	73,137500
1169,000000	73,223100
1168,000000	73,337800
1167,000000	73,447000
1166,000000	73,535100
1165,000000	73,631600
1164,000000	73,748700
1163,000000	73,843900
1162,000000	73,947300
1161,000000	74,033300
1160,000000	74,154200
1159,000000	74,236700
1158,000000	74,327700
1157,000000	74,382800
1156,000000	74,451800
1155,000000	74,520100
1154,000000	74,577900
1153,000000	74,647600
1152,000000	74,635700
1151,000000	74,680800
1150,000000	74,697300
1149,000000	74,747700
1148,000000	74,750500
1147,000000	74,812500
1146,000000	74,827100
1145,000000	74,834100
1144,000000	74,853200
1143,000000	74,876500
1142,000000	74,910400
1141,000000	74,966100
1140,000000	75,002200
1139,000000	75,048500
1138,000000	75,097300
1137,000000	75,158500
1136,000000	75,255500
1135,000000	75,365900
1134,000000	75,386100
1133,000000	75,359100
1132,000000	75,390300
1131,000000	75,428000
1130,000000	75,478900
1129,000000	75,509700
1128,000000	75,521700
1127,000000	75,533300
1126,000000	75,555600
1125,000000	75,549200
1124,000000	75,550600
1123,000000	75,525000
1122,000000	75,509000
1121,000000	75,477900
1120,000000	75,465500
1119,000000	75,417300
1118,000000	75,396000
1117,000000	75,376600
1116,000000	75,337900
1115,000000	75,301900
1114,000000	75,261400
1113,000000	75,235200
1112,000000	75,222300
1111,000000	75,189800
1110,000000	75,137000
1109,000000	75,137400
1108,000000	75,104400
1107,000000	75,079000
1106,000000	75,056000
1105,000000	75,032900
1104,000000	75,008700
1103,000000	74,981400
1102,000000	74,951000
1101,000000	74,917100
1100,000000	74,895300
1099,000000	74,879000
1098,000000	74,854300
1097,000000	74,818800
1096,000000	74,803200
1095,000000	74,780600
1094,000000	74,762700
1093,000000	74,728900
1092,000000	74,697400
1091,000000	74,681900
1090,000000	74,647800
1089,000000	74,604600
1088,000000	74,579500
1087,000000	74,549900
1086,000000	74,508700
1085,000000	74,463200
1084,000000	74,444500
1083,000000	74,412000
1082,000000	74,366900
1081,000000	74,313300
1080,000000	74,283000
1079,000000	74,245700
1078,000000	74,202300
1077,000000	74,170200
1076,000000	74,119300
1075,000000	74,082900
1074,000000	74,042100
1073,000000	73,992900
1072,000000	73,941000
1071,000000	73,903400
1070,000000	73,857100
1069,000000	73,815500
1068,000000	73,767600
1067,000000	73,707900
1066,000000	73,662200
1065,000000	73,614700
1064,000000	73,587600
1063,000000	73,544300
1062,000000	73,476900
1061,000000	73,453900
1060,000000	73,415600
1059,000000	73,370300
1058,000000	73,332000
1057,000000	73,289200
1056,000000	73,258900
1055,000000	73,216500
1054,000000	73,177100
1053,000000	73,132600
1052,000000	73,112700
1051,000000	73,088800
1050,000000	73,043600
1049,000000	73,019500
1048,000000	72,996700
1047,000000	72,957600
1046,000000	72,917400
1045,000000	72,884000
1044,000000	72,862000
1043,000000	72,837300
1042,000000	72,800300
1041,000000	72,763900
1040,000000	72,738700
1039,000000	72,708900
1038,000000	72,671700
1037,000000	72,637000
1036,000000	72,586500
1035,000000	72,537500
1034,000000	72,496700
1033,000000	72,454900
1032,000000	72,410000
1031,000000	72,363700
1030,000000	72,323300
1029,000000	72,280400
1028,000000	72,230400
1027,000000	72,179600
1026,000000	72,131400
1025,000000	72,072800
1024,000000	72,025300
1023,000000	71,990300
1022,000000	71,944900
1021,000000	71,887900
1020,000000	71,844800
1019,000000	71,810200
1018,000000	71,771700
1017,000000	71,738100
1016,000000	71,697600
1015,000000	71,653600
1014,000000	71,625500
1013,000000	71,612000
1012,000000	71,590700
1011,000000	71,567400
1010,000000	71,554800
1009,000000	71,550400
1008,000000	71,554100
1007,000000	71,538700
1006,000000	71,523900
1005,000000	71,540300
1004,000000	71,538000
1003,000000	71,542300
1002,000000	71,558900
1001,000000	71,553200
1000,000000	71,568500
999,000000	71,598000
998,000000	71,625100
997,000000	71,637400
996,000000	71,651900
995,000000	71,663600
994,000000	71,693500
993,000000	71,732400
992,000000	71,745400
991,000000	71,760000
990,000000	71,787400
989,000000	71,823900
988,000000	71,854500
987,000000	71,869800
986,000000	71,885900
985,000000	71,889600
984,000000	71,906500
983,000000	71,908400
982,000000	71,928100
981,000000	71,917800
980,000000	71,924000
979,000000	71,909900
978,000000	71,910200
977,000000	71,877900
976,000000	71,859800
975,000000	71,854700
974,000000	71,840900
973,000000	71,790800
972,000000	71,770500
971,000000	71,771900
970,000000	71,735000
969,000000	71,675000
968,000000	71,658400
967,000000	71,609800
966,000000	71,594900
965,000000	71,580900
964,000000	71,542000
963,000000	71,511500
962,000000	71,508600
961,000000	71,473800
960,000000	71,446800
959,000000	71,456200
958,000000	71,461100
957,000000	71,433200
956,000000	71,413100
955,000000	71,392700
954,000000	71,383200
953,000000	71,427100
952,000000	71,442400
951,000000	71,426200
950,000000	71,419400
949,000000	71,415100
948,000000	71,459900
947,000000	71,457200
946,000000	71,491300
945,000000	71,536300
944,000000	71,545600
943,000000	71,559700
942,000000	71,581100
941,000000	71,645700
940,000000	71,676900
939,000000	71,681900
938,000000	71,686200
937,000000	71,723900
936,000000	71,801900
935,000000	71,830000
934,000000	71,919100
933,000000	71,928400
932,000000	71,954500
931,000000	71,968600
930,000000	72,016400
929,000000	72,024100
928,000000	72,043300
927,000000	72,061900
926,000000	72,149500
925,000000	72,131200
924,000000	72,136400
923,000000	72,145000
922,000000	72,158200
921,000000	72,171600
920,000000	72,253800
919,000000	72,222700
918,000000	72,248600
917,000000	72,246700
916,000000	72,247200
915,000000	72,248200
914,000000	72,237900
913,000000	72,229400
912,000000	72,208000
911,000000	72,186200
910,000000	72,164900
909,000000	72,128300
908,000000	72,100700
907,000000	72,034200
906,000000	72,122500
905,000000	72,048200
904,000000	71,966700
903,000000	71,892800
902,000000	71,808100
901,000000	71,748200
900,000000	71,692400
899,000000	71,609600
898,000000	71,560400
897,000000	71,486900
896,000000	71,428600
895,000000	71,361300
894,000000	71,207300
893,000000	71,122600
892,000000	70,873600
891,000000	70,754600
890,000000	70,632300
889,000000	70,504500
888,000000	70,403600
887,000000	70,297000
886,000000	70,081500
885,000000	69,823500
884,000000	69,682900
883,000000	69,470100
882,000000	69,160600
881,000000	68,983300
880,000000	68,830200
879,000000	68,647000
878,000000	68,448800
877,000000	68,101500
876,000000	67,886100
875,000000	67,545400
874,000000	67,294700
873,000000	66,963100
872,000000	66,773800
871,000000	66,541600
870,000000	66,215200
869,000000	65,930100
868,000000	65,561300
867,000000	65,240000
866,000000	64,898100
865,000000	64,656100
864,000000	64,264400
863,000000	63,964300
862,000000	63,462900
861,000000	62,977600
860,000000	62,495100
859,000000	62,142200
858,000000	64,270100
857,000000	77,156200
856,000000	77,125700
855,000000	77,557100
854,000000	76,906600
853,000000	77,494700
852,000000	78,335200
851,000000	78,314300
850,000000	78,152900
849,000000	78,311300
848,000000	78,586400
847,000000	78,739500
846,000000	78,998200
845,000000	79,075600
844,000000	79,076900
843,000000	79,150500
842,000000	79,165900
841,000000	79,235500
840,000000	79,401000
839,000000	79,442700
838,000000	79,566300
837,000000	80,033000
836,000000	79,925700
835,000000	80,088400
834,000000	79,942800
833,000000	80,061500
832,000000	80,117800
831,000000	80,110600
830,000000	80,340700
829,000000	80,574200
828,000000	80,550600
827,000000	80,460800
826,000000	80,567200
825,000000	80,540000
824,000000	80,755500
823,000000	80,668000
822,000000	80,702500
821,000000	80,786800
820,000000	80,807100
819,000000	80,927900
818,000000	81,011100
817,000000	81,050700
816,000000	81,252500
815,000000	81,289100
814,000000	81,136500
813,000000	81,377100
812,000000	81,487200
811,000000	81,567300
810,000000	81,582100
809,000000	81,845500
808,000000	81,837700
807,000000	81,770400
806,000000	81,965200
805,000000	82,117600
804,000000	82,218100
803,000000	82,375800
802,000000	82,512500
801,000000	82,459400
800,000000	82,527200
799,000000	82,622400
798,000000	82,656700
797,000000	82,763500
796,000000	82,820700
795,000000	82,898500
794,000000	82,953500
793,000000	83,011700
792,000000	82,940000
791,000000	83,090900
790,000000	83,198000
789,000000	83,090600
788,000000	83,189600
787,000000	83,268500
786,000000	83,352500
785,000000	83,342400
784,000000	83,402300
783,000000	83,436700
782,000000	83,466100
781,000000	83,521000
780,000000	83,537000
779,000000	83,633600
778,000000	83,606700
777,000000	83,542400
776,000000	83,609000
775,000000	83,577400
774,000000	83,675200
773,000000	83,706800
772,000000	83,643200
771,000000	83,635900
770,000000	83,689900
769,000000	83,669000
768,000000	83,642500
767,000000	83,565000
766,000000	83,505400
765,000000	83,512600
764,000000	83,548400
763,000000	83,491200
762,000000	83,469700
761,000000	83,488700
760,000000	83,436800
759,000000	83,395500
758,000000	83,350900
757,000000	83,233800
756,000000	83,106600
755,000000	82,985800
754,000000	82,884900
753,000000	82,816300
752,000000	82,767600
751,000000	82,642000
750,000000	82,542700
749,000000	82,419800
748,000000	82,290800
747,000000	82,178800
746,000000	82,020300
745,000000	81,812300
744,000000	81,685800
743,000000	81,626100
742,000000	81,425400
741,000000	81,254500
740,000000	81,088600
739,000000	80,910600
738,000000	80,703000
737,000000	80,491400
736,000000	80,352000
735,000000	80,248900
734,000000	80,094100
733,000000	79,885700
732,000000	79,708000
731,000000	79,550400
730,000000	79,418400
729,000000	79,286500
728,000000	79,156200
727,000000	79,015600
726,000000	78,890700
725,000000	78,802500
724,000000	78,722600
723,000000	78,591100
722,000000	78,461300
721,000000	78,420700
720,000000	78,333800
719,000000	78,217300
718,000000	78,208500
717,000000	78,109800
716,000000	77,999700
715,000000	77,912700
714,000000	77,853600
713,000000	77,809400
712,000000	77,773200
711,000000	77,753800
710,000000	77,698100
709,000000	77,629200
708,000000	77,554900
707,000000	77,545500
706,000000	77,568700
705,000000	77,553700
704,000000	77,565900
703,000000	77,543100
702,000000	77,588500
701,000000	77,602400
700,000000	77,570800
699,000000	77,546500
698,000000	77,619700
697,000000	77,586600
696,000000	77,542200
695,000000	77,541400
694,000000	77,485200
693,000000	77,406400
692,000000	77,298600
691,000000	77,236200
690,000000	77,101000
689,000000	76,917900
688,000000	76,805700
687,000000	76,703100
686,000000	76,543800
685,000000	76,357300
684,000000	76,223700
683,000000	75,999500
682,000000	75,822800
681,000000	75,635300
680,000000	75,461100
679,000000	75,200400
678,000000	74,973600
677,000000	74,756600
676,000000	74,522600
675,000000	74,237400
674,000000	74,017000
673,000000	73,740200
672,000000	73,365000
671,000000	72,986500
670,000000	72,652500
669,000000	72,246000
668,000000	71,821900
667,000000	71,347300
666,000000	70,861500
665,000000	70,350500
664,000000	69,827600
663,000000	69,280800
662,000000	68,670900
661,000000	68,139300
660,000000	67,516000
659,000000	66,888400
658,000000	66,286300
657,000000	65,710600
656,000000	65,064900
655,000000	64,520800
654,000000	63,973900
653,000000	63,455600
652,000000	62,953800
651,000000	62,398800
650,000000	61,954700
649,000000	61,526300
648,000000	61,102800
647,000000	60,751000
646,000000	60,362900
645,000000	60,073200
644,000000	59,795800
643,000000	59,493200
642,000000	59,234200
641,000000	59,025700
640,000000	58,877300
639,000000	58,688100
638,000000	58,621500
637,000000	58,532300
636,000000	58,497800
635,000000	58,495800
634,000000	58,540500
633,000000	58,653800
632,000000	58,827500
631,000000	59,056200
630,000000	59,305000
629,000000	59,544000
628,000000	59,934100
627,000000	60,290400
626,000000	60,711100
625,000000	61,164400
624,000000	61,615600
623,000000	62,119100
622,000000	62,556200
621,000000	63,117600
620,000000	63,660400
619,000000	64,133000
618,000000	64,600500
617,000000	65,112000
616,000000	65,556900
615,000000	66,038200
614,000000	66,522300
613,000000	66,967000
612,000000	67,413900
611,000000	67,827500
610,000000	68,322500
609,000000	68,750400
608,000000	69,178300
607,000000	69,586300
606,000000	70,031200
605,000000	70,513200
604,000000	70,972400
603,000000	71,426500
602,000000	71,887300
601,000000	72,369700
600,000000	72,830900
599,000000	73,253000
598,000000	73,719300
597,000000	74,157300
596,000000	74,622600
595,000000	75,018100
594,000000	75,473100
593,000000	75,764300
592,000000	76,150100
591,000000	76,518000
590,000000	76,846700
589,000000	77,191400
588,000000	77,408700
587,000000	77,683900
586,000000	77,864900
585,000000	78,033600
584,000000	78,235100
583,000000	78,402700
582,000000	78,507700
581,000000	78,586800
580,000000	78,701400
579,000000	78,797700
578,000000	78,850100
577,000000	78,857900
576,000000	78,859500
575,000000	78,892400
574,000000	78,870000
573,000000	78,852600
572,000000	78,850300
571,000000	78,804000
570,000000	78,736500
569,000000	78,701800
568,000000	78,643400
567,000000	78,569800
566,000000	78,523100
565,000000	78,474700
564,000000	78,371100
563,000000	78,258800
562,000000	78,131400
561,000000	78,002000
560,000000	77,866000
559,000000	77,738900
558,000000	77,597100
557,000000	77,377600
556,000000	77,170700
555,000000	77,030600
554,000000	76,742400
553,000000	76,506400
552,000000	76,277800
551,000000	75,956900
550,000000	75,647200
549,000000	75,377100
548,000000	75,009700
547,000000	74,647500
546,000000	74,252500
545,000000	73,847900
544,000000	73,411800
543,000000	72,926500
542,000000	72,438700
541,000000	71,847100
540,000000	71,267700
539,000000	70,735600
538,000000	70,087100
537,000000	69,433000
536,000000	68,738700
535,000000	68,015200
534,000000	67,276300
533,000000	66,502300
532,000000	65,745200
531,000000	64,955100
530,000000	64,133800
529,000000	63,291500
528,000000	62,482900
527,000000	61,690200
526,000000	60,874700
525,000000	60,059700
524,000000	59,265700
523,000000	58,482700
522,000000	57,713000
521,000000	56,933400
520,000000	56,149200
519,000000	55,384400
518,000000	54,616500
517,000000	53,892800
516,000000	53,179600
515,000000	52,461000
514,000000	51,759300
513,000000	51,015900
512,000000	50,283200
511,000000	49,566500
510,000000	48,871800
509,000000	48,155700
508,000000	47,437400
507,000000	46,737700
506,000000	46,010600
505,000000	45,301800
504,000000	44,620600
503,000000	43,939600
502,000000	43,207400
501,000000	42,481200
500,000000	41,797100
499,000000	41,101500
498,000000	40,392300
497,000000	39,693600
496,000000	38,981900
495,000000	38,238500
494,000000	37,486400
493,000000	36,745200
492,000000	36,007400
491,000000	35,259800
490,000000	34,499900
489,000000	33,768800
488,000000	33,082800
487,000000	32,404800
486,000000	31,725700
485,000000	31,066300
484,000000	30,437000
483,000000	29,827200
482,000000	29,272300
481,000000	28,771300
480,000000	28,291500
479,000000	27,822800
478,000000	27,350500
477,000000	26,907900
476,000000	26,504600
475,000000	26,141300
474,000000	25,800800
473,000000	25,486900
472,000000	25,231000
471,000000	24,992600
470,000000	24,790900
469,000000	24,616100
468,000000	24,464300
467,000000	24,351100
466,000000	24,239700
465,000000	24,142700
464,000000	24,087400
463,000000	24,040900
462,000000	24,007800
461,000000	23,991700
460,000000	23,972000
459,000000	23,963100
458,000000	23,978700
457,000000	23,995100
456,000000	23,997400
455,000000	24,021500
454,000000	24,036600
453,000000	24,051000
452,000000	24,054500
451,000000	24,054200
450,000000	24,047300
449,000000	24,045200
448,000000	24,036100
447,000000	24,023000
446,000000	24,020900
445,000000	23,992500
444,000000	23,924700
443,000000	23,855900
442,000000	23,789500
441,000000	23,686400
440,000000	23,573800
439,000000	23,454000
438,000000	23,325700
437,000000	23,187500
436,000000	23,044400
435,000000	22,895100
434,000000	22,729400
433,000000	22,547100
432,000000	22,365900
431,000000	22,159000
430,000000	21,952500
429,000000	21,760400
428,000000	21,540500
427,000000	21,300300
426,000000	21,062400
425,000000	20,812900
424,000000	20,544000
423,000000	20,258500
422,000000	19,971300
421,000000	19,695900
420,000000	19,404100
419,000000	19,105800
418,000000	18,795400
417,000000	18,476200
416,000000	18,158200
415,000000	17,818600
414,000000	17,471200
413,000000	17,136400
412,000000	16,795500
411,000000	16,443300
410,000000	16,119900
409,000000	15,798200
408,000000	15,449600
407,000000	15,111500
406,000000	14,759000
405,000000	14,421200
404,000000	14,109700
403,000000	13,801100
402,000000	13,480300
401,000000	13,168200
400,000000	12,847900
399,000000	12,550800
398,000000	12,272400
397,000000	11,972700
396,000000	11,692400
395,000000	11,420600
394,000000	11,172300
393,000000	10,912600
392,000000	10,655900
391,000000	10,431800
390,000000	10,199600
389,000000	9,979800
388,000000	9,773700
387,000000	9,580700
386,000000	9,406400
385,000000	9,233000
384,000000	9,057600
383,000000	8,901600
382,000000	8,748600
381,000000	8,590800
380,000000	8,464300
379,000000	8,349900
378,000000	8,214400
377,000000	8,108800
376,000000	7,921500
375,000000	7,707600
374,000000	7,546300
373,000000	7,477200
372,000000	7,497800
371,000000	7,417400
370,000000	7,329600
369,000000	7,329200
368,000000	7,340300
367,000000	7,362400
366,000000	7,241600
365,000000	7,219800
364,000000	7,182300
363,000000	7,139500
362,000000	6,973700
361,000000	6,932300
360,000000	6,931300
359,000000	6,891400
358,000000	6,838000
357,000000	6,697200
356,000000	6,631100
355,000000	6,627700
354,000000	6,588300
353,000000	6,620600
352,000000	6,604500
351,000000	6,544300
350,000000	6,470600
349,000000	6,521300
348,000000	6,605600
347,000000	6,552800
346,000000	6,536600
345,000000	6,468600
344,000000	6,367400
343,000000	6,407700
342,000000	6,354500
341,000000	6,182300
340,000000	6,244800
339,000000	6,329200
338,000000	6,106100
337,000000	6,245800
336,000000	6,290500
335,000000	6,378600
334,000000	6,483500
333,000000	6,405600
332,000000	6,262100
331,000000	6,339800
330,000000	6,287900
329,000000	6,203700
328,000000	5,981400
327,000000	6,088500
326,000000	6,193300
325,000000	6,344700
324,000000	6,299600
323,000000	6,272500
322,000000	6,400700
321,000000	6,631500
320,000000	6,379300
319,000000	6,220300
318,000000	6,247400
317,000000	6,552600
316,000000	6,031400
315,000000	6,046300
314,000000	6,081800
313,000000	6,125300
312,000000	6,135100
311,000000	6,120600
310,000000	6,130600
309,000000	6,086400
308,000000	6,069800
307,000000	6,041300
306,000000	6,062800
305,000000	6,049600
304,000000	6,122800
303,000000	6,134500
302,000000	6,129700
301,000000	6,143000
300,000000	6,072200
299,000000	6,144800
298,000000	6,095900
297,000000	6,088000
296,000000	6,111500
295,000000	6,125800
294,000000	6,151100
293,000000	6,135500
292,000000	6,163300
291,000000	6,137100
290,000000	6,152900
289,000000	6,114300
288,000000	6,143600
287,000000	6,183000
286,000000	6,186600
285,000000	6,184800
284,000000	6,136400
283,000000	6,150500
282,000000	6,156300
281,000000	6,119200
280,000000	6,170300
279,000000	6,165300
278,000000	6,159300
277,000000	6,210900
276,000000	6,180500
275,000000	6,189700
274,000000	6,174800
273,000000	6,134100
272,000000	6,168000
271,000000	6,209600
270,000000	6,286600
269,000000	6,234400
268,000000	6,236900
267,000000	6,253600
266,000000	6,261400
265,000000	6,297300
264,000000	6,348500
263,000000	6,377900
262,000000	6,391900
261,000000	6,368100
260,000000	6,391100
259,000000	6,432000
258,000000	6,464700
257,000000	6,575500
256,000000	6,547400
255,000000	6,520100
254,000000	6,513100
253,000000	6,532400
252,000000	6,558900
251,000000	6,613300
250,000000	6,583000
