PE UV       SUBTECH     SPECTRUM    ASCII       PEDS        4.00        
   -1
CICIMAUCR0019-2.Sample.ASC
24/04/17
13:53:15.00
24/04/17
13:53:15.00
Vinicio Soto Monge
C. cupreomarginata
250,000000
1
Lambda 1050
1050L1511233
PerkinElmer UV WinLab 6.3.2.0749 / 2.02.05 Lambda 900 UV/VIS/NIR, Aug  7 2015 09:38:08

0
0
3350/servo 860,8/2
0
0
UV/VIS
1
1
1
DoubleDePol,CommonBeamDepol,RBeamAtt,SBeamAtt,60mm sphere, WB InGaAs Detector
0
0
0
0
Program
Program
3350/servo 860,8/2
3350/0,2 860,8/0,2
3350/0,2 860,8/0,2
0
15.00
 
 
 
0
 
860,8
319,2
860,8
Front
100
on
S:100 R:100
0
0
0
0
 
0
 
 
 
0
 
 
0
0
0
0
0
 
 
 
 
0
0


0
0
#HDR
-1
-1
#GR
nm
%R
1.0
0.0
2500,000000
-1,000000
2251
8
31,978300
2,304500
#DATA
2500,000000	5,815500
2499,000000	5,799400
2498,000000	5,703100
2497,000000	5,738800
2496,000000	5,699900
2495,000000	5,640900
2494,000000	5,651300
2493,000000	5,642200
2492,000000	5,592300
2491,000000	5,597900
2490,000000	5,653200
2489,000000	5,535400
2488,000000	5,538300
2487,000000	5,565600
2486,000000	5,525700
2485,000000	5,562000
2484,000000	5,538500
2483,000000	5,484600
2482,000000	5,529000
2481,000000	5,510800
2480,000000	5,498600
2479,000000	5,476500
2478,000000	5,440400
2477,000000	5,444400
2476,000000	5,422000
2475,000000	5,417700
2474,000000	5,461400
2473,000000	5,422100
2472,000000	5,425700
2471,000000	5,441900
2470,000000	5,424300
2469,000000	5,426300
2468,000000	5,475500
2467,000000	5,442600
2466,000000	5,454300
2465,000000	5,427900
2464,000000	5,489300
2463,000000	5,496200
2462,000000	5,520400
2461,000000	5,505600
2460,000000	5,561000
2459,000000	5,556800
2458,000000	5,604700
2457,000000	5,628300
2456,000000	5,668200
2455,000000	5,696600
2454,000000	5,710600
2453,000000	5,757400
2452,000000	5,765100
2451,000000	5,809300
2450,000000	5,869400
2449,000000	5,894800
2448,000000	5,917400
2447,000000	5,947900
2446,000000	5,976400
2445,000000	6,008900
2444,000000	6,034600
2443,000000	6,065100
2442,000000	6,113400
2441,000000	6,139700
2440,000000	6,178700
2439,000000	6,218300
2438,000000	6,245000
2437,000000	6,274200
2436,000000	6,293500
2435,000000	6,321500
2434,000000	6,341400
2433,000000	6,377800
2432,000000	6,397900
2431,000000	6,414800
2430,000000	6,446200
2429,000000	6,447900
2428,000000	6,476700
2427,000000	6,495700
2426,000000	6,489000
2425,000000	6,514600
2424,000000	6,551000
2423,000000	6,567300
2422,000000	6,571800
2421,000000	6,576500
2420,000000	6,564000
2419,000000	6,562400
2418,000000	6,540000
2417,000000	6,529600
2416,000000	6,548800
2415,000000	6,570800
2414,000000	6,585500
2413,000000	6,584100
2412,000000	6,600700
2411,000000	6,601800
2410,000000	6,607900
2409,000000	6,612800
2408,000000	6,623200
2407,000000	6,628400
2406,000000	6,640900
2405,000000	6,638000
2404,000000	6,645000
2403,000000	6,664300
2402,000000	6,672400
2401,000000	6,685600
2400,000000	6,690800
2399,000000	6,685500
2398,000000	6,700800
2397,000000	6,712400
2396,000000	6,721300
2395,000000	6,733800
2394,000000	6,757600
2393,000000	6,763500
2392,000000	6,756700
2391,000000	6,759300
2390,000000	6,744800
2389,000000	6,745400
2388,000000	6,739600
2387,000000	6,729300
2386,000000	6,731400
2385,000000	6,736200
2384,000000	6,717000
2383,000000	6,701800
2382,000000	6,693500
2381,000000	6,683900
2380,000000	6,676100
2379,000000	6,668500
2378,000000	6,666900
2377,000000	6,655400
2376,000000	6,642500
2375,000000	6,628700
2374,000000	6,602300
2373,000000	6,592000
2372,000000	6,578400
2371,000000	6,551000
2370,000000	6,537000
2369,000000	6,498700
2368,000000	6,474300
2367,000000	6,455800
2366,000000	6,423300
2365,000000	6,391800
2364,000000	6,349700
2363,000000	6,322200
2362,000000	6,289000
2361,000000	6,258100
2360,000000	6,238800
2359,000000	6,204000
2358,000000	6,187900
2357,000000	6,164100
2356,000000	6,132000
2355,000000	6,129100
2354,000000	6,132900
2353,000000	6,137600
2352,000000	6,135400
2351,000000	6,153600
2350,000000	6,170000
2349,000000	6,175600
2348,000000	6,188900
2347,000000	6,212600
2346,000000	6,226000
2345,000000	6,242100
2344,000000	6,247900
2343,000000	6,247800
2342,000000	6,276100
2341,000000	6,278600
2340,000000	6,257800
2339,000000	6,240400
2338,000000	6,244600
2337,000000	6,251800
2336,000000	6,233100
2335,000000	6,236900
2334,000000	6,206400
2333,000000	6,179700
2332,000000	6,161900
2331,000000	6,137600
2330,000000	6,107600
2329,000000	6,078100
2328,000000	6,054000
2327,000000	6,032800
2326,000000	6,000300
2325,000000	5,958900
2324,000000	5,927300
2323,000000	5,893300
2322,000000	5,852400
2321,000000	5,805700
2320,000000	5,761800
2319,000000	5,722400
2318,000000	5,686300
2317,000000	5,636400
2316,000000	5,601200
2315,000000	5,551000
2314,000000	5,536600
2313,000000	5,507700
2312,000000	5,474900
2311,000000	5,455300
2310,000000	5,436800
2309,000000	5,423300
2308,000000	5,428500
2307,000000	5,425500
2306,000000	5,440800
2305,000000	5,451800
2304,000000	5,496800
2303,000000	5,532600
2302,000000	5,562200
2301,000000	5,595500
2300,000000	5,604000
2299,000000	5,651500
2298,000000	5,696000
2297,000000	5,720500
2296,000000	5,734500
2295,000000	5,774800
2294,000000	5,802000
2293,000000	5,800600
2292,000000	5,796400
2291,000000	5,825600
2290,000000	5,837500
2289,000000	5,839600
2288,000000	5,827100
2287,000000	5,804300
2286,000000	5,804600
2285,000000	5,768400
2284,000000	5,759000
2283,000000	5,730600
2282,000000	5,735100
2281,000000	5,718600
2280,000000	5,689000
2279,000000	5,657600
2278,000000	5,651800
2277,000000	5,627800
2276,000000	5,613600
2275,000000	5,625800
2274,000000	5,613200
2273,000000	5,604600
2272,000000	5,625000
2271,000000	5,623800
2270,000000	5,661200
2269,000000	5,679700
2268,000000	5,730600
2267,000000	5,775600
2266,000000	5,821900
2265,000000	5,891700
2264,000000	5,978200
2263,000000	6,023600
2262,000000	6,128800
2261,000000	6,227800
2260,000000	6,316900
2259,000000	6,401100
2258,000000	6,531600
2257,000000	6,656000
2256,000000	6,755500
2255,000000	6,861800
2254,000000	6,979400
2253,000000	7,089700
2252,000000	7,195600
2251,000000	7,292900
2250,000000	7,376100
2249,000000	7,443600
2248,000000	7,543500
2247,000000	7,624200
2246,000000	7,692900
2245,000000	7,788500
2244,000000	7,849000
2243,000000	7,918100
2242,000000	7,967000
2241,000000	8,023900
2240,000000	8,057000
2239,000000	8,139900
2238,000000	8,189600
2237,000000	8,243300
2236,000000	8,278300
2235,000000	8,330700
2234,000000	8,367500
2233,000000	8,372600
2232,000000	8,405200
2231,000000	8,456500
2230,000000	8,471800
2229,000000	8,504600
2228,000000	8,509900
2227,000000	8,529300
2226,000000	8,545000
2225,000000	8,537800
2224,000000	8,553700
2223,000000	8,556800
2222,000000	8,544600
2221,000000	8,567400
2220,000000	8,572600
2219,000000	8,560900
2218,000000	8,557000
2217,000000	8,552500
2216,000000	8,517500
2215,000000	8,528200
2214,000000	8,519500
2213,000000	8,521600
2212,000000	8,514300
2211,000000	8,496900
2210,000000	8,475700
2209,000000	8,489600
2208,000000	8,472500
2207,000000	8,450100
2206,000000	8,471200
2205,000000	8,452400
2204,000000	8,444100
2203,000000	8,430100
2202,000000	8,435500
2201,000000	8,415800
2200,000000	8,407900
2199,000000	8,424000
2198,000000	8,397900
2197,000000	8,388200
2196,000000	8,377100
2195,000000	8,386100
2194,000000	8,363500
2193,000000	8,350800
2192,000000	8,332300
2191,000000	8,313700
2190,000000	8,312800
2189,000000	8,296400
2188,000000	8,300500
2187,000000	8,289500
2186,000000	8,279300
2185,000000	8,275400
2184,000000	8,264100
2183,000000	8,242600
2182,000000	8,242500
2181,000000	8,224900
2180,000000	8,220200
2179,000000	8,216100
2178,000000	8,225600
2177,000000	8,235600
2176,000000	8,221200
2175,000000	8,199200
2174,000000	8,197300
2173,000000	8,205600
2172,000000	8,218900
2171,000000	8,222300
2170,000000	8,225700
2169,000000	8,227400
2168,000000	8,249000
2167,000000	8,252700
2166,000000	8,262900
2165,000000	8,267200
2164,000000	8,280600
2163,000000	8,303300
2162,000000	8,318100
2161,000000	8,338200
2160,000000	8,331400
2159,000000	8,358500
2158,000000	8,381000
2157,000000	8,400100
2156,000000	8,410900
2155,000000	8,426100
2154,000000	8,452700
2153,000000	8,470000
2152,000000	8,492500
2151,000000	8,525100
2150,000000	8,533300
2149,000000	8,550800
2148,000000	8,558100
2147,000000	8,572900
2146,000000	8,593800
2145,000000	8,611700
2144,000000	8,634200
2143,000000	8,645000
2142,000000	8,652300
2141,000000	8,667400
2140,000000	8,663500
2139,000000	8,676200
2138,000000	8,686000
2137,000000	8,688700
2136,000000	8,682700
2135,000000	8,682200
2134,000000	8,697900
2133,000000	8,693300
2132,000000	8,691200
2131,000000	8,681500
2130,000000	8,648700
2129,000000	8,626300
2128,000000	8,630100
2127,000000	8,617500
2126,000000	8,589600
2125,000000	8,576000
2124,000000	8,563000
2123,000000	8,525900
2122,000000	8,496000
2121,000000	8,499400
2120,000000	8,501000
2119,000000	8,471800
2118,000000	8,449500
2117,000000	8,441100
2116,000000	8,420600
2115,000000	8,400800
2114,000000	8,386800
2113,000000	8,375900
2112,000000	8,368100
2111,000000	8,355500
2110,000000	8,337600
2109,000000	8,327600
2108,000000	8,312700
2107,000000	8,282900
2106,000000	8,280500
2105,000000	8,282700
2104,000000	8,263900
2103,000000	8,257000
2102,000000	8,249900
2101,000000	8,221800
2100,000000	8,194900
2099,000000	8,193600
2098,000000	8,198800
2097,000000	8,191000
2096,000000	8,189500
2095,000000	8,192300
2094,000000	8,174900
2093,000000	8,175200
2092,000000	8,190900
2091,000000	8,191100
2090,000000	8,193400
2089,000000	8,213400
2088,000000	8,208200
2087,000000	8,206700
2086,000000	8,207400
2085,000000	8,210300
2084,000000	8,225300
2083,000000	8,223000
2082,000000	8,211800
2081,000000	8,224100
2080,000000	8,229900
2079,000000	8,219700
2078,000000	8,221000
2077,000000	8,223800
2076,000000	8,210200
2075,000000	8,203800
2074,000000	8,188900
2073,000000	8,180100
2072,000000	8,180100
2071,000000	8,177600
2070,000000	8,163000
2069,000000	8,143200
2068,000000	8,123200
2067,000000	8,107500
2066,000000	8,108600
2065,000000	8,111100
2064,000000	8,104800
2063,000000	8,082100
2062,000000	8,075700
2061,000000	8,089800
2060,000000	8,086500
2059,000000	8,086900
2058,000000	8,080900
2057,000000	8,069300
2056,000000	8,090600
2055,000000	8,118400
2054,000000	8,149400
2053,000000	8,175100
2052,000000	8,197000
2051,000000	8,232600
2050,000000	8,273300
2049,000000	8,331600
2048,000000	8,382500
2047,000000	8,433700
2046,000000	8,479900
2045,000000	8,545200
2044,000000	8,593900
2043,000000	8,700500
2042,000000	8,764700
2041,000000	8,836400
2040,000000	8,891700
2039,000000	8,937900
2038,000000	8,992500
2037,000000	9,068200
2036,000000	9,138800
2035,000000	9,190500
2034,000000	9,251200
2033,000000	9,306000
2032,000000	9,342200
2031,000000	9,384000
2030,000000	9,430600
2029,000000	9,473600
2028,000000	9,539700
2027,000000	9,563000
2026,000000	9,586600
2025,000000	9,639700
2024,000000	9,671000
2023,000000	9,696800
2022,000000	9,728200
2021,000000	9,774500
2020,000000	9,790100
2019,000000	9,814200
2018,000000	9,861800
2017,000000	9,884200
2016,000000	9,916600
2015,000000	9,924100
2014,000000	9,949400
2013,000000	9,947600
2012,000000	9,964100
2011,000000	9,980600
2010,000000	9,991900
2009,000000	10,004700
2008,000000	9,998000
2007,000000	10,005600
2006,000000	9,983500
2005,000000	9,986000
2004,000000	9,971800
2003,000000	9,974100
2002,000000	9,962200
2001,000000	9,950700
2000,000000	9,914900
1999,000000	9,887400
1998,000000	9,890300
1997,000000	9,878800
1996,000000	9,832400
1995,000000	9,824900
1994,000000	9,769800
1993,000000	9,736800
1992,000000	9,700600
1991,000000	9,678800
1990,000000	9,644800
1989,000000	9,608000
1988,000000	9,568400
1987,000000	9,522900
1986,000000	9,476900
1985,000000	9,414500
1984,000000	9,387000
1983,000000	9,353900
1982,000000	9,304000
1981,000000	9,264300
1980,000000	9,227400
1979,000000	9,184000
1978,000000	9,141300
1977,000000	9,101000
1976,000000	9,056400
1975,000000	8,993200
1974,000000	8,960700
1973,000000	8,886000
1972,000000	8,865900
1971,000000	8,827500
1970,000000	8,791400
1969,000000	8,739500
1968,000000	8,694800
1967,000000	8,639900
1966,000000	8,602700
1965,000000	8,549600
1964,000000	8,529600
1963,000000	8,494100
1962,000000	8,425100
1961,000000	8,377100
1960,000000	8,368800
1959,000000	8,304400
1958,000000	8,274100
1957,000000	8,222900
1956,000000	8,161300
1955,000000	8,111100
1954,000000	8,098800
1953,000000	8,063100
1952,000000	8,005800
1951,000000	7,988200
1950,000000	7,944400
1949,000000	7,886500
1948,000000	7,871400
1947,000000	7,863800
1946,000000	7,816300
1945,000000	7,785400
1944,000000	7,767400
1943,000000	7,738700
1942,000000	7,743000
1941,000000	7,721100
1940,000000	7,700800
1939,000000	7,695600
1938,000000	7,731700
1937,000000	7,733400
1936,000000	7,741000
1935,000000	7,731100
1934,000000	7,746100
1933,000000	7,741300
1932,000000	7,738300
1931,000000	7,766800
1930,000000	7,820200
1929,000000	7,852100
1928,000000	7,910200
1927,000000	7,966500
1926,000000	8,028800
1925,000000	8,076700
1924,000000	8,093100
1923,000000	8,124300
1922,000000	8,226800
1921,000000	8,323500
1920,000000	8,467400
1919,000000	8,571400
1918,000000	8,642700
1917,000000	8,658100
1916,000000	8,700500
1915,000000	8,766400
1914,000000	8,897200
1913,000000	9,062700
1912,000000	9,249100
1911,000000	9,394700
1910,000000	9,457200
1909,000000	9,475800
1908,000000	9,554900
1907,000000	9,690000
1906,000000	9,882900
1905,000000	10,148800
1904,000000	10,364600
1903,000000	10,487700
1902,000000	10,613900
1901,000000	10,754800
1900,000000	10,934800
1899,000000	11,186900
1898,000000	11,435700
1897,000000	11,595600
1896,000000	11,700000
1895,000000	11,788500
1894,000000	11,931900
1893,000000	12,125000
1892,000000	12,375400
1891,000000	12,657000
1890,000000	12,890000
1889,000000	13,094100
1888,000000	13,267100
1887,000000	13,399000
1886,000000	13,602900
1885,000000	13,872100
1884,000000	14,153400
1883,000000	14,449500
1882,000000	14,710800
1881,000000	14,959600
1880,000000	15,160400
1879,000000	15,332200
1878,000000	15,562200
1877,000000	15,780800
1876,000000	15,983900
1875,000000	16,218500
1874,000000	16,410300
1873,000000	16,636300
1872,000000	16,892700
1871,000000	17,065200
1870,000000	17,251600
1869,000000	17,441100
1868,000000	17,522000
1867,000000	17,511800
1866,000000	17,483400
1865,000000	17,412600
1864,000000	17,329400
1863,000000	17,243300
1862,000000	17,211200
1861,000000	17,232300
1860,000000	17,274100
1859,000000	17,387200
1858,000000	17,466100
1857,000000	17,427000
1856,000000	17,338100
1855,000000	17,313300
1854,000000	17,309700
1853,000000	17,298400
1852,000000	17,263200
1851,000000	17,156100
1850,000000	17,002000
1849,000000	16,946800
1848,000000	17,058300
1847,000000	17,209900
1846,000000	17,230400
1845,000000	17,073800
1844,000000	16,855100
1843,000000	16,691000
1842,000000	16,689100
1841,000000	16,787200
1840,000000	16,824800
1839,000000	16,809200
1838,000000	16,776300
1837,000000	16,769700
1836,000000	16,776400
1835,000000	16,730400
1834,000000	16,621800
1833,000000	16,460000
1832,000000	16,325200
1831,000000	16,260200
1830,000000	16,251300
1829,000000	16,213100
1828,000000	16,153900
1827,000000	16,128800
1826,000000	16,116900
1825,000000	16,074400
1824,000000	15,963100
1823,000000	15,810700
1822,000000	15,764100
1821,000000	15,842400
1820,000000	15,960300
1819,000000	16,013800
1818,000000	15,935600
1817,000000	15,836100
1816,000000	15,792800
1815,000000	15,781800
1814,000000	15,774000
1813,000000	15,745700
1812,000000	15,723200
1811,000000	15,739900
1810,000000	15,742300
1809,000000	15,690000
1808,000000	15,624500
1807,000000	15,599400
1806,000000	15,592900
1805,000000	15,574900
1804,000000	15,522500
1803,000000	15,501300
1802,000000	15,499500
1801,000000	15,492100
1800,000000	15,482500
1799,000000	15,442200
1798,000000	15,390200
1797,000000	15,343400
1796,000000	15,332300
1795,000000	15,323700
1794,000000	15,301200
1793,000000	15,266800
1792,000000	15,231000
1791,000000	15,223400
1790,000000	15,185300
1789,000000	15,145000
1788,000000	15,115600
1787,000000	15,099100
1786,000000	15,071400
1785,000000	15,034900
1784,000000	15,000600
1783,000000	14,971800
1782,000000	14,915600
1781,000000	14,880700
1780,000000	14,844200
1779,000000	14,798600
1778,000000	14,738900
1777,000000	14,698300
1776,000000	14,622600
1775,000000	14,568300
1774,000000	14,479700
1773,000000	14,397100
1772,000000	14,326500
1771,000000	14,265600
1770,000000	14,169200
1769,000000	14,077200
1768,000000	14,002800
1767,000000	13,932100
1766,000000	13,882900
1765,000000	13,825900
1764,000000	13,803100
1763,000000	13,770600
1762,000000	13,752700
1761,000000	13,784200
1760,000000	13,806700
1759,000000	13,829700
1758,000000	13,856500
1757,000000	13,893900
1756,000000	13,914300
1755,000000	13,899600
1754,000000	13,918100
1753,000000	13,906900
1752,000000	13,870400
1751,000000	13,861500
1750,000000	13,827300
1749,000000	13,801600
1748,000000	13,756100
1747,000000	13,694900
1746,000000	13,622100
1745,000000	13,535100
1744,000000	13,426800
1743,000000	13,333700
1742,000000	13,205000
1741,000000	13,075100
1740,000000	12,923500
1739,000000	12,803200
1738,000000	12,663100
1737,000000	12,547100
1736,000000	12,451000
1735,000000	12,380500
1734,000000	12,336900
1733,000000	12,308700
1732,000000	12,311600
1731,000000	12,363100
1730,000000	12,360100
1729,000000	12,429400
1728,000000	12,474400
1727,000000	12,535000
1726,000000	12,554300
1725,000000	12,579300
1724,000000	12,608300
1723,000000	12,630300
1722,000000	12,634200
1721,000000	12,626600
1720,000000	12,634700
1719,000000	12,655600
1718,000000	12,694700
1717,000000	12,723300
1716,000000	12,780600
1715,000000	12,826800
1714,000000	12,886300
1713,000000	12,984900
1712,000000	13,004100
1711,000000	13,049400
1710,000000	13,047000
1709,000000	13,086200
1708,000000	13,072100
1707,000000	13,093200
1706,000000	13,086000
1705,000000	13,078400
1704,000000	13,070200
1703,000000	13,049400
1702,000000	13,006400
1701,000000	12,952200
1700,000000	12,851100
1699,000000	12,796800
1698,000000	12,724900
1697,000000	12,640100
1696,000000	12,621000
1695,000000	12,615500
1694,000000	12,642400
1693,000000	12,696900
1692,000000	12,774200
1691,000000	12,863100
1690,000000	12,915500
1689,000000	12,929700
1688,000000	12,947200
1687,000000	12,949400
1686,000000	12,970800
1685,000000	12,955500
1684,000000	12,965000
1683,000000	13,100400
1682,000000	13,300200
1681,000000	13,549100
1680,000000	13,869300
1679,000000	14,187200
1678,000000	14,489800
1677,000000	14,804800
1676,000000	15,077000
1675,000000	15,316600
1674,000000	15,499700
1673,000000	15,660400
1672,000000	15,839900
1671,000000	15,963100
1670,000000	16,073800
1669,000000	16,193300
1668,000000	16,308900
1667,000000	16,407700
1666,000000	16,474700
1665,000000	16,571900
1664,000000	16,658000
1663,000000	16,729300
1662,000000	16,792800
1661,000000	16,852500
1660,000000	16,912300
1659,000000	16,974400
1658,000000	17,030000
1657,000000	17,082100
1656,000000	17,105700
1655,000000	17,126600
1654,000000	17,138800
1653,000000	17,154100
1652,000000	17,159200
1651,000000	17,159200
1650,000000	17,140400
1649,000000	17,134600
1648,000000	17,120900
1647,000000	17,093900
1646,000000	17,068800
1645,000000	17,045100
1644,000000	17,011700
1643,000000	16,993700
1642,000000	16,971100
1641,000000	16,935200
1640,000000	16,885700
1639,000000	16,851900
1638,000000	16,828100
1637,000000	16,776600
1636,000000	16,739700
1635,000000	16,710100
1634,000000	16,670600
1633,000000	16,631700
1632,000000	16,597200
1631,000000	16,555300
1630,000000	16,485400
1629,000000	16,445900
1628,000000	16,403000
1627,000000	16,352700
1626,000000	16,304000
1625,000000	16,258800
1624,000000	16,215900
1623,000000	16,177000
1622,000000	16,127400
1621,000000	16,059200
1620,000000	16,019300
1619,000000	15,956500
1618,000000	15,908200
1617,000000	15,861700
1616,000000	15,822400
1615,000000	15,779600
1614,000000	15,730900
1613,000000	15,694700
1612,000000	15,640500
1611,000000	15,596100
1610,000000	15,564100
1609,000000	15,527400
1608,000000	15,470700
1607,000000	15,429700
1606,000000	15,389000
1605,000000	15,338900
1604,000000	15,305300
1603,000000	15,252700
1602,000000	15,211000
1601,000000	15,167100
1600,000000	15,122400
1599,000000	15,086200
1598,000000	15,058500
1597,000000	15,015900
1596,000000	14,981200
1595,000000	14,946800
1594,000000	14,915000
1593,000000	14,900100
1592,000000	14,868500
1591,000000	14,841600
1590,000000	14,814900
1589,000000	14,776200
1588,000000	14,756500
1587,000000	14,737200
1586,000000	14,725900
1585,000000	14,696600
1584,000000	14,658100
1583,000000	14,636700
1582,000000	14,628800
1581,000000	14,610300
1580,000000	14,607200
1579,000000	14,618000
1578,000000	14,612900
1577,000000	14,609000
1576,000000	14,609600
1575,000000	14,609700
1574,000000	14,616500
1573,000000	14,616100
1572,000000	14,617200
1571,000000	14,634100
1570,000000	14,645500
1569,000000	14,657900
1568,000000	14,681000
1567,000000	14,697900
1566,000000	14,722700
1565,000000	14,745200
1564,000000	14,763000
1563,000000	14,764100
1562,000000	14,773200
1561,000000	14,788000
1560,000000	14,801500
1559,000000	14,807800
1558,000000	14,815800
1557,000000	14,833100
1556,000000	14,840900
1555,000000	14,845800
1554,000000	14,846100
1553,000000	14,840000
1552,000000	14,827400
1551,000000	14,806500
1550,000000	14,799600
1549,000000	14,785200
1548,000000	14,770600
1547,000000	14,767300
1546,000000	14,765800
1545,000000	14,772400
1544,000000	14,770000
1543,000000	14,749700
1542,000000	14,744000
1541,000000	14,743300
1540,000000	14,738500
1539,000000	14,741500
1538,000000	14,732300
1537,000000	14,729100
1536,000000	14,739500
1535,000000	14,732500
1534,000000	14,721600
1533,000000	14,709000
1532,000000	14,699900
1531,000000	14,691900
1530,000000	14,697100
1529,000000	14,696200
1528,000000	14,681000
1527,000000	14,652600
1526,000000	14,635600
1525,000000	14,621000
1524,000000	14,601300
1523,000000	14,575300
1522,000000	14,561000
1521,000000	14,553800
1520,000000	14,526900
1519,000000	14,507000
1518,000000	14,487500
1517,000000	14,468000
1516,000000	14,452700
1515,000000	14,436900
1514,000000	14,414700
1513,000000	14,395000
1512,000000	14,361700
1511,000000	14,339700
1510,000000	14,320400
1509,000000	14,287500
1508,000000	14,255900
1507,000000	14,235700
1506,000000	14,213600
1505,000000	14,204800
1504,000000	14,191500
1503,000000	14,152500
1502,000000	14,132000
1501,000000	14,124100
1500,000000	14,092900
1499,000000	14,082700
1498,000000	14,073600
1497,000000	14,066400
1496,000000	14,065900
1495,000000	14,051000
1494,000000	14,039600
1493,000000	14,032900
1492,000000	14,044900
1491,000000	14,038700
1490,000000	14,058500
1489,000000	14,068300
1488,000000	14,076500
1487,000000	14,059400
1486,000000	14,080200
1485,000000	14,083200
1484,000000	14,085300
1483,000000	14,087700
1482,000000	14,100400
1481,000000	14,121600
1480,000000	14,135600
1479,000000	14,167000
1478,000000	14,189000
1477,000000	14,224700
1476,000000	14,235900
1475,000000	14,261200
1474,000000	14,275400
1473,000000	14,288100
1472,000000	14,327800
1471,000000	14,332000
1470,000000	14,383400
1469,000000	14,411600
1468,000000	14,423100
1467,000000	14,455600
1466,000000	14,493300
1465,000000	14,540200
1464,000000	14,558800
1463,000000	14,603000
1462,000000	14,651700
1461,000000	14,705900
1460,000000	14,735900
1459,000000	14,773600
1458,000000	14,822100
1457,000000	14,871000
1456,000000	14,908500
1455,000000	14,995000
1454,000000	15,060000
1453,000000	15,105200
1452,000000	15,161200
1451,000000	15,255300
1450,000000	15,319300
1449,000000	15,414100
1448,000000	15,472700
1447,000000	15,509500
1446,000000	15,614200
1445,000000	15,701600
1444,000000	15,779900
1443,000000	15,824200
1442,000000	15,917100
1441,000000	16,022500
1440,000000	16,088700
1439,000000	16,156400
1438,000000	16,234200
1437,000000	16,325900
1436,000000	16,406700
1435,000000	16,489800
1434,000000	16,574600
1433,000000	16,655800
1432,000000	16,762700
1431,000000	16,853600
1430,000000	16,934900
1429,000000	17,022600
1428,000000	17,164400
1427,000000	17,255000
1426,000000	17,372000
1425,000000	17,487400
1424,000000	17,626100
1423,000000	17,788900
1422,000000	17,900900
1421,000000	18,024300
1420,000000	18,141600
1419,000000	18,347700
1418,000000	18,542800
1417,000000	18,625900
1416,000000	18,707100
1415,000000	18,802700
1414,000000	19,005200
1413,000000	19,223400
1412,000000	19,311000
1411,000000	19,379700
1410,000000	19,546500
1409,000000	19,767700
1408,000000	20,011600
1407,000000	20,243600
1406,000000	20,416900
1405,000000	20,642700
1404,000000	20,896900
1403,000000	21,114000
1402,000000	21,197500
1401,000000	21,414800
1400,000000	21,811300
1399,000000	22,068700
1398,000000	22,063800
1397,000000	22,062100
1396,000000	22,227100
1395,000000	22,519400
1394,000000	22,635700
1393,000000	22,633200
1392,000000	22,728700
1391,000000	22,866400
1390,000000	22,891800
1389,000000	22,886000
1388,000000	23,076700
1387,000000	23,307900
1386,000000	23,406700
1385,000000	23,541800
1384,000000	23,751300
1383,000000	23,933200
1382,000000	24,199300
1381,000000	24,441100
1380,000000	24,495000
1379,000000	24,530000
1378,000000	24,492700
1377,000000	24,479100
1376,000000	24,496600
1375,000000	24,611700
1374,000000	24,684400
1373,000000	24,810900
1372,000000	24,944800
1371,000000	25,191700
1370,000000	25,388600
1369,000000	25,486900
1368,000000	25,649400
1367,000000	25,825900
1366,000000	25,882500
1365,000000	25,964300
1364,000000	26,104500
1363,000000	26,115800
1362,000000	26,200300
1361,000000	26,422500
1360,000000	26,532000
1359,000000	26,475200
1358,000000	26,459700
1357,000000	26,482100
1356,000000	26,564900
1355,000000	26,784000
1354,000000	27,076000
1353,000000	27,314200
1352,000000	27,494400
1351,000000	27,712900
1350,000000	27,940400
1349,000000	28,092600
1348,000000	28,280200
1347,000000	28,508800
1346,000000	28,683400
1345,000000	28,814800
1344,000000	28,975600
1343,000000	29,123000
1342,000000	29,260700
1341,000000	29,390700
1340,000000	29,518000
1339,000000	29,652900
1338,000000	29,780500
1337,000000	29,898200
1336,000000	29,996700
1335,000000	30,088900
1334,000000	30,189100
1333,000000	30,288400
1332,000000	30,358100
1331,000000	30,435900
1330,000000	30,520300
1329,000000	30,578200
1328,000000	30,646000
1327,000000	30,712600
1326,000000	30,754100
1325,000000	30,792800
1324,000000	30,839400
1323,000000	30,882000
1322,000000	30,925300
1321,000000	30,972400
1320,000000	31,014400
1319,000000	31,044000
1318,000000	31,072200
1317,000000	31,093000
1316,000000	31,120400
1315,000000	31,156400
1314,000000	31,194700
1313,000000	31,210800
1312,000000	31,209800
1311,000000	31,222300
1310,000000	31,236900
1309,000000	31,250600
1308,000000	31,262000
1307,000000	31,270400
1306,000000	31,267700
1305,000000	31,254900
1304,000000	31,255100
1303,000000	31,268700
1302,000000	31,267700
1301,000000	31,256400
1300,000000	31,233900
1299,000000	31,225900
1298,000000	31,205200
1297,000000	31,198900
1296,000000	31,198300
1295,000000	31,176300
1294,000000	31,163800
1293,000000	31,157100
1292,000000	31,145800
1291,000000	31,118300
1290,000000	31,104200
1289,000000	31,093900
1288,000000	31,071300
1287,000000	31,043800
1286,000000	31,031000
1285,000000	31,021100
1284,000000	30,988700
1283,000000	30,957600
1282,000000	30,939200
1281,000000	30,906400
1280,000000	30,876500
1279,000000	30,857500
1278,000000	30,828100
1277,000000	30,806100
1276,000000	30,775100
1275,000000	30,740300
1274,000000	30,715300
1273,000000	30,698700
1272,000000	30,686100
1271,000000	30,677500
1270,000000	30,650500
1269,000000	30,620800
1268,000000	30,594500
1267,000000	30,574200
1266,000000	30,552400
1265,000000	30,509900
1264,000000	30,495300
1263,000000	30,477900
1262,000000	30,452100
1261,000000	30,430900
1260,000000	30,412200
1259,000000	30,359400
1258,000000	30,349800
1257,000000	30,345000
1256,000000	30,307400
1255,000000	30,281200
1254,000000	30,277000
1253,000000	30,254100
1252,000000	30,222600
1251,000000	30,186300
1250,000000	30,163400
1249,000000	30,142600
1248,000000	30,105700
1247,000000	30,068200
1246,000000	30,020900
1245,000000	29,976200
1244,000000	29,920100
1243,000000	29,875700
1242,000000	29,842400
1241,000000	29,770800
1240,000000	29,709100
1239,000000	29,647000
1238,000000	29,577400
1237,000000	29,498700
1236,000000	29,463500
1235,000000	29,413900
1234,000000	29,338600
1233,000000	29,256900
1232,000000	29,168600
1231,000000	29,097900
1230,000000	29,017200
1229,000000	28,943200
1228,000000	28,856200
1227,000000	28,793000
1226,000000	28,713200
1225,000000	28,609600
1224,000000	28,550700
1223,000000	28,467900
1222,000000	28,402300
1221,000000	28,308600
1220,000000	28,216900
1219,000000	28,132300
1218,000000	28,072400
1217,000000	28,018600
1216,000000	27,950300
1215,000000	27,900000
1214,000000	27,851800
1213,000000	27,795900
1212,000000	27,743300
1211,000000	27,674200
1210,000000	27,605000
1209,000000	27,558800
1208,000000	27,525900
1207,000000	27,472700
1206,000000	27,468300
1205,000000	27,428200
1204,000000	27,418400
1203,000000	27,405500
1202,000000	27,389100
1201,000000	27,372100
1200,000000	27,361900
1199,000000	27,327600
1198,000000	27,275900
1197,000000	27,224600
1196,000000	27,144400
1195,000000	27,027700
1194,000000	26,886500
1193,000000	26,704200
1192,000000	26,510600
1191,000000	26,275000
1190,000000	26,061400
1189,000000	25,880000
1188,000000	25,742200
1187,000000	25,645100
1186,000000	25,628800
1185,000000	25,629500
1184,000000	25,694000
1183,000000	25,821800
1182,000000	26,006500
1181,000000	26,164800
1180,000000	26,348800
1179,000000	26,570000
1178,000000	26,720200
1177,000000	26,875900
1176,000000	26,983200
1175,000000	27,113700
1174,000000	27,203900
1173,000000	27,341400
1172,000000	27,479900
1171,000000	27,602200
1170,000000	27,774200
1169,000000	27,907100
1168,000000	28,064600
1167,000000	28,205800
1166,000000	28,351400
1165,000000	28,520300
1164,000000	28,673200
1163,000000	28,809600
1162,000000	28,957000
1161,000000	29,111600
1160,000000	29,238000
1159,000000	29,405700
1158,000000	29,535500
1157,000000	29,653900
1156,000000	29,767000
1155,000000	29,861000
1154,000000	29,914700
1153,000000	29,934300
1152,000000	29,970400
1151,000000	29,979900
1150,000000	29,963000
1149,000000	29,976700
1148,000000	29,970400
1147,000000	29,975300
1146,000000	30,032600
1145,000000	30,106900
1144,000000	30,200200
1143,000000	30,286400
1142,000000	30,373900
1141,000000	30,469300
1140,000000	30,606000
1139,000000	30,698100
1138,000000	30,821700
1137,000000	30,930600
1136,000000	31,042800
1135,000000	31,203700
1134,000000	31,370300
1133,000000	31,455000
1132,000000	31,513400
1131,000000	31,551600
1130,000000	31,621100
1129,000000	31,717900
1128,000000	31,791200
1127,000000	31,829100
1126,000000	31,854900
1125,000000	31,881700
1124,000000	31,912600
1123,000000	31,927700
1122,000000	31,965000
1121,000000	31,974000
1120,000000	31,978300
1119,000000	31,959800
1118,000000	31,978000
1117,000000	31,960000
1116,000000	31,915300
1115,000000	31,912300
1114,000000	31,903300
1113,000000	31,887900
1112,000000	31,880500
1111,000000	31,842100
1110,000000	31,817800
1109,000000	31,804100
1108,000000	31,786200
1107,000000	31,756000
1106,000000	31,746100
1105,000000	31,730700
1104,000000	31,719900
1103,000000	31,719500
1102,000000	31,717000
1101,000000	31,686300
1100,000000	31,657900
1099,000000	31,629800
1098,000000	31,609400
1097,000000	31,558900
1096,000000	31,529600
1095,000000	31,504600
1094,000000	31,487900
1093,000000	31,475400
1092,000000	31,448900
1091,000000	31,420600
1090,000000	31,390400
1089,000000	31,336700
1088,000000	31,325900
1087,000000	31,312200
1086,000000	31,281500
1085,000000	31,250800
1084,000000	31,212900
1083,000000	31,203500
1082,000000	31,168000
1081,000000	31,115500
1080,000000	31,072000
1079,000000	31,041800
1078,000000	31,014600
1077,000000	30,986300
1076,000000	30,958300
1075,000000	30,939200
1074,000000	30,917000
1073,000000	30,879900
1072,000000	30,861100
1071,000000	30,832700
1070,000000	30,790500
1069,000000	30,752900
1068,000000	30,722600
1067,000000	30,684400
1066,000000	30,655200
1065,000000	30,625400
1064,000000	30,568100
1063,000000	30,506500
1062,000000	30,453200
1061,000000	30,420600
1060,000000	30,406800
1059,000000	30,372600
1058,000000	30,347800
1057,000000	30,317500
1056,000000	30,290400
1055,000000	30,256900
1054,000000	30,226800
1053,000000	30,193500
1052,000000	30,151600
1051,000000	30,118800
1050,000000	30,091800
1049,000000	30,071100
1048,000000	30,039200
1047,000000	30,005100
1046,000000	29,981800
1045,000000	29,958700
1044,000000	29,931300
1043,000000	29,901300
1042,000000	29,862900
1041,000000	29,815900
1040,000000	29,788700
1039,000000	29,764000
1038,000000	29,725800
1037,000000	29,689900
1036,000000	29,667900
1035,000000	29,643800
1034,000000	29,616800
1033,000000	29,591600
1032,000000	29,550800
1031,000000	29,497100
1030,000000	29,435100
1029,000000	29,386800
1028,000000	29,364200
1027,000000	29,326900
1026,000000	29,286100
1025,000000	29,256100
1024,000000	29,210900
1023,000000	29,160700
1022,000000	29,116300
1021,000000	29,087600
1020,000000	29,052100
1019,000000	28,998600
1018,000000	28,955800
1017,000000	28,927900
1016,000000	28,906600
1015,000000	28,875300
1014,000000	28,846400
1013,000000	28,824600
1012,000000	28,797000
1011,000000	28,759100
1010,000000	28,715700
1009,000000	28,680800
1008,000000	28,646400
1007,000000	28,628500
1006,000000	28,634900
1005,000000	28,629200
1004,000000	28,605800
1003,000000	28,569200
1002,000000	28,536900
1001,000000	28,531400
1000,000000	28,518000
999,000000	28,505700
998,000000	28,473000
997,000000	28,449500
996,000000	28,440800
995,000000	28,422400
994,000000	28,403100
993,000000	28,375200
992,000000	28,333600
991,000000	28,317800
990,000000	28,312700
989,000000	28,276600
988,000000	28,284500
987,000000	28,288400
986,000000	28,263100
985,000000	28,248700
984,000000	28,234400
983,000000	28,210300
982,000000	28,180300
981,000000	28,176700
980,000000	28,157700
979,000000	28,128700
978,000000	28,107000
977,000000	28,093700
976,000000	28,085800
975,000000	28,065600
974,000000	28,050300
973,000000	28,042000
972,000000	28,004000
971,000000	27,972100
970,000000	27,939100
969,000000	27,921900
968,000000	27,911200
967,000000	27,867500
966,000000	27,832900
965,000000	27,826200
964,000000	27,805800
963,000000	27,785100
962,000000	27,765900
961,000000	27,736700
960,000000	27,711200
959,000000	27,704800
958,000000	27,686600
957,000000	27,652700
956,000000	27,621900
955,000000	27,601200
954,000000	27,575800
953,000000	27,547100
952,000000	27,527400
951,000000	27,490800
950,000000	27,461600
949,000000	27,406800
948,000000	27,390800
947,000000	27,328600
946,000000	27,283500
945,000000	27,252300
944,000000	27,210300
943,000000	27,174100
942,000000	27,131100
941,000000	27,102600
940,000000	27,034200
939,000000	26,982000
938,000000	26,940200
937,000000	26,925200
936,000000	26,905400
935,000000	26,879200
934,000000	26,860200
933,000000	26,856200
932,000000	26,806200
931,000000	26,742500
930,000000	26,711900
929,000000	26,667400
928,000000	26,644500
927,000000	26,617900
926,000000	26,568900
925,000000	26,518700
924,000000	26,476300
923,000000	26,450200
922,000000	26,435000
921,000000	26,380600
920,000000	26,359400
919,000000	26,332300
918,000000	26,298300
917,000000	26,262300
916,000000	26,230600
915,000000	26,198600
914,000000	26,156800
913,000000	26,137900
912,000000	26,085900
911,000000	26,067100
910,000000	26,043500
909,000000	26,035500
908,000000	26,025100
907,000000	26,009700
906,000000	25,990800
905,000000	26,014300
904,000000	25,979700
903,000000	25,970200
902,000000	25,992600
901,000000	26,018600
900,000000	26,017100
899,000000	26,008400
898,000000	26,012100
897,000000	25,996700
896,000000	26,004100
895,000000	25,999800
894,000000	25,987800
893,000000	26,014100
892,000000	25,997700
891,000000	26,031500
890,000000	26,053400
889,000000	26,025100
888,000000	26,028400
887,000000	26,049400
886,000000	26,038500
885,000000	26,055900
884,000000	26,067900
883,000000	26,063100
882,000000	26,073500
881,000000	26,082800
880,000000	26,091700
879,000000	26,097800
878,000000	26,111800
877,000000	26,155800
876,000000	26,158100
875,000000	26,139200
874,000000	26,156400
873,000000	26,183700
872,000000	26,195600
871,000000	26,222400
870,000000	26,243000
869,000000	26,283500
868,000000	26,297700
867,000000	26,321900
866,000000	26,363000
865,000000	26,401000
864,000000	26,440000
863,000000	26,460600
862,000000	26,482500
861,000000	26,487600
860,000000	26,488000
859,000000	26,513100
858,000000	26,499900
857,000000	26,237000
856,000000	26,053600
855,000000	25,884900
854,000000	26,019200
853,000000	25,794700
852,000000	25,930100
851,000000	25,641500
850,000000	25,812800
849,000000	25,888500
848,000000	25,882900
847,000000	26,005100
846,000000	25,706500
845,000000	25,724000
844,000000	25,863700
843,000000	25,947500
842,000000	25,739300
841,000000	25,638800
840,000000	25,622100
839,000000	25,661000
838,000000	25,687100
837,000000	25,671500
836,000000	25,530900
835,000000	25,582200
834,000000	25,580900
833,000000	25,439900
832,000000	25,411100
831,000000	25,441700
830,000000	25,470800
829,000000	25,402100
828,000000	25,314000
827,000000	25,283700
826,000000	25,253100
825,000000	25,234400
824,000000	25,266700
823,000000	25,184300
822,000000	25,157700
821,000000	25,162300
820,000000	25,106900
819,000000	25,042700
818,000000	24,998300
817,000000	25,045900
816,000000	25,054300
815,000000	24,936600
814,000000	24,865200
813,000000	24,873600
812,000000	24,863400
811,000000	24,790800
810,000000	24,802400
809,000000	24,761700
808,000000	24,679800
807,000000	24,681300
806,000000	24,629500
805,000000	24,553900
804,000000	24,479900
803,000000	24,497200
802,000000	24,482400
801,000000	24,440100
800,000000	24,376100
799,000000	24,337100
798,000000	24,270900
797,000000	24,224800
796,000000	24,272400
795,000000	24,222700
794,000000	24,114800
793,000000	24,129900
792,000000	24,018800
791,000000	23,946700
790,000000	23,908700
789,000000	23,859700
788,000000	23,845100
787,000000	23,755800
786,000000	23,722700
785,000000	23,685800
784,000000	23,608800
783,000000	23,593300
782,000000	23,540800
781,000000	23,466300
780,000000	23,427400
779,000000	23,333600
778,000000	23,309200
777,000000	23,281500
776,000000	23,222900
775,000000	23,182000
774,000000	23,126800
773,000000	23,071000
772,000000	23,009800
771,000000	22,950300
770,000000	22,890400
769,000000	22,828900
768,000000	22,767000
767,000000	22,722900
766,000000	22,690200
765,000000	22,657900
764,000000	22,561400
763,000000	22,474100
762,000000	22,397800
761,000000	22,316600
760,000000	22,293500
759,000000	22,221100
758,000000	22,109900
757,000000	22,032400
756,000000	21,953900
755,000000	21,887500
754,000000	21,812800
753,000000	21,727200
752,000000	21,680700
751,000000	21,605200
750,000000	21,510600
749,000000	21,385300
748,000000	21,284200
747,000000	21,222000
746,000000	21,155200
745,000000	21,087900
744,000000	21,012900
743,000000	20,931000
742,000000	20,873200
741,000000	20,810700
740,000000	20,715400
739,000000	20,648800
738,000000	20,582800
737,000000	20,519900
736,000000	20,485400
735,000000	20,402300
734,000000	20,308500
733,000000	20,274100
732,000000	20,226200
731,000000	20,135700
730,000000	20,053800
729,000000	19,998300
728,000000	19,941600
727,000000	19,891900
726,000000	19,823300
725,000000	19,787000
724,000000	19,737000
723,000000	19,681000
722,000000	19,628800
721,000000	19,558600
720,000000	19,529400
719,000000	19,491200
718,000000	19,433600
717,000000	19,391400
716,000000	19,346700
715,000000	19,319800
714,000000	19,268600
713,000000	19,187600
712,000000	19,139900
711,000000	19,085500
710,000000	19,006500
709,000000	18,962800
708,000000	18,922900
707,000000	18,882400
706,000000	18,846000
705,000000	18,794200
704,000000	18,741300
703,000000	18,706300
702,000000	18,651400
701,000000	18,626900
700,000000	18,606100
699,000000	18,573000
698,000000	18,520500
697,000000	18,479200
696,000000	18,457700
695,000000	18,423900
694,000000	18,388100
693,000000	18,331700
692,000000	18,315800
691,000000	18,248700
690,000000	18,193700
689,000000	18,159000
688,000000	18,119000
687,000000	18,133200
686,000000	18,141400
685,000000	18,087600
684,000000	18,036600
683,000000	18,015100
682,000000	17,956300
681,000000	17,917900
680,000000	17,912400
679,000000	17,870400
678,000000	17,841700
677,000000	17,801000
676,000000	17,759400
675,000000	17,692600
674,000000	17,656800
673,000000	17,621000
672,000000	17,591600
671,000000	17,549100
670,000000	17,517800
669,000000	17,477800
668,000000	17,438900
667,000000	17,397500
666,000000	17,354100
665,000000	17,298500
664,000000	17,257400
663,000000	17,218400
662,000000	17,171800
661,000000	17,113000
660,000000	17,055600
659,000000	17,016300
658,000000	16,958500
657,000000	16,929400
656,000000	16,860500
655,000000	16,816300
654,000000	16,781400
653,000000	16,741400
652,000000	16,670500
651,000000	16,607000
650,000000	16,546600
649,000000	16,492500
648,000000	16,434400
647,000000	16,359100
646,000000	16,293300
645,000000	16,245500
644,000000	16,147100
643,000000	16,078100
642,000000	16,010000
641,000000	15,950400
640,000000	15,872300
639,000000	15,827100
638,000000	15,757900
637,000000	15,663200
636,000000	15,611900
635,000000	15,564700
634,000000	15,497700
633,000000	15,425800
632,000000	15,385700
631,000000	15,309600
630,000000	15,263300
629,000000	15,221200
628,000000	15,195200
627,000000	15,155600
626,000000	15,108400
625,000000	15,086900
624,000000	15,042800
623,000000	15,040700
622,000000	15,008800
621,000000	14,986000
620,000000	14,964500
619,000000	14,932000
618,000000	14,911300
617,000000	14,894300
616,000000	14,898900
615,000000	14,896900
614,000000	14,897700
613,000000	14,906600
612,000000	14,904600
611,000000	14,917700
610,000000	14,920900
609,000000	14,925700
608,000000	14,943300
607,000000	14,936000
606,000000	14,933700
605,000000	14,939300
604,000000	14,964400
603,000000	14,979000
602,000000	14,983800
601,000000	15,023400
600,000000	15,049800
599,000000	15,067600
598,000000	15,069000
597,000000	15,085400
596,000000	15,098100
595,000000	15,106200
594,000000	15,116600
593,000000	15,112000
592,000000	15,119200
591,000000	15,162200
590,000000	15,168000
589,000000	15,174300
588,000000	15,191300
587,000000	15,179000
586,000000	15,200100
585,000000	15,191000
584,000000	15,243800
583,000000	15,264500
582,000000	15,316000
581,000000	15,322900
580,000000	15,357500
579,000000	15,380400
578,000000	15,402900
577,000000	15,467900
576,000000	15,495500
575,000000	15,550300
574,000000	15,604800
573,000000	15,672500
572,000000	15,728900
571,000000	15,786300
570,000000	15,833300
569,000000	15,896500
568,000000	15,952200
567,000000	16,028300
566,000000	16,076200
565,000000	16,150800
564,000000	16,203500
563,000000	16,264200
562,000000	16,342400
561,000000	16,387400
560,000000	16,479500
559,000000	16,927900
558,000000	16,978800
557,000000	17,069000
556,000000	17,175300
555,000000	17,244200
554,000000	17,294300
553,000000	17,345800
552,000000	17,405700
551,000000	17,468000
550,000000	17,514700
549,000000	17,533300
548,000000	17,572100
547,000000	17,604000
546,000000	17,621700
545,000000	17,633100
544,000000	17,649700
543,000000	17,650500
542,000000	17,652200
541,000000	17,625100
540,000000	17,598900
539,000000	17,558400
538,000000	17,514400
537,000000	17,469500
536,000000	17,394200
535,000000	17,361300
534,000000	17,293600
533,000000	17,202100
532,000000	17,117800
531,000000	17,047300
530,000000	16,937000
529,000000	16,825700
528,000000	16,703900
527,000000	16,578100
526,000000	16,471400
525,000000	16,345000
524,000000	16,208600
523,000000	16,073300
522,000000	15,932700
521,000000	15,773600
520,000000	15,627000
519,000000	15,466200
518,000000	15,314700
517,000000	15,159100
516,000000	15,005400
515,000000	14,838000
514,000000	14,660300
513,000000	14,474900
512,000000	14,297600
511,000000	14,115200
510,000000	13,943100
509,000000	13,763200
508,000000	13,578700
507,000000	13,401100
506,000000	13,212000
505,000000	13,024800
504,000000	12,837400
503,000000	12,648500
502,000000	12,469900
501,000000	12,297900
500,000000	12,114200
499,000000	11,942600
498,000000	11,780400
497,000000	11,612400
496,000000	11,453900
495,000000	11,295200
494,000000	11,137700
493,000000	10,980400
492,000000	10,823900
491,000000	10,661600
490,000000	10,495900
489,000000	10,338300
488,000000	10,186400
487,000000	10,036200
486,000000	9,869900
485,000000	9,722300
484,000000	9,584000
483,000000	9,427000
482,000000	9,282100
481,000000	9,121800
480,000000	8,971500
479,000000	8,844100
478,000000	8,737400
477,000000	8,637100
476,000000	8,528800
475,000000	8,433400
474,000000	8,327100
473,000000	8,225300
472,000000	8,136400
471,000000	8,047600
470,000000	7,948400
469,000000	7,855200
468,000000	7,766300
467,000000	7,680800
466,000000	7,595500
465,000000	7,506600
464,000000	7,417400
463,000000	7,335200
462,000000	7,261000
461,000000	7,189900
460,000000	7,117800
459,000000	7,050800
458,000000	6,994200
457,000000	6,935300
456,000000	6,871500
455,000000	6,813200
454,000000	6,755800
453,000000	6,700400
452,000000	6,648400
451,000000	6,592700
450,000000	6,534500
449,000000	6,488600
448,000000	6,436200
447,000000	6,372400
446,000000	6,324300
445,000000	6,282500
444,000000	6,223900
443,000000	6,169500
442,000000	6,121300
441,000000	6,076800
440,000000	6,033100
439,000000	5,987200
438,000000	5,948600
437,000000	5,903800
436,000000	5,852100
435,000000	5,805500
434,000000	5,766400
433,000000	5,728400
432,000000	5,691200
431,000000	5,653600
430,000000	5,618200
429,000000	5,598100
428,000000	5,582400
427,000000	5,559200
426,000000	5,535800
425,000000	5,509400
424,000000	5,478400
423,000000	5,449100
422,000000	5,434500
421,000000	5,409300
420,000000	5,381400
419,000000	5,365300
418,000000	5,347100
417,000000	5,333700
416,000000	5,325300
415,000000	5,311800
414,000000	5,291500
413,000000	5,281500
412,000000	5,269100
411,000000	5,250400
410,000000	5,222900
409,000000	5,193000
408,000000	5,151000
407,000000	5,118800
406,000000	5,093000
405,000000	5,051000
404,000000	4,998500
403,000000	4,934200
402,000000	4,880900
401,000000	4,824200
400,000000	4,769300
399,000000	4,702700
398,000000	4,633700
397,000000	4,557800
396,000000	4,475500
395,000000	4,394700
394,000000	4,319700
393,000000	4,239600
392,000000	4,154300
391,000000	4,078900
390,000000	3,992700
389,000000	3,917400
388,000000	3,854300
387,000000	3,781200
386,000000	3,693000
385,000000	3,621200
384,000000	3,564000
383,000000	3,498400
382,000000	3,450500
381,000000	3,398100
380,000000	3,324800
379,000000	3,257000
378,000000	3,194400
377,000000	3,162600
376,000000	3,307800
375,000000	3,147500
374,000000	3,059800
373,000000	3,051200
372,000000	3,120000
371,000000	3,067200
370,000000	2,954700
369,000000	2,876600
368,000000	2,833900
367,000000	2,847100
366,000000	2,924900
365,000000	2,887900
364,000000	2,864600
363,000000	2,767100
362,000000	2,692500
361,000000	2,718000
360,000000	2,758500
359,000000	2,769000
358,000000	2,838400
357,000000	2,771700
356,000000	2,694700
355,000000	2,630600
354,000000	2,598900
353,000000	2,630700
352,000000	2,669700
351,000000	2,624900
350,000000	2,719500
349,000000	2,723300
348,000000	2,641700
347,000000	2,450000
346,000000	2,601300
345,000000	2,578300
344,000000	2,593400
343,000000	2,607900
342,000000	2,663400
341,000000	2,674700
340,000000	2,532000
339,000000	2,464500
338,000000	2,431600
337,000000	2,535900
336,000000	2,578300
335,000000	2,690800
334,000000	2,603900
333,000000	2,545800
332,000000	2,498900
331,000000	2,432600
330,000000	2,584800
329,000000	2,503900
328,000000	2,625300
327,000000	2,802100
326,000000	2,929100
325,000000	2,867300
324,000000	2,663400
323,000000	2,585200
322,000000	2,464000
321,000000	2,718200
320,000000	2,620900
319,000000	2,686400
318,000000	2,773800
317,000000	3,115800
316,000000	2,507300
315,000000	2,355600
314,000000	2,397300
313,000000	2,374900
312,000000	2,388200
311,000000	2,352900
310,000000	2,374300
309,000000	2,401200
308,000000	2,359800
307,000000	2,374000
306,000000	2,449600
305,000000	2,413100
304,000000	2,406900
303,000000	2,397200
302,000000	2,390000
301,000000	2,397600
300,000000	2,376400
299,000000	2,337300
298,000000	2,345100
297,000000	2,370700
296,000000	2,329800
295,000000	2,369900
294,000000	2,327400
293,000000	2,394900
292,000000	2,394200
291,000000	2,395000
290,000000	2,374200
289,000000	2,396200
288,000000	2,360400
287,000000	2,461000
286,000000	2,422600
285,000000	2,391100
284,000000	2,387400
283,000000	2,304500
282,000000	2,369200
281,000000	2,406200
280,000000	2,411600
279,000000	2,402500
278,000000	2,353400
277,000000	2,415200
276,000000	2,429700
275,000000	2,405300
274,000000	2,393000
273,000000	2,350900
272,000000	2,399400
271,000000	2,404100
270,000000	2,392400
269,000000	2,395600
268,000000	2,405400
267,000000	2,396400
266,000000	2,461000
265,000000	2,394000
264,000000	2,431700
263,000000	2,472700
262,000000	2,465600
261,000000	2,474600
260,000000	2,490600
259,000000	2,488600
258,000000	2,498100
257,000000	2,498100
256,000000	2,491700
255,000000	2,518800
254,000000	2,497500
253,000000	2,495300
252,000000	2,488900
251,000000	2,497600
250,000000	2,498700
