PE UV       SUBTECH     SPECTRUM    ASCII       PEDS        4.00        
   -1
CICIMAUCR0014-5.Sample.ASC
24/04/23
11:16:56.00
24/04/23
11:16:56.00
Vinicio Soto Monge
C. cupreomarginata
250,000000
1
Lambda 1050
1050L1511233
PerkinElmer UV WinLab 6.3.2.0749 / 2.02.05 Lambda 900 UV/VIS/NIR, Aug  7 2015 09:38:08

0
0
3350/servo 860,8/2
0
0
UV/VIS
1
1
1
DoubleDePol,CommonBeamDepol,RBeamAtt,SBeamAtt,60mm sphere, WB InGaAs Detector
0
0
0
0
Program
Program
3350/servo 860,8/2
3350/0,2 860,8/0,2
3350/0,2 860,8/0,2
0
15.00
 
 
 
0
 
860,8
319,2
860,8
Front
100
on
S:100 R:100
0
0
0
0
 
0
 
 
 
0
 
 
0
0
0
0
0
 
 
 
 
0
0


0
0
#HDR
-1
-1
#GR
nm
%R
1.0
0.0
2500,000000
-1,000000
2251
8
75,082300
5,658100
#DATA
2500,000000	7,994600
2499,000000	8,007400
2498,000000	7,890200
2497,000000	7,918800
2496,000000	7,934700
2495,000000	7,993100
2494,000000	7,822200
2493,000000	7,854200
2492,000000	7,886000
2491,000000	7,819500
2490,000000	7,829400
2489,000000	7,817000
2488,000000	7,734500
2487,000000	7,801800
2486,000000	7,719100
2485,000000	7,821400
2484,000000	7,776000
2483,000000	7,821400
2482,000000	7,776500
2481,000000	7,830800
2480,000000	7,751200
2479,000000	7,796400
2478,000000	7,765400
2477,000000	7,812900
2476,000000	7,809000
2475,000000	7,822300
2474,000000	7,842400
2473,000000	7,850300
2472,000000	7,851700
2471,000000	7,836500
2470,000000	7,869800
2469,000000	7,904600
2468,000000	7,889300
2467,000000	7,898800
2466,000000	7,916200
2465,000000	7,957600
2464,000000	7,949200
2463,000000	8,028500
2462,000000	8,051900
2461,000000	8,073000
2460,000000	8,127500
2459,000000	8,106600
2458,000000	8,214200
2457,000000	8,257200
2456,000000	8,261100
2455,000000	8,334200
2454,000000	8,403500
2453,000000	8,445000
2452,000000	8,508900
2451,000000	8,583400
2450,000000	8,653600
2449,000000	8,710200
2448,000000	8,784500
2447,000000	8,828600
2446,000000	8,906700
2445,000000	8,992300
2444,000000	9,035900
2443,000000	9,109300
2442,000000	9,181500
2441,000000	9,235700
2440,000000	9,297700
2439,000000	9,359500
2438,000000	9,423900
2437,000000	9,472200
2436,000000	9,547600
2435,000000	9,606000
2434,000000	9,641900
2433,000000	9,706600
2432,000000	9,763500
2431,000000	9,806800
2430,000000	9,870200
2429,000000	9,912200
2428,000000	9,947000
2427,000000	9,990100
2426,000000	10,038600
2425,000000	10,085300
2424,000000	10,125100
2423,000000	10,149200
2422,000000	10,183900
2421,000000	10,228800
2420,000000	10,257300
2419,000000	10,290500
2418,000000	10,322200
2417,000000	10,346300
2416,000000	10,371000
2415,000000	10,405800
2414,000000	10,424200
2413,000000	10,447000
2412,000000	10,478800
2411,000000	10,522200
2410,000000	10,551600
2409,000000	10,581200
2408,000000	10,634200
2407,000000	10,644500
2406,000000	10,670700
2405,000000	10,696800
2404,000000	10,724200
2403,000000	10,763400
2402,000000	10,809400
2401,000000	10,832100
2400,000000	10,850500
2399,000000	10,888300
2398,000000	10,920600
2397,000000	10,956200
2396,000000	10,997500
2395,000000	11,035000
2394,000000	11,068000
2393,000000	11,098100
2392,000000	11,127700
2391,000000	11,170800
2390,000000	11,195600
2389,000000	11,220300
2388,000000	11,233600
2387,000000	11,248500
2386,000000	11,255300
2385,000000	11,281700
2384,000000	11,302900
2383,000000	11,307200
2382,000000	11,326800
2381,000000	11,321200
2380,000000	11,313700
2379,000000	11,323400
2378,000000	11,325700
2377,000000	11,322100
2376,000000	11,324600
2375,000000	11,320000
2374,000000	11,299700
2373,000000	11,288900
2372,000000	11,278700
2371,000000	11,275400
2370,000000	11,266900
2369,000000	11,255500
2368,000000	11,240300
2367,000000	11,195500
2366,000000	11,157400
2365,000000	11,142600
2364,000000	11,103000
2363,000000	11,046900
2362,000000	11,019400
2361,000000	10,984100
2360,000000	10,931400
2359,000000	10,888700
2358,000000	10,860600
2357,000000	10,830300
2356,000000	10,812300
2355,000000	10,791600
2354,000000	10,784700
2353,000000	10,786200
2352,000000	10,773900
2351,000000	10,789000
2350,000000	10,821400
2349,000000	10,853400
2348,000000	10,922100
2347,000000	10,972100
2346,000000	11,014500
2345,000000	11,060200
2344,000000	11,119100
2343,000000	11,173800
2342,000000	11,217200
2341,000000	11,269300
2340,000000	11,336400
2339,000000	11,373300
2338,000000	11,392200
2337,000000	11,408000
2336,000000	11,429600
2335,000000	11,426200
2334,000000	11,443100
2333,000000	11,432100
2332,000000	11,411200
2331,000000	11,401600
2330,000000	11,374800
2329,000000	11,348900
2328,000000	11,304700
2327,000000	11,245600
2326,000000	11,205900
2325,000000	11,163500
2324,000000	11,109000
2323,000000	11,043700
2322,000000	10,969600
2321,000000	10,887200
2320,000000	10,798200
2319,000000	10,716300
2318,000000	10,631600
2317,000000	10,544300
2316,000000	10,456800
2315,000000	10,375800
2314,000000	10,284200
2313,000000	10,198200
2312,000000	10,110800
2311,000000	10,038000
2310,000000	9,990300
2309,000000	9,938400
2308,000000	9,910700
2307,000000	9,896500
2306,000000	9,884300
2305,000000	9,905400
2304,000000	9,937800
2303,000000	9,970300
2302,000000	10,023700
2301,000000	10,122000
2300,000000	10,196900
2299,000000	10,266500
2298,000000	10,375100
2297,000000	10,468200
2296,000000	10,548100
2295,000000	10,660700
2294,000000	10,744100
2293,000000	10,794200
2292,000000	10,862000
2291,000000	10,922600
2290,000000	10,959700
2289,000000	10,995800
2288,000000	11,004000
2287,000000	10,993700
2286,000000	10,990400
2285,000000	10,968100
2284,000000	10,950600
2283,000000	10,920600
2282,000000	10,886400
2281,000000	10,834400
2280,000000	10,798100
2279,000000	10,744600
2278,000000	10,700100
2277,000000	10,666600
2276,000000	10,631700
2275,000000	10,603600
2274,000000	10,582300
2273,000000	10,563300
2272,000000	10,556900
2271,000000	10,553100
2270,000000	10,601500
2269,000000	10,617500
2268,000000	10,679600
2267,000000	10,759300
2266,000000	10,848500
2265,000000	10,954400
2264,000000	11,095600
2263,000000	11,279900
2262,000000	11,438100
2261,000000	11,636500
2260,000000	11,846900
2259,000000	12,102000
2258,000000	12,315500
2257,000000	12,563000
2256,000000	12,793900
2255,000000	13,070000
2254,000000	13,304900
2253,000000	13,523300
2252,000000	13,759700
2251,000000	13,974200
2250,000000	14,231600
2249,000000	14,395200
2248,000000	14,578700
2247,000000	14,750000
2246,000000	14,939500
2245,000000	15,072400
2244,000000	15,210700
2243,000000	15,327900
2242,000000	15,465100
2241,000000	15,593300
2240,000000	15,683700
2239,000000	15,780700
2238,000000	15,892800
2237,000000	15,936600
2236,000000	16,045700
2235,000000	16,096800
2234,000000	16,152300
2233,000000	16,186500
2232,000000	16,248100
2231,000000	16,290400
2230,000000	16,301400
2229,000000	16,360100
2228,000000	16,388000
2227,000000	16,393300
2226,000000	16,366000
2225,000000	16,377500
2224,000000	16,370800
2223,000000	16,368400
2222,000000	16,356600
2221,000000	16,327000
2220,000000	16,314200
2219,000000	16,302500
2218,000000	16,274800
2217,000000	16,266000
2216,000000	16,210800
2215,000000	16,194500
2214,000000	16,163700
2213,000000	16,125500
2212,000000	16,098000
2211,000000	16,073600
2210,000000	16,042200
2209,000000	16,019000
2208,000000	15,993800
2207,000000	15,990100
2206,000000	15,958000
2205,000000	15,957400
2204,000000	15,949400
2203,000000	15,930000
2202,000000	15,894400
2201,000000	15,878600
2200,000000	15,879700
2199,000000	15,870800
2198,000000	15,860500
2197,000000	15,822000
2196,000000	15,830500
2195,000000	15,833900
2194,000000	15,798700
2193,000000	15,778200
2192,000000	15,778200
2191,000000	15,763200
2190,000000	15,741400
2189,000000	15,741200
2188,000000	15,731600
2187,000000	15,707000
2186,000000	15,690600
2185,000000	15,680000
2184,000000	15,654200
2183,000000	15,622700
2182,000000	15,604400
2181,000000	15,589500
2180,000000	15,580200
2179,000000	15,566200
2178,000000	15,558100
2177,000000	15,538000
2176,000000	15,532100
2175,000000	15,525800
2174,000000	15,520600
2173,000000	15,510000
2172,000000	15,488200
2171,000000	15,496800
2170,000000	15,519800
2169,000000	15,534100
2168,000000	15,532200
2167,000000	15,543600
2166,000000	15,562300
2165,000000	15,579900
2164,000000	15,610600
2163,000000	15,606700
2162,000000	15,619500
2161,000000	15,645800
2160,000000	15,676400
2159,000000	15,698900
2158,000000	15,712400
2157,000000	15,751600
2156,000000	15,796300
2155,000000	15,818000
2154,000000	15,859600
2153,000000	15,903500
2152,000000	15,925700
2151,000000	15,946100
2150,000000	15,986700
2149,000000	16,038700
2148,000000	16,084000
2147,000000	16,104900
2146,000000	16,137700
2145,000000	16,173400
2144,000000	16,211300
2143,000000	16,249600
2142,000000	16,273500
2141,000000	16,292400
2140,000000	16,315400
2139,000000	16,343200
2138,000000	16,376800
2137,000000	16,403800
2136,000000	16,438200
2135,000000	16,446800
2134,000000	16,446200
2133,000000	16,472000
2132,000000	16,489300
2131,000000	16,508500
2130,000000	16,517600
2129,000000	16,514400
2128,000000	16,517000
2127,000000	16,529700
2126,000000	16,521200
2125,000000	16,507800
2124,000000	16,498600
2123,000000	16,489500
2122,000000	16,483700
2121,000000	16,465100
2120,000000	16,439900
2119,000000	16,422100
2118,000000	16,404900
2117,000000	16,392100
2116,000000	16,367100
2115,000000	16,337200
2114,000000	16,317400
2113,000000	16,298100
2112,000000	16,281900
2111,000000	16,250000
2110,000000	16,212100
2109,000000	16,193000
2108,000000	16,165500
2107,000000	16,138800
2106,000000	16,107800
2105,000000	16,072400
2104,000000	16,049100
2103,000000	16,017300
2102,000000	15,990900
2101,000000	15,963600
2100,000000	15,927000
2099,000000	15,891700
2098,000000	15,875200
2097,000000	15,871100
2096,000000	15,835100
2095,000000	15,796500
2094,000000	15,776200
2093,000000	15,746300
2092,000000	15,731500
2091,000000	15,726300
2090,000000	15,694200
2089,000000	15,668600
2088,000000	15,638000
2087,000000	15,601100
2086,000000	15,585200
2085,000000	15,565100
2084,000000	15,532100
2083,000000	15,503400
2082,000000	15,483600
2081,000000	15,447500
2080,000000	15,406200
2079,000000	15,373200
2078,000000	15,343800
2077,000000	15,313800
2076,000000	15,274800
2075,000000	15,236000
2074,000000	15,207100
2073,000000	15,158500
2072,000000	15,110100
2071,000000	15,064100
2070,000000	15,023400
2069,000000	14,993300
2068,000000	14,951900
2067,000000	14,914000
2066,000000	14,880500
2065,000000	14,852800
2064,000000	14,811900
2063,000000	14,774700
2062,000000	14,742300
2061,000000	14,720600
2060,000000	14,703500
2059,000000	14,669500
2058,000000	14,670500
2057,000000	14,672500
2056,000000	14,669800
2055,000000	14,666300
2054,000000	14,690400
2053,000000	14,721000
2052,000000	14,741800
2051,000000	14,798200
2050,000000	14,847600
2049,000000	14,905200
2048,000000	14,975200
2047,000000	15,038200
2046,000000	15,122600
2045,000000	15,214600
2044,000000	15,284600
2043,000000	15,380800
2042,000000	15,458300
2041,000000	15,544100
2040,000000	15,597800
2039,000000	15,685800
2038,000000	15,760000
2037,000000	15,828400
2036,000000	15,897500
2035,000000	15,966500
2034,000000	16,024000
2033,000000	16,081900
2032,000000	16,155900
2031,000000	16,196400
2030,000000	16,233100
2029,000000	16,256900
2028,000000	16,305800
2027,000000	16,335100
2026,000000	16,365100
2025,000000	16,394700
2024,000000	16,422800
2023,000000	16,451300
2022,000000	16,482200
2021,000000	16,476900
2020,000000	16,475900
2019,000000	16,511900
2018,000000	16,525400
2017,000000	16,517500
2016,000000	16,521900
2015,000000	16,523200
2014,000000	16,506900
2013,000000	16,515800
2012,000000	16,511100
2011,000000	16,478000
2010,000000	16,463400
2009,000000	16,433800
2008,000000	16,408500
2007,000000	16,392400
2006,000000	16,347400
2005,000000	16,301200
2004,000000	16,274700
2003,000000	16,221100
2002,000000	16,167800
2001,000000	16,134800
2000,000000	16,079900
1999,000000	16,009000
1998,000000	15,955800
1997,000000	15,907100
1996,000000	15,854500
1995,000000	15,777500
1994,000000	15,697900
1993,000000	15,620000
1992,000000	15,563100
1991,000000	15,484800
1990,000000	15,420700
1989,000000	15,333800
1988,000000	15,269100
1987,000000	15,180800
1986,000000	15,099300
1985,000000	15,023600
1984,000000	14,917300
1983,000000	14,850700
1982,000000	14,768000
1981,000000	14,699300
1980,000000	14,611000
1979,000000	14,508800
1978,000000	14,428700
1977,000000	14,343400
1976,000000	14,289000
1975,000000	14,185700
1974,000000	14,116800
1973,000000	14,007400
1972,000000	13,957000
1971,000000	13,881100
1970,000000	13,790000
1969,000000	13,728000
1968,000000	13,638300
1967,000000	13,560400
1966,000000	13,502000
1965,000000	13,419900
1964,000000	13,365900
1963,000000	13,295900
1962,000000	13,225200
1961,000000	13,140200
1960,000000	13,077100
1959,000000	13,026400
1958,000000	12,938600
1957,000000	12,871800
1956,000000	12,822800
1955,000000	12,754700
1954,000000	12,674600
1953,000000	12,603500
1952,000000	12,558600
1951,000000	12,517200
1950,000000	12,468200
1949,000000	12,423600
1948,000000	12,369900
1947,000000	12,330800
1946,000000	12,272200
1945,000000	12,233700
1944,000000	12,196000
1943,000000	12,167500
1942,000000	12,149300
1941,000000	12,152100
1940,000000	12,133400
1939,000000	12,125900
1938,000000	12,098200
1937,000000	12,098000
1936,000000	12,101700
1935,000000	12,121500
1934,000000	12,134500
1933,000000	12,184600
1932,000000	12,243500
1931,000000	12,292100
1930,000000	12,342600
1929,000000	12,392500
1928,000000	12,465800
1927,000000	12,529300
1926,000000	12,603300
1925,000000	12,724300
1924,000000	12,825800
1923,000000	12,952100
1922,000000	13,055800
1921,000000	13,196800
1920,000000	13,312300
1919,000000	13,442500
1918,000000	13,610000
1917,000000	13,779000
1916,000000	13,952400
1915,000000	14,131900
1914,000000	14,324500
1913,000000	14,491300
1912,000000	14,676700
1911,000000	14,888200
1910,000000	15,093200
1909,000000	15,325900
1908,000000	15,565200
1907,000000	15,809400
1906,000000	16,070200
1905,000000	16,350000
1904,000000	16,608100
1903,000000	16,881500
1902,000000	17,199800
1901,000000	17,503000
1900,000000	17,813500
1899,000000	18,138100
1898,000000	18,477600
1897,000000	18,848900
1896,000000	19,202100
1895,000000	19,567700
1894,000000	19,963900
1893,000000	20,364500
1892,000000	20,832900
1891,000000	21,264200
1890,000000	21,678000
1889,000000	22,150100
1888,000000	22,655700
1887,000000	23,144100
1886,000000	23,646200
1885,000000	24,206600
1884,000000	24,785100
1883,000000	25,387100
1882,000000	25,972800
1881,000000	26,566000
1880,000000	27,117700
1879,000000	27,655300
1878,000000	28,192200
1877,000000	28,702700
1876,000000	29,173300
1875,000000	29,628800
1874,000000	30,066100
1873,000000	30,491600
1872,000000	30,863800
1871,000000	31,191100
1870,000000	31,493900
1869,000000	31,794400
1868,000000	32,019300
1867,000000	32,214200
1866,000000	32,371700
1865,000000	32,519300
1864,000000	32,651100
1863,000000	32,792900
1862,000000	32,920500
1861,000000	33,033500
1860,000000	33,142900
1859,000000	33,227600
1858,000000	33,301100
1857,000000	33,357400
1856,000000	33,373100
1855,000000	33,405900
1854,000000	33,429600
1853,000000	33,397200
1852,000000	33,390000
1851,000000	33,391300
1850,000000	33,398300
1849,000000	33,391500
1848,000000	33,355800
1847,000000	33,310000
1846,000000	33,240800
1845,000000	33,174600
1844,000000	33,130300
1843,000000	33,134900
1842,000000	33,150300
1841,000000	33,132600
1840,000000	33,086600
1839,000000	33,050300
1838,000000	33,013900
1837,000000	32,960200
1836,000000	32,904700
1835,000000	32,839300
1834,000000	32,753100
1833,000000	32,680300
1832,000000	32,619900
1831,000000	32,554900
1830,000000	32,486100
1829,000000	32,410600
1828,000000	32,322400
1827,000000	32,250400
1826,000000	32,179100
1825,000000	32,118300
1824,000000	32,070900
1823,000000	32,041300
1822,000000	32,027300
1821,000000	32,009100
1820,000000	31,984400
1819,000000	31,944000
1818,000000	31,899800
1817,000000	31,882100
1816,000000	31,887700
1815,000000	31,872200
1814,000000	31,850600
1813,000000	31,835800
1812,000000	31,812200
1811,000000	31,765200
1810,000000	31,711400
1809,000000	31,673400
1808,000000	31,653700
1807,000000	31,621800
1806,000000	31,569500
1805,000000	31,505600
1804,000000	31,445900
1803,000000	31,408400
1802,000000	31,370800
1801,000000	31,326200
1800,000000	31,264400
1799,000000	31,200900
1798,000000	31,152400
1797,000000	31,109100
1796,000000	31,071200
1795,000000	31,014100
1794,000000	30,970900
1793,000000	30,923100
1792,000000	30,864600
1791,000000	30,811300
1790,000000	30,748600
1789,000000	30,697900
1788,000000	30,633200
1787,000000	30,581100
1786,000000	30,515100
1785,000000	30,440000
1784,000000	30,372400
1783,000000	30,312900
1782,000000	30,225800
1781,000000	30,149500
1780,000000	30,066600
1779,000000	30,000100
1778,000000	29,911300
1777,000000	29,810900
1776,000000	29,731000
1775,000000	29,629700
1774,000000	29,517000
1773,000000	29,393400
1772,000000	29,268800
1771,000000	29,160500
1770,000000	29,032100
1769,000000	28,919200
1768,000000	28,822300
1767,000000	28,722900
1766,000000	28,629900
1765,000000	28,572000
1764,000000	28,543200
1763,000000	28,515200
1762,000000	28,550600
1761,000000	28,579700
1760,000000	28,639100
1759,000000	28,703200
1758,000000	28,764000
1757,000000	28,809100
1756,000000	28,879500
1755,000000	28,913400
1754,000000	28,919600
1753,000000	28,924900
1752,000000	28,913500
1751,000000	28,897400
1750,000000	28,863500
1749,000000	28,802200
1748,000000	28,736500
1747,000000	28,650500
1746,000000	28,541100
1745,000000	28,427900
1744,000000	28,279700
1743,000000	28,122700
1742,000000	27,934200
1741,000000	27,724700
1740,000000	27,516200
1739,000000	27,324700
1738,000000	27,144000
1737,000000	26,951100
1736,000000	26,839600
1735,000000	26,777000
1734,000000	26,719100
1733,000000	26,720900
1732,000000	26,765900
1731,000000	26,850900
1730,000000	26,936700
1729,000000	27,058400
1728,000000	27,152100
1727,000000	27,265600
1726,000000	27,359500
1725,000000	27,448800
1724,000000	27,502800
1723,000000	27,552500
1722,000000	27,590900
1721,000000	27,631500
1720,000000	27,654600
1719,000000	27,719700
1718,000000	27,762500
1717,000000	27,824800
1716,000000	27,897500
1715,000000	27,970400
1714,000000	28,050300
1713,000000	28,107300
1712,000000	28,181900
1711,000000	28,214200
1710,000000	28,226800
1709,000000	28,239900
1708,000000	28,223300
1707,000000	28,199700
1706,000000	28,176300
1705,000000	28,110700
1704,000000	28,043700
1703,000000	27,952400
1702,000000	27,857600
1701,000000	27,707700
1700,000000	27,562100
1699,000000	27,415400
1698,000000	27,259300
1697,000000	27,159700
1696,000000	27,092700
1695,000000	27,064800
1694,000000	27,133700
1693,000000	27,231900
1692,000000	27,367200
1691,000000	27,516400
1690,000000	27,664200
1689,000000	27,805800
1688,000000	27,868400
1687,000000	27,912800
1686,000000	27,946000
1685,000000	27,997300
1684,000000	28,142500
1683,000000	28,349800
1682,000000	28,709200
1681,000000	29,117400
1680,000000	29,596300
1679,000000	30,122300
1678,000000	30,680700
1677,000000	31,140800
1676,000000	31,564900
1675,000000	31,958000
1674,000000	32,295600
1673,000000	32,590400
1672,000000	32,849100
1671,000000	33,085000
1670,000000	33,291300
1669,000000	33,447200
1668,000000	33,623000
1667,000000	33,773500
1666,000000	33,855600
1665,000000	33,958300
1664,000000	34,036500
1663,000000	34,115900
1662,000000	34,180900
1661,000000	34,246900
1660,000000	34,287900
1659,000000	34,336400
1658,000000	34,342200
1657,000000	34,349300
1656,000000	34,352100
1655,000000	34,354400
1654,000000	34,348500
1653,000000	34,349000
1652,000000	34,318600
1651,000000	34,309000
1650,000000	34,238500
1649,000000	34,204700
1648,000000	34,165000
1647,000000	34,112400
1646,000000	34,064400
1645,000000	33,991600
1644,000000	33,927000
1643,000000	33,885400
1642,000000	33,817800
1641,000000	33,756400
1640,000000	33,688600
1639,000000	33,614500
1638,000000	33,544200
1637,000000	33,476500
1636,000000	33,418600
1635,000000	33,333800
1634,000000	33,246900
1633,000000	33,174400
1632,000000	33,087700
1631,000000	33,001000
1630,000000	32,929200
1629,000000	32,823800
1628,000000	32,726100
1627,000000	32,632400
1626,000000	32,556800
1625,000000	32,474900
1624,000000	32,374800
1623,000000	32,287600
1622,000000	32,219300
1621,000000	32,122200
1620,000000	32,039800
1619,000000	31,963800
1618,000000	31,882400
1617,000000	31,815400
1616,000000	31,728400
1615,000000	31,642700
1614,000000	31,553700
1613,000000	31,473300
1612,000000	31,389000
1611,000000	31,322200
1610,000000	31,252600
1609,000000	31,163400
1608,000000	31,085800
1607,000000	31,006700
1606,000000	30,927000
1605,000000	30,847500
1604,000000	30,775400
1603,000000	30,684000
1602,000000	30,599900
1601,000000	30,534200
1600,000000	30,461600
1599,000000	30,390400
1598,000000	30,300700
1597,000000	30,215600
1596,000000	30,150600
1595,000000	30,078000
1594,000000	30,014000
1593,000000	29,962200
1592,000000	29,901100
1591,000000	29,832800
1590,000000	29,773000
1589,000000	29,720400
1588,000000	29,667900
1587,000000	29,616200
1586,000000	29,562700
1585,000000	29,509000
1584,000000	29,461400
1583,000000	29,418200
1582,000000	29,376800
1581,000000	29,343500
1580,000000	29,308500
1579,000000	29,274600
1578,000000	29,251500
1577,000000	29,237500
1576,000000	29,214200
1575,000000	29,191000
1574,000000	29,181000
1573,000000	29,175400
1572,000000	29,163800
1571,000000	29,155000
1570,000000	29,157500
1569,000000	29,154100
1568,000000	29,150200
1567,000000	29,154500
1566,000000	29,153300
1565,000000	29,167000
1564,000000	29,173100
1563,000000	29,175300
1562,000000	29,174100
1561,000000	29,175600
1560,000000	29,162100
1559,000000	29,138000
1558,000000	29,123900
1557,000000	29,105700
1556,000000	29,098600
1555,000000	29,084300
1554,000000	29,060500
1553,000000	29,024500
1552,000000	28,984600
1551,000000	28,954500
1550,000000	28,913000
1549,000000	28,882300
1548,000000	28,854100
1547,000000	28,808300
1546,000000	28,775900
1545,000000	28,745300
1544,000000	28,705300
1543,000000	28,694000
1542,000000	28,670900
1541,000000	28,636800
1540,000000	28,610400
1539,000000	28,577800
1538,000000	28,554700
1537,000000	28,526300
1536,000000	28,486900
1535,000000	28,462600
1534,000000	28,431900
1533,000000	28,398400
1532,000000	28,364100
1531,000000	28,323200
1530,000000	28,276300
1529,000000	28,241800
1528,000000	28,197200
1527,000000	28,152700
1526,000000	28,098800
1525,000000	28,045400
1524,000000	27,996400
1523,000000	27,948600
1522,000000	27,905700
1521,000000	27,854300
1520,000000	27,802400
1519,000000	27,730800
1518,000000	27,689300
1517,000000	27,648000
1516,000000	27,577600
1515,000000	27,514900
1514,000000	27,474900
1513,000000	27,412700
1512,000000	27,347900
1511,000000	27,288000
1510,000000	27,235400
1509,000000	27,195100
1508,000000	27,138300
1507,000000	27,084700
1506,000000	27,016500
1505,000000	26,943500
1504,000000	26,883500
1503,000000	26,828500
1502,000000	26,792600
1501,000000	26,757100
1500,000000	26,690300
1499,000000	26,644300
1498,000000	26,609200
1497,000000	26,573800
1496,000000	26,528300
1495,000000	26,488400
1494,000000	26,451800
1493,000000	26,433400
1492,000000	26,396400
1491,000000	26,378600
1490,000000	26,364300
1489,000000	26,335800
1488,000000	26,326000
1487,000000	26,292100
1486,000000	26,281000
1485,000000	26,248400
1484,000000	26,232500
1483,000000	26,225800
1482,000000	26,208500
1481,000000	26,203700
1480,000000	26,201300
1479,000000	26,195900
1478,000000	26,205700
1477,000000	26,201500
1476,000000	26,191100
1475,000000	26,229800
1474,000000	26,231000
1473,000000	26,239700
1472,000000	26,261100
1471,000000	26,284800
1470,000000	26,274100
1469,000000	26,268700
1468,000000	26,288500
1467,000000	26,322400
1466,000000	26,341900
1465,000000	26,368500
1464,000000	26,404500
1463,000000	26,459600
1462,000000	26,508700
1461,000000	26,552100
1460,000000	26,593900
1459,000000	26,642300
1458,000000	26,724000
1457,000000	26,806700
1456,000000	26,874300
1455,000000	26,972900
1454,000000	27,053600
1453,000000	27,142600
1452,000000	27,271700
1451,000000	27,376600
1450,000000	27,466400
1449,000000	27,540400
1448,000000	27,665300
1447,000000	27,811000
1446,000000	27,939300
1445,000000	28,032900
1444,000000	28,136600
1443,000000	28,273500
1442,000000	28,410300
1441,000000	28,546700
1440,000000	28,689900
1439,000000	28,810200
1438,000000	28,970300
1437,000000	29,097400
1436,000000	29,244100
1435,000000	29,386300
1434,000000	29,563500
1433,000000	29,723300
1432,000000	29,862500
1431,000000	30,029500
1430,000000	30,194900
1429,000000	30,424700
1428,000000	30,613400
1427,000000	30,839400
1426,000000	31,086900
1425,000000	31,326900
1424,000000	31,578600
1423,000000	31,830300
1422,000000	32,084800
1421,000000	32,375100
1420,000000	32,668700
1419,000000	32,973000
1418,000000	33,218800
1417,000000	33,452300
1416,000000	33,786700
1415,000000	34,104900
1414,000000	34,411200
1413,000000	34,700000
1412,000000	34,971000
1411,000000	35,329400
1410,000000	35,713200
1409,000000	36,139200
1408,000000	36,544100
1407,000000	36,954500
1406,000000	37,377300
1405,000000	37,829800
1404,000000	38,254100
1403,000000	38,705800
1402,000000	39,150300
1401,000000	39,671300
1400,000000	40,084800
1399,000000	40,402600
1398,000000	40,697300
1397,000000	41,065000
1396,000000	41,491400
1395,000000	41,796500
1394,000000	42,024300
1393,000000	42,286600
1392,000000	42,639800
1391,000000	42,934000
1390,000000	43,229900
1389,000000	43,634500
1388,000000	44,040300
1387,000000	44,430900
1386,000000	44,836500
1385,000000	45,324800
1384,000000	45,778100
1383,000000	46,177900
1382,000000	46,544800
1381,000000	46,827400
1380,000000	46,982100
1379,000000	47,138600
1378,000000	47,269400
1377,000000	47,420800
1376,000000	47,573100
1375,000000	47,797800
1374,000000	48,087400
1373,000000	48,423300
1372,000000	48,735600
1371,000000	49,083800
1370,000000	49,384000
1369,000000	49,668700
1368,000000	49,946700
1367,000000	50,194200
1366,000000	50,390800
1365,000000	50,624000
1364,000000	50,789100
1363,000000	50,977500
1362,000000	51,157300
1361,000000	51,271900
1360,000000	51,306000
1359,000000	51,386100
1358,000000	51,512600
1357,000000	51,704600
1356,000000	52,010400
1355,000000	52,400200
1354,000000	52,817000
1353,000000	53,222400
1352,000000	53,755700
1351,000000	54,239300
1350,000000	54,678600
1349,000000	55,070900
1348,000000	55,451500
1347,000000	55,801600
1346,000000	56,098900
1345,000000	56,428300
1344,000000	56,720100
1343,000000	56,997900
1342,000000	57,280000
1341,000000	57,543300
1340,000000	57,779600
1339,000000	58,020200
1338,000000	58,251400
1337,000000	58,467200
1336,000000	58,682500
1335,000000	58,882400
1334,000000	59,083500
1333,000000	59,268200
1332,000000	59,448600
1331,000000	59,608100
1330,000000	59,766700
1329,000000	59,920000
1328,000000	60,068200
1327,000000	60,213200
1326,000000	60,327400
1325,000000	60,453000
1324,000000	60,572500
1323,000000	60,690700
1322,000000	60,802200
1321,000000	60,908100
1320,000000	61,007000
1319,000000	61,096600
1318,000000	61,184400
1317,000000	61,270900
1316,000000	61,353600
1315,000000	61,428400
1314,000000	61,513200
1313,000000	61,577300
1312,000000	61,636600
1311,000000	61,715200
1310,000000	61,779400
1309,000000	61,837000
1308,000000	61,891000
1307,000000	61,927300
1306,000000	61,948800
1305,000000	61,989600
1304,000000	62,012600
1303,000000	62,024000
1302,000000	62,046400
1301,000000	62,064600
1300,000000	62,068400
1299,000000	62,070100
1298,000000	62,062200
1297,000000	62,060800
1296,000000	62,057000
1295,000000	62,044600
1294,000000	62,055300
1293,000000	62,043500
1292,000000	62,019300
1291,000000	61,994000
1290,000000	61,967200
1289,000000	61,933300
1288,000000	61,903300
1287,000000	61,873100
1286,000000	61,822400
1285,000000	61,761700
1284,000000	61,707700
1283,000000	61,649700
1282,000000	61,596900
1281,000000	61,545700
1280,000000	61,488500
1279,000000	61,448600
1278,000000	61,401900
1277,000000	61,358200
1276,000000	61,327200
1275,000000	61,297300
1274,000000	61,265400
1273,000000	61,227100
1272,000000	61,200700
1271,000000	61,185500
1270,000000	61,156900
1269,000000	61,122500
1268,000000	61,098700
1267,000000	61,062200
1266,000000	61,027500
1265,000000	61,003600
1264,000000	60,975600
1263,000000	60,945900
1262,000000	60,908200
1261,000000	60,867600
1260,000000	60,820600
1259,000000	60,783500
1258,000000	60,747500
1257,000000	60,695300
1256,000000	60,654600
1255,000000	60,609300
1254,000000	60,551500
1253,000000	60,482700
1252,000000	60,404300
1251,000000	60,339200
1250,000000	60,278100
1249,000000	60,194200
1248,000000	60,089800
1247,000000	59,995300
1246,000000	59,903000
1245,000000	59,785200
1244,000000	59,681300
1243,000000	59,572200
1242,000000	59,443800
1241,000000	59,318900
1240,000000	59,192900
1239,000000	59,045200
1238,000000	58,922900
1237,000000	58,797300
1236,000000	58,651400
1235,000000	58,509500
1234,000000	58,382900
1233,000000	58,239600
1232,000000	58,088700
1231,000000	57,948700
1230,000000	57,808200
1229,000000	57,651300
1228,000000	57,497700
1227,000000	57,355800
1226,000000	57,197100
1225,000000	57,025900
1224,000000	56,882000
1223,000000	56,737500
1222,000000	56,580800
1221,000000	56,434900
1220,000000	56,308100
1219,000000	56,173700
1218,000000	56,039700
1217,000000	55,896800
1216,000000	55,788200
1215,000000	55,670600
1214,000000	55,564900
1213,000000	55,462900
1212,000000	55,340400
1211,000000	55,233300
1210,000000	55,141800
1209,000000	55,050500
1208,000000	54,963000
1207,000000	54,872000
1206,000000	54,834000
1205,000000	54,780100
1204,000000	54,741800
1203,000000	54,717400
1202,000000	54,690500
1201,000000	54,636700
1200,000000	54,578100
1199,000000	54,494200
1198,000000	54,390800
1197,000000	54,243300
1196,000000	54,075400
1195,000000	53,870300
1194,000000	53,562000
1193,000000	53,243200
1192,000000	52,864400
1191,000000	52,453000
1190,000000	52,132400
1189,000000	51,816200
1188,000000	51,601500
1187,000000	51,501900
1186,000000	51,490000
1185,000000	51,607000
1184,000000	51,819600
1183,000000	52,144200
1182,000000	52,562600
1181,000000	53,000300
1180,000000	53,433700
1179,000000	53,840700
1178,000000	54,228500
1177,000000	54,545600
1176,000000	54,856500
1175,000000	55,119700
1174,000000	55,404300
1173,000000	55,693000
1172,000000	55,975400
1171,000000	56,305300
1170,000000	56,608600
1169,000000	56,935800
1168,000000	57,250900
1167,000000	57,573400
1166,000000	57,916700
1165,000000	58,227500
1164,000000	58,569300
1163,000000	58,912200
1162,000000	59,232600
1161,000000	59,564200
1160,000000	59,861700
1159,000000	60,150300
1158,000000	60,469100
1157,000000	60,679600
1156,000000	60,922100
1155,000000	61,067000
1154,000000	61,206300
1153,000000	61,285300
1152,000000	61,328800
1151,000000	61,357500
1150,000000	61,374300
1149,000000	61,404200
1148,000000	61,447500
1147,000000	61,527000
1146,000000	61,647100
1145,000000	61,837400
1144,000000	62,041200
1143,000000	62,310400
1142,000000	62,590300
1141,000000	62,875100
1140,000000	63,166700
1139,000000	63,476600
1138,000000	63,799800
1137,000000	64,132000
1136,000000	64,469200
1135,000000	64,773700
1134,000000	65,051500
1133,000000	65,279200
1132,000000	65,527100
1131,000000	65,724800
1130,000000	65,931600
1129,000000	66,098800
1128,000000	66,225000
1127,000000	66,337500
1126,000000	66,426500
1125,000000	66,485500
1124,000000	66,572200
1123,000000	66,622800
1122,000000	66,667700
1121,000000	66,690100
1120,000000	66,716700
1119,000000	66,744800
1118,000000	66,738800
1117,000000	66,753100
1116,000000	66,741100
1115,000000	66,739900
1114,000000	66,730300
1113,000000	66,719000
1112,000000	66,724900
1111,000000	66,722800
1110,000000	66,701000
1109,000000	66,698700
1108,000000	66,684000
1107,000000	66,682500
1106,000000	66,681100
1105,000000	66,664700
1104,000000	66,652200
1103,000000	66,641700
1102,000000	66,617100
1101,000000	66,621200
1100,000000	66,592500
1099,000000	66,566400
1098,000000	66,544400
1097,000000	66,536000
1096,000000	66,504700
1095,000000	66,493200
1094,000000	66,474700
1093,000000	66,442400
1092,000000	66,419100
1091,000000	66,381600
1090,000000	66,339100
1089,000000	66,309200
1088,000000	66,285200
1087,000000	66,251700
1086,000000	66,206900
1085,000000	66,161600
1084,000000	66,142900
1083,000000	66,107400
1082,000000	66,071300
1081,000000	66,046200
1080,000000	66,013700
1079,000000	65,989700
1078,000000	65,962300
1077,000000	65,926500
1076,000000	65,890600
1075,000000	65,862400
1074,000000	65,829000
1073,000000	65,796300
1072,000000	65,768100
1071,000000	65,758700
1070,000000	65,724100
1069,000000	65,683800
1068,000000	65,656500
1067,000000	65,626000
1066,000000	65,610100
1065,000000	65,588600
1064,000000	65,576400
1063,000000	65,554700
1062,000000	65,538100
1061,000000	65,500000
1060,000000	65,466600
1059,000000	65,448100
1058,000000	65,428700
1057,000000	65,402600
1056,000000	65,385500
1055,000000	65,371200
1054,000000	65,347900
1053,000000	65,325800
1052,000000	65,311600
1051,000000	65,307300
1050,000000	65,297300
1049,000000	65,286200
1048,000000	65,284800
1047,000000	65,295200
1046,000000	65,294400
1045,000000	65,300000
1044,000000	65,302000
1043,000000	65,307700
1042,000000	65,320500
1041,000000	65,320500
1040,000000	65,331900
1039,000000	65,352900
1038,000000	65,369000
1037,000000	65,374900
1036,000000	65,371800
1035,000000	65,393600
1034,000000	65,423500
1033,000000	65,429200
1032,000000	65,443400
1031,000000	65,443600
1030,000000	65,441600
1029,000000	65,464100
1028,000000	65,466800
1027,000000	65,478900
1026,000000	65,499300
1025,000000	65,510000
1024,000000	65,507700
1023,000000	65,510700
1022,000000	65,520000
1021,000000	65,538200
1020,000000	65,567100
1019,000000	65,588700
1018,000000	65,608200
1017,000000	65,626900
1016,000000	65,658700
1015,000000	65,687500
1014,000000	65,729000
1013,000000	65,778800
1012,000000	65,817700
1011,000000	65,873500
1010,000000	65,936300
1009,000000	65,995500
1008,000000	66,066300
1007,000000	66,133200
1006,000000	66,181700
1005,000000	66,246000
1004,000000	66,302600
1003,000000	66,368500
1002,000000	66,435800
1001,000000	66,475600
1000,000000	66,540800
999,000000	66,611000
998,000000	66,663800
997,000000	66,749400
996,000000	66,812800
995,000000	66,870900
994,000000	66,955600
993,000000	67,038300
992,000000	67,119200
991,000000	67,187200
990,000000	67,245100
989,000000	67,351100
988,000000	67,442500
987,000000	67,528700
986,000000	67,610800
985,000000	67,694600
984,000000	67,793700
983,000000	67,889300
982,000000	67,959500
981,000000	68,065600
980,000000	68,179500
979,000000	68,265500
978,000000	68,357600
977,000000	68,430600
976,000000	68,531200
975,000000	68,639100
974,000000	68,752800
973,000000	68,836800
972,000000	68,933800
971,000000	69,044400
970,000000	69,136600
969,000000	69,257600
968,000000	69,344200
967,000000	69,465600
966,000000	69,560800
965,000000	69,682800
964,000000	69,801100
963,000000	69,902500
962,000000	70,031600
961,000000	70,149600
960,000000	70,252900
959,000000	70,354900
958,000000	70,487400
957,000000	70,615200
956,000000	70,706300
955,000000	70,780000
954,000000	70,872100
953,000000	70,982100
952,000000	71,055000
951,000000	71,161300
950,000000	71,215100
949,000000	71,283600
948,000000	71,348900
947,000000	71,443700
946,000000	71,468000
945,000000	71,546600
944,000000	71,589800
943,000000	71,633300
942,000000	71,679400
941,000000	71,770500
940,000000	71,797900
939,000000	71,844400
938,000000	71,885800
937,000000	71,978500
936,000000	71,993900
935,000000	72,045800
934,000000	72,074700
933,000000	72,136500
932,000000	72,209700
931,000000	72,227000
930,000000	72,264200
929,000000	72,337300
928,000000	72,330200
927,000000	72,337900
926,000000	72,355600
925,000000	72,413800
924,000000	72,424600
923,000000	72,449300
922,000000	72,450100
921,000000	72,454000
920,000000	72,451400
919,000000	72,455000
918,000000	72,450100
917,000000	72,525300
916,000000	72,504500
915,000000	72,477300
914,000000	72,441200
913,000000	72,405500
912,000000	72,500200
911,000000	72,462300
910,000000	72,462400
909,000000	72,479700
908,000000	72,483300
907,000000	72,514700
906,000000	72,503900
905,000000	72,495800
904,000000	72,522000
903,000000	72,555300
902,000000	72,532400
901,000000	72,527300
900,000000	72,534300
899,000000	72,467800
898,000000	72,438900
897,000000	72,414900
896,000000	72,382300
895,000000	72,355700
894,000000	72,316700
893,000000	72,272200
892,000000	72,200000
891,000000	72,115000
890,000000	71,953000
889,000000	71,867300
888,000000	71,795500
887,000000	71,655500
886,000000	71,433800
885,000000	71,313100
884,000000	71,176900
883,000000	70,993000
882,000000	70,713900
881,000000	70,487400
880,000000	70,169600
879,000000	69,973300
878,000000	69,714500
877,000000	69,385900
876,000000	69,097700
875,000000	68,728200
874,000000	68,424500
873,000000	68,047500
872,000000	67,769500
871,000000	67,356400
870,000000	67,044000
869,000000	66,650400
868,000000	66,329500
867,000000	65,817700
866,000000	65,332600
865,000000	64,905400
864,000000	64,409600
863,000000	64,128500
862,000000	63,865800
861,000000	63,836000
860,000000	63,831300
859,000000	63,832900
858,000000	65,436000
857,000000	74,766000
856,000000	75,082300
855,000000	74,304600
854,000000	74,777200
853,000000	74,576500
852,000000	74,894800
851,000000	74,786700
850,000000	74,395500
849,000000	74,466000
848,000000	74,509600
847,000000	74,274900
846,000000	73,881000
845,000000	74,060000
844,000000	73,989600
843,000000	73,887000
842,000000	73,798300
841,000000	73,661800
840,000000	73,641300
839,000000	73,423700
838,000000	73,274300
837,000000	73,268200
836,000000	73,074700
835,000000	73,132800
834,000000	72,851400
833,000000	72,700800
832,000000	72,564200
831,000000	72,484000
830,000000	72,426700
829,000000	72,166500
828,000000	71,904900
827,000000	71,868300
826,000000	71,771100
825,000000	71,612400
824,000000	71,288800
823,000000	71,254500
822,000000	71,201700
821,000000	71,075300
820,000000	70,972300
819,000000	70,667800
818,000000	70,494000
817,000000	70,445700
816,000000	70,375400
815,000000	70,272700
814,000000	70,069700
813,000000	69,844700
812,000000	69,678700
811,000000	69,712300
810,000000	69,617400
809,000000	69,419600
808,000000	69,182000
807,000000	68,942800
806,000000	68,905700
805,000000	68,868800
804,000000	68,829600
803,000000	68,591000
802,000000	68,476500
801,000000	68,448300
800,000000	68,356400
799,000000	68,257200
798,000000	68,108500
797,000000	67,950800
796,000000	67,874300
795,000000	67,849600
794,000000	67,800100
793,000000	67,672800
792,000000	67,520400
791,000000	67,449100
790,000000	67,274000
789,000000	67,241400
788,000000	67,106400
787,000000	67,012300
786,000000	66,947900
785,000000	66,823300
784,000000	66,716600
783,000000	66,665000
782,000000	66,592600
781,000000	66,553900
780,000000	66,472400
779,000000	66,318500
778,000000	66,249200
777,000000	66,214100
776,000000	66,137800
775,000000	66,009000
774,000000	65,932900
773,000000	65,878300
772,000000	65,710300
771,000000	65,547400
770,000000	65,473400
769,000000	65,431700
768,000000	65,257800
767,000000	65,177000
766,000000	65,078400
765,000000	64,893900
764,000000	64,786800
763,000000	64,647800
762,000000	64,543000
761,000000	64,470500
760,000000	64,338500
759,000000	64,126200
758,000000	63,949300
757,000000	63,814000
756,000000	63,647100
755,000000	63,531500
754,000000	63,336700
753,000000	63,213800
752,000000	63,135200
751,000000	62,938600
750,000000	62,738800
749,000000	62,551900
748,000000	62,363700
747,000000	62,224800
746,000000	62,074500
745,000000	61,905400
744,000000	61,754300
743,000000	61,551600
742,000000	61,364500
741,000000	61,181500
740,000000	60,993500
739,000000	60,775100
738,000000	60,487300
737,000000	60,292000
736,000000	60,116500
735,000000	59,863500
734,000000	59,642600
733,000000	59,380200
732,000000	59,079500
731,000000	58,810000
730,000000	58,532800
729,000000	58,329100
728,000000	58,112600
727,000000	57,888700
726,000000	57,623500
725,000000	57,410500
724,000000	57,188500
723,000000	56,863100
722,000000	56,606700
721,000000	56,384100
720,000000	56,135200
719,000000	55,881300
718,000000	55,681300
717,000000	55,474800
716,000000	55,241200
715,000000	55,023200
714,000000	54,787400
713,000000	54,521300
712,000000	54,313300
711,000000	54,051100
710,000000	53,800200
709,000000	53,625000
708,000000	53,368000
707,000000	53,201200
706,000000	52,995500
705,000000	52,782800
704,000000	52,626700
703,000000	52,492200
702,000000	52,329700
701,000000	52,187400
700,000000	52,130600
699,000000	52,106300
698,000000	52,070200
697,000000	51,989300
696,000000	51,961700
695,000000	51,958700
694,000000	51,942300
693,000000	51,914900
692,000000	51,918500
691,000000	51,908300
690,000000	51,914600
689,000000	51,895500
688,000000	51,788000
687,000000	51,802600
686,000000	51,746600
685,000000	51,619400
684,000000	51,540900
683,000000	51,410900
682,000000	51,263700
681,000000	51,085400
680,000000	50,879400
679,000000	50,696200
678,000000	50,467600
677,000000	50,282100
676,000000	50,092700
675,000000	49,918900
674,000000	49,720400
673,000000	49,561400
672,000000	49,347500
671,000000	49,146500
670,000000	48,956500
669,000000	48,774400
668,000000	48,542200
667,000000	48,312900
666,000000	48,085900
665,000000	47,785300
664,000000	47,563000
663,000000	47,250100
662,000000	46,948100
661,000000	46,560000
660,000000	46,227900
659,000000	45,793000
658,000000	45,422900
657,000000	45,087700
656,000000	44,666200
655,000000	44,347300
654,000000	43,996900
653,000000	43,742400
652,000000	43,510300
651,000000	43,366200
650,000000	43,336000
649,000000	43,302800
648,000000	43,394800
647,000000	43,565600
646,000000	43,859200
645,000000	44,209800
644,000000	44,621800
643,000000	45,079900
642,000000	45,601100
641,000000	46,177700
640,000000	46,777800
639,000000	47,353400
638,000000	47,932500
637,000000	48,552400
636,000000	49,162900
635,000000	49,848600
634,000000	50,432400
633,000000	51,077800
632,000000	51,692000
631,000000	52,318000
630,000000	52,941800
629,000000	53,490000
628,000000	54,107300
627,000000	54,710400
626,000000	55,332700
625,000000	55,936500
624,000000	56,559700
623,000000	57,229200
622,000000	57,828600
621,000000	58,418100
620,000000	59,035500
619,000000	59,626000
618,000000	60,208100
617,000000	60,721700
616,000000	61,241700
615,000000	61,655500
614,000000	62,096600
613,000000	62,468200
612,000000	62,819000
611,000000	63,127300
610,000000	63,437800
609,000000	63,742700
608,000000	63,977800
607,000000	64,211000
606,000000	64,458400
605,000000	64,685300
604,000000	64,836900
603,000000	65,127500
602,000000	65,370300
601,000000	65,636300
600,000000	65,864400
599,000000	66,112600
598,000000	66,416700
597,000000	66,684300
596,000000	66,986600
595,000000	67,232700
594,000000	67,590700
593,000000	67,810700
592,000000	68,071300
591,000000	68,287800
590,000000	68,515500
589,000000	68,712100
588,000000	68,869200
587,000000	68,932200
586,000000	69,050800
585,000000	69,083100
584,000000	69,150600
583,000000	69,138400
582,000000	69,155400
581,000000	69,113500
580,000000	69,102600
579,000000	69,069200
578,000000	69,057000
577,000000	69,101500
576,000000	69,105200
575,000000	69,087700
574,000000	69,068500
573,000000	69,009900
572,000000	68,981300
571,000000	68,944800
570,000000	68,850600
569,000000	68,770100
568,000000	68,651700
567,000000	68,544000
566,000000	68,448600
565,000000	68,330300
564,000000	68,140400
563,000000	68,010900
562,000000	67,763800
561,000000	67,556600
560,000000	67,356600
559,000000	67,093000
558,000000	66,810500
557,000000	66,499000
556,000000	66,158600
555,000000	65,789900
554,000000	65,372300
553,000000	64,929100
552,000000	64,452400
551,000000	63,863700
550,000000	63,260100
549,000000	62,611100
548,000000	61,881700
547,000000	61,162600
546,000000	60,365500
545,000000	59,518300
544,000000	58,633000
543,000000	57,694500
542,000000	56,739200
541,000000	55,815900
540,000000	54,826500
539,000000	53,843000
538,000000	52,875900
537,000000	51,915100
536,000000	50,927500
535,000000	49,973000
534,000000	49,059900
533,000000	48,135200
532,000000	47,223000
531,000000	46,370100
530,000000	45,540500
529,000000	44,748300
528,000000	43,963500
527,000000	43,220600
526,000000	42,487500
525,000000	41,802400
524,000000	41,107100
523,000000	40,422200
522,000000	39,786900
521,000000	39,152100
520,000000	38,532700
519,000000	37,938400
518,000000	37,348200
517,000000	36,774000
516,000000	36,203800
515,000000	35,647800
514,000000	35,079200
513,000000	34,525600
512,000000	33,970700
511,000000	33,417800
510,000000	32,851500
509,000000	32,309400
508,000000	31,752100
507,000000	31,199000
506,000000	30,620600
505,000000	30,040300
504,000000	29,452800
503,000000	28,839100
502,000000	28,242800
501,000000	27,645900
500,000000	27,069400
499,000000	26,493400
498,000000	25,940500
497,000000	25,368700
496,000000	24,828700
495,000000	24,327700
494,000000	23,858100
493,000000	23,418200
492,000000	23,026400
491,000000	22,668400
490,000000	22,333700
489,000000	22,030500
488,000000	21,793500
487,000000	21,602400
486,000000	21,441000
485,000000	21,309000
484,000000	21,197400
483,000000	21,129600
482,000000	21,075300
481,000000	21,033500
480,000000	21,026700
479,000000	21,025000
478,000000	21,038500
477,000000	21,046100
476,000000	21,066600
475,000000	21,076000
474,000000	21,087600
473,000000	21,111900
472,000000	21,136700
471,000000	21,144700
470,000000	21,131700
469,000000	21,118600
468,000000	21,103800
467,000000	21,072800
466,000000	21,047200
465,000000	21,002500
464,000000	20,976100
463,000000	20,930900
462,000000	20,858100
461,000000	20,792900
460,000000	20,714500
459,000000	20,611700
458,000000	20,512800
457,000000	20,400900
456,000000	20,295300
455,000000	20,171000
454,000000	20,036200
453,000000	19,892400
452,000000	19,740700
451,000000	19,587200
450,000000	19,420200
449,000000	19,230500
448,000000	19,045100
447,000000	18,858100
446,000000	18,656100
445,000000	18,445100
444,000000	18,232300
443,000000	18,022800
442,000000	17,779000
441,000000	17,529300
440,000000	17,279600
439,000000	17,035500
438,000000	16,779000
437,000000	16,516500
436,000000	16,261400
435,000000	15,982000
434,000000	15,689200
433,000000	15,408100
432,000000	15,133800
431,000000	14,850300
430,000000	14,575600
429,000000	14,292700
428,000000	14,003300
427,000000	13,712800
426,000000	13,419000
425,000000	13,121800
424,000000	12,837200
423,000000	12,560800
422,000000	12,282600
421,000000	11,993700
420,000000	11,701300
419,000000	11,399600
418,000000	11,117400
417,000000	10,855600
416,000000	10,593500
415,000000	10,313700
414,000000	10,048800
413,000000	9,803100
412,000000	9,564400
411,000000	9,340000
410,000000	9,117300
409,000000	8,895600
408,000000	8,690800
407,000000	8,489300
406,000000	8,309300
405,000000	8,142600
404,000000	7,991600
403,000000	7,837900
402,000000	7,688000
401,000000	7,545900
400,000000	7,405100
399,000000	7,283200
398,000000	7,195400
397,000000	7,096000
396,000000	7,013500
395,000000	6,926500
394,000000	6,841600
393,000000	6,770600
392,000000	6,712400
391,000000	6,660100
390,000000	6,597100
389,000000	6,543800
388,000000	6,503600
387,000000	6,478500
386,000000	6,435000
385,000000	6,385800
384,000000	6,356000
383,000000	6,343700
382,000000	6,317000
381,000000	6,281200
380,000000	6,269600
379,000000	6,227900
378,000000	6,211500
377,000000	6,194400
376,000000	6,160800
375,000000	6,139800
374,000000	6,158700
373,000000	6,160600
372,000000	6,134200
371,000000	6,100700
370,000000	6,087700
369,000000	6,099300
368,000000	6,082600
367,000000	6,070800
366,000000	6,092200
365,000000	6,093900
364,000000	6,023600
363,000000	5,963300
362,000000	5,994900
361,000000	6,065600
360,000000	6,019400
359,000000	6,007300
358,000000	5,984100
357,000000	5,994700
356,000000	5,958200
355,000000	5,901100
354,000000	5,905800
353,000000	5,910000
352,000000	5,922400
351,000000	5,954000
350,000000	5,893200
349,000000	5,889200
348,000000	5,862700
347,000000	5,860600
346,000000	5,866400
345,000000	5,877600
344,000000	5,862100
343,000000	5,869800
342,000000	5,901900
341,000000	5,852300
340,000000	5,841300
339,000000	5,888500
338,000000	5,875800
337,000000	5,785200
336,000000	5,826000
335,000000	5,805700
334,000000	5,781100
333,000000	5,899700
332,000000	5,742400
331,000000	5,709000
330,000000	5,798000
329,000000	5,845100
328,000000	5,891400
327,000000	5,862200
326,000000	5,849900
325,000000	5,854400
324,000000	5,869000
323,000000	5,700700
322,000000	5,658100
321,000000	5,745800
320,000000	5,787000
319,000000	5,702000
318,000000	5,830700
317,000000	5,954500
316,000000	5,908200
315,000000	5,881600
314,000000	5,857400
313,000000	5,843400
312,000000	5,873900
311,000000	5,880400
310,000000	5,926500
309,000000	5,915500
308,000000	5,926000
307,000000	5,891300
306,000000	5,900400
305,000000	5,964400
304,000000	5,903300
303,000000	5,946200
302,000000	5,911100
301,000000	5,927700
300,000000	5,925900
299,000000	5,964200
298,000000	5,977400
297,000000	5,944300
296,000000	5,985400
295,000000	6,021200
294,000000	6,007600
293,000000	6,023900
292,000000	6,011400
291,000000	6,032700
290,000000	5,989600
289,000000	5,984800
288,000000	6,019600
287,000000	5,995900
286,000000	6,028200
285,000000	6,006400
284,000000	6,044800
283,000000	6,004500
282,000000	6,076400
281,000000	6,088700
280,000000	6,069800
279,000000	6,079000
278,000000	6,067300
277,000000	6,086300
276,000000	6,089000
275,000000	6,123800
274,000000	6,142600
273,000000	6,160200
272,000000	6,208900
271,000000	6,180900
270,000000	6,208800
269,000000	6,214200
268,000000	6,264100
267,000000	6,289100
266,000000	6,328400
265,000000	6,339700
264,000000	6,356400
263,000000	6,402200
262,000000	6,381700
261,000000	6,447400
260,000000	6,458400
259,000000	6,475800
258,000000	6,531000
257,000000	6,570200
256,000000	6,573400
255,000000	6,628100
254,000000	6,614500
253,000000	6,657400
252,000000	6,699300
251,000000	6,701700
250,000000	6,716300
