PE UV       SUBTECH     SPECTRUM    ASCII       PEDS        4.00        
   -1
CICIMAUCR0008-4.Sample.ASC
24/04/25
09:16:30.00
24/04/25
09:16:30.00
Vinicio Soto Monge
C. kalinini
250,000000
1
Lambda 1050
1050L1511233
PerkinElmer UV WinLab 6.3.2.0749 / 2.02.05 Lambda 900 UV/VIS/NIR, Aug  7 2015 09:38:08

0
0
3350/servo 860,8/2
0
0
UV/VIS
1
1
1
DoubleDePol,CommonBeamDepol,RBeamAtt,SBeamAtt,60mm sphere, WB InGaAs Detector
0
0
0
0
Program
Program
3350/servo 860,8/2
3350/0,2 860,8/0,2
3350/0,2 860,8/0,2
0
15.00
 
 
 
0
 
860,8
319,2
860,8
Front
100
on
S:100 R:100
0
0
0
0
 
0
 
 
 
0
 
 
0
0
0
0
0
 
 
 
 
0
0


0
0
#HDR
-1
-1
#GR
nm
%R
1.0
0.0
2500,000000
-1,000000
2251
8
94,238500
5,235800
#DATA
2500,000000	5,932600
2499,000000	5,753900
2498,000000	5,713900
2497,000000	5,712800
2496,000000	5,650500
2495,000000	5,808100
2494,000000	5,664800
2493,000000	5,656200
2492,000000	5,708200
2491,000000	5,706300
2490,000000	5,668100
2489,000000	5,726200
2488,000000	5,674800
2487,000000	5,671200
2486,000000	5,657900
2485,000000	5,623000
2484,000000	5,639200
2483,000000	5,605300
2482,000000	5,662500
2481,000000	5,615700
2480,000000	5,567500
2479,000000	5,609700
2478,000000	5,613500
2477,000000	5,573300
2476,000000	5,571200
2475,000000	5,628900
2474,000000	5,590300
2473,000000	5,604500
2472,000000	5,590800
2471,000000	5,618100
2470,000000	5,628700
2469,000000	5,639400
2468,000000	5,635800
2467,000000	5,616600
2466,000000	5,638500
2465,000000	5,643100
2464,000000	5,640700
2463,000000	5,648900
2462,000000	5,651400
2461,000000	5,687800
2460,000000	5,709600
2459,000000	5,713800
2458,000000	5,746300
2457,000000	5,776100
2456,000000	5,788500
2455,000000	5,828800
2454,000000	5,849900
2453,000000	5,860800
2452,000000	5,871100
2451,000000	5,888500
2450,000000	5,936700
2449,000000	5,969100
2448,000000	5,987300
2447,000000	6,012900
2446,000000	6,019800
2445,000000	6,052800
2444,000000	6,078300
2443,000000	6,094500
2442,000000	6,134800
2441,000000	6,176400
2440,000000	6,184500
2439,000000	6,219500
2438,000000	6,237100
2437,000000	6,254900
2436,000000	6,270100
2435,000000	6,298200
2434,000000	6,309100
2433,000000	6,325400
2432,000000	6,352200
2431,000000	6,374400
2430,000000	6,375000
2429,000000	6,401500
2428,000000	6,407900
2427,000000	6,418000
2426,000000	6,442500
2425,000000	6,458400
2424,000000	6,478800
2423,000000	6,465000
2422,000000	6,483400
2421,000000	6,500700
2420,000000	6,512600
2419,000000	6,535000
2418,000000	6,532400
2417,000000	6,541800
2416,000000	6,557500
2415,000000	6,553100
2414,000000	6,526300
2413,000000	6,466600
2412,000000	6,441900
2411,000000	6,432300
2410,000000	6,440400
2409,000000	6,442400
2408,000000	6,443700
2407,000000	6,440500
2406,000000	6,434600
2405,000000	6,441800
2404,000000	6,439700
2403,000000	6,438400
2402,000000	6,439700
2401,000000	6,429900
2400,000000	6,441000
2399,000000	6,447300
2398,000000	6,444600
2397,000000	6,432000
2396,000000	6,440000
2395,000000	6,446100
2394,000000	6,459200
2393,000000	6,465100
2392,000000	6,449200
2391,000000	6,441100
2390,000000	6,450600
2389,000000	6,448300
2388,000000	6,429600
2387,000000	6,436200
2386,000000	6,439600
2385,000000	6,415300
2384,000000	6,420300
2383,000000	6,423200
2382,000000	6,395600
2381,000000	6,390900
2380,000000	6,376300
2379,000000	6,364600
2378,000000	6,368900
2377,000000	6,363800
2376,000000	6,338400
2375,000000	6,329000
2374,000000	6,315000
2373,000000	6,292100
2372,000000	6,268300
2371,000000	6,258600
2370,000000	6,241800
2369,000000	6,215200
2368,000000	6,207500
2367,000000	6,183700
2366,000000	6,156300
2365,000000	6,139700
2364,000000	6,110200
2363,000000	6,075500
2362,000000	6,055200
2361,000000	6,030600
2360,000000	6,007700
2359,000000	5,983100
2358,000000	5,975300
2357,000000	5,962700
2356,000000	5,944500
2355,000000	5,934200
2354,000000	5,915200
2353,000000	5,917700
2352,000000	5,930100
2351,000000	5,932500
2350,000000	5,959000
2349,000000	5,974700
2348,000000	5,999700
2347,000000	6,026500
2346,000000	6,031700
2345,000000	6,028900
2344,000000	6,059400
2343,000000	6,086800
2342,000000	6,087200
2341,000000	6,088800
2340,000000	6,102900
2339,000000	6,109200
2338,000000	6,106200
2337,000000	6,102000
2336,000000	6,115100
2335,000000	6,114700
2334,000000	6,098200
2333,000000	6,091800
2332,000000	6,058100
2331,000000	6,031500
2330,000000	6,029600
2329,000000	6,009700
2328,000000	5,990200
2327,000000	5,961100
2326,000000	5,947900
2325,000000	5,922900
2324,000000	5,892600
2323,000000	5,844100
2322,000000	5,818500
2321,000000	5,796300
2320,000000	5,761700
2319,000000	5,737000
2318,000000	5,706300
2317,000000	5,667400
2316,000000	5,634400
2315,000000	5,603000
2314,000000	5,575900
2313,000000	5,552200
2312,000000	5,534400
2311,000000	5,522500
2310,000000	5,513700
2309,000000	5,499200
2308,000000	5,488600
2307,000000	5,516300
2306,000000	5,527200
2305,000000	5,534300
2304,000000	5,548900
2303,000000	5,571400
2302,000000	5,618800
2301,000000	5,646500
2300,000000	5,673700
2299,000000	5,700900
2298,000000	5,743800
2297,000000	5,783700
2296,000000	5,820400
2295,000000	5,835500
2294,000000	5,843700
2293,000000	5,868600
2292,000000	5,882700
2291,000000	5,897300
2290,000000	5,917500
2289,000000	5,908500
2288,000000	5,907200
2287,000000	5,898700
2286,000000	5,898600
2285,000000	5,891100
2284,000000	5,883400
2283,000000	5,882400
2282,000000	5,871500
2281,000000	5,845800
2280,000000	5,835600
2279,000000	5,818400
2278,000000	5,833100
2277,000000	5,820200
2276,000000	5,825500
2275,000000	5,832300
2274,000000	5,809300
2273,000000	5,802500
2272,000000	5,836900
2271,000000	5,823300
2270,000000	5,836700
2269,000000	5,878400
2268,000000	5,902200
2267,000000	5,943000
2266,000000	6,000500
2265,000000	6,037700
2264,000000	6,102700
2263,000000	6,179200
2262,000000	6,248800
2261,000000	6,316700
2260,000000	6,405300
2259,000000	6,525100
2258,000000	6,610300
2257,000000	6,710400
2256,000000	6,782100
2255,000000	6,888800
2254,000000	7,004400
2253,000000	7,099200
2252,000000	7,170600
2251,000000	7,286800
2250,000000	7,363300
2249,000000	7,433700
2248,000000	7,512200
2247,000000	7,594900
2246,000000	7,670500
2245,000000	7,739200
2244,000000	7,798300
2243,000000	7,855800
2242,000000	7,923800
2241,000000	8,003300
2240,000000	8,035800
2239,000000	8,080300
2238,000000	8,135100
2237,000000	8,153400
2236,000000	8,214000
2235,000000	8,243200
2234,000000	8,271200
2233,000000	8,328800
2232,000000	8,338300
2231,000000	8,361500
2230,000000	8,376300
2229,000000	8,407200
2228,000000	8,417300
2227,000000	8,445000
2226,000000	8,449400
2225,000000	8,439800
2224,000000	8,430700
2223,000000	8,477500
2222,000000	8,467300
2221,000000	8,447800
2220,000000	8,462600
2219,000000	8,457600
2218,000000	8,439200
2217,000000	8,428300
2216,000000	8,426700
2215,000000	8,408600
2214,000000	8,397400
2213,000000	8,422200
2212,000000	8,414900
2211,000000	8,367800
2210,000000	8,374900
2209,000000	8,387300
2208,000000	8,373000
2207,000000	8,346200
2206,000000	8,371300
2205,000000	8,357000
2204,000000	8,341400
2203,000000	8,353800
2202,000000	8,340200
2201,000000	8,355100
2200,000000	8,331900
2199,000000	8,329100
2198,000000	8,329500
2197,000000	8,338500
2196,000000	8,307900
2195,000000	8,305100
2194,000000	8,321800
2193,000000	8,303700
2192,000000	8,290500
2191,000000	8,298900
2190,000000	8,303500
2189,000000	8,300600
2188,000000	8,292500
2187,000000	8,271600
2186,000000	8,273900
2185,000000	8,255700
2184,000000	8,231000
2183,000000	8,231100
2182,000000	8,224800
2181,000000	8,207500
2180,000000	8,202600
2179,000000	8,196400
2178,000000	8,194200
2177,000000	8,179300
2176,000000	8,176600
2175,000000	8,171800
2174,000000	8,159300
2173,000000	8,175700
2172,000000	8,163200
2171,000000	8,184200
2170,000000	8,198000
2169,000000	8,184000
2168,000000	8,181100
2167,000000	8,184500
2166,000000	8,191300
2165,000000	8,216800
2164,000000	8,211200
2163,000000	8,216200
2162,000000	8,216800
2161,000000	8,225000
2160,000000	8,228200
2159,000000	8,247000
2158,000000	8,252100
2157,000000	8,267900
2156,000000	8,292100
2155,000000	8,308000
2154,000000	8,321000
2153,000000	8,316200
2152,000000	8,317800
2151,000000	8,338100
2150,000000	8,361900
2149,000000	8,369400
2148,000000	8,387500
2147,000000	8,408400
2146,000000	8,422500
2145,000000	8,428200
2144,000000	8,429100
2143,000000	8,444500
2142,000000	8,462400
2141,000000	8,458500
2140,000000	8,471000
2139,000000	8,473200
2138,000000	8,495400
2137,000000	8,504200
2136,000000	8,513600
2135,000000	8,512600
2134,000000	8,498000
2133,000000	8,516200
2132,000000	8,532400
2131,000000	8,554900
2130,000000	8,552700
2129,000000	8,539200
2128,000000	8,532600
2127,000000	8,533600
2126,000000	8,536600
2125,000000	8,546300
2124,000000	8,540900
2123,000000	8,528700
2122,000000	8,521500
2121,000000	8,525500
2120,000000	8,519500
2119,000000	8,512200
2118,000000	8,509700
2117,000000	8,491900
2116,000000	8,473400
2115,000000	8,470900
2114,000000	8,464200
2113,000000	8,459400
2112,000000	8,474500
2111,000000	8,468300
2110,000000	8,452200
2109,000000	8,457600
2108,000000	8,433300
2107,000000	8,423000
2106,000000	8,427200
2105,000000	8,414400
2104,000000	8,410300
2103,000000	8,393300
2102,000000	8,387900
2101,000000	8,389300
2100,000000	8,392800
2099,000000	8,394600
2098,000000	8,376000
2097,000000	8,379400
2096,000000	8,370200
2095,000000	8,370600
2094,000000	8,376100
2093,000000	8,368600
2092,000000	8,369000
2091,000000	8,365400
2090,000000	8,371100
2089,000000	8,386100
2088,000000	8,388300
2087,000000	8,376700
2086,000000	8,362000
2085,000000	8,377000
2084,000000	8,391000
2083,000000	8,391700
2082,000000	8,389300
2081,000000	8,386000
2080,000000	8,395400
2079,000000	8,403900
2078,000000	8,414900
2077,000000	8,410500
2076,000000	8,386600
2075,000000	8,379800
2074,000000	8,382800
2073,000000	8,396600
2072,000000	8,400800
2071,000000	8,378500
2070,000000	8,388900
2069,000000	8,389800
2068,000000	8,390900
2067,000000	8,395600
2066,000000	8,397400
2065,000000	8,408300
2064,000000	8,424600
2063,000000	8,427400
2062,000000	8,429400
2061,000000	8,437500
2060,000000	8,457400
2059,000000	8,480200
2058,000000	8,487300
2057,000000	8,513000
2056,000000	8,537100
2055,000000	8,560200
2054,000000	8,592200
2053,000000	8,621600
2052,000000	8,670100
2051,000000	8,713300
2050,000000	8,768000
2049,000000	8,823100
2048,000000	8,867700
2047,000000	8,926200
2046,000000	8,991900
2045,000000	9,077500
2044,000000	9,127000
2043,000000	9,198200
2042,000000	9,270300
2041,000000	9,332100
2040,000000	9,411000
2039,000000	9,467700
2038,000000	9,536800
2037,000000	9,600700
2036,000000	9,653900
2035,000000	9,715400
2034,000000	9,766500
2033,000000	9,804000
2032,000000	9,875000
2031,000000	9,916200
2030,000000	9,970100
2029,000000	10,000500
2028,000000	10,040900
2027,000000	10,069700
2026,000000	10,127700
2025,000000	10,173400
2024,000000	10,205100
2023,000000	10,241600
2022,000000	10,295700
2021,000000	10,304800
2020,000000	10,355100
2019,000000	10,389600
2018,000000	10,415200
2017,000000	10,431000
2016,000000	10,439300
2015,000000	10,475500
2014,000000	10,503300
2013,000000	10,525500
2012,000000	10,515700
2011,000000	10,548300
2010,000000	10,551100
2009,000000	10,552400
2008,000000	10,561100
2007,000000	10,559000
2006,000000	10,568000
2005,000000	10,554300
2004,000000	10,544800
2003,000000	10,524200
2002,000000	10,508800
2001,000000	10,496800
2000,000000	10,482300
1999,000000	10,488500
1998,000000	10,457500
1997,000000	10,436000
1996,000000	10,422200
1995,000000	10,377500
1994,000000	10,351400
1993,000000	10,312100
1992,000000	10,295500
1991,000000	10,250800
1990,000000	10,192600
1989,000000	10,168900
1988,000000	10,137800
1987,000000	10,077800
1986,000000	10,040400
1985,000000	10,017000
1984,000000	9,976300
1983,000000	9,936800
1982,000000	9,874500
1981,000000	9,846000
1980,000000	9,803100
1979,000000	9,751800
1978,000000	9,723900
1977,000000	9,668900
1976,000000	9,629000
1975,000000	9,604800
1974,000000	9,563600
1973,000000	9,532400
1972,000000	9,486600
1971,000000	9,439000
1970,000000	9,419200
1969,000000	9,378800
1968,000000	9,354400
1967,000000	9,318500
1966,000000	9,279600
1965,000000	9,250000
1964,000000	9,220100
1963,000000	9,202300
1962,000000	9,179500
1961,000000	9,129800
1960,000000	9,099100
1959,000000	9,066500
1958,000000	9,032400
1957,000000	9,014400
1956,000000	8,991700
1955,000000	8,965600
1954,000000	8,939300
1953,000000	8,912900
1952,000000	8,898700
1951,000000	8,885300
1950,000000	8,868000
1949,000000	8,854800
1948,000000	8,828600
1947,000000	8,835400
1946,000000	8,817400
1945,000000	8,811000
1944,000000	8,809400
1943,000000	8,798400
1942,000000	8,826400
1941,000000	8,815700
1940,000000	8,855200
1939,000000	8,855700
1938,000000	8,872000
1937,000000	8,899900
1936,000000	8,937000
1935,000000	8,963000
1934,000000	8,979600
1933,000000	9,046000
1932,000000	9,093300
1931,000000	9,126800
1930,000000	9,196800
1929,000000	9,259500
1928,000000	9,350600
1927,000000	9,412500
1926,000000	9,476400
1925,000000	9,533700
1924,000000	9,616700
1923,000000	9,712600
1922,000000	9,841500
1921,000000	9,931300
1920,000000	10,028800
1919,000000	10,116400
1918,000000	10,218800
1917,000000	10,323800
1916,000000	10,439000
1915,000000	10,570000
1914,000000	10,733400
1913,000000	10,889600
1912,000000	11,001500
1911,000000	11,111000
1910,000000	11,235900
1909,000000	11,375100
1908,000000	11,523600
1907,000000	11,686300
1906,000000	11,863100
1905,000000	12,048600
1904,000000	12,197900
1903,000000	12,332000
1902,000000	12,491900
1901,000000	12,650700
1900,000000	12,846100
1899,000000	13,025000
1898,000000	13,182300
1897,000000	13,335500
1896,000000	13,464900
1895,000000	13,631300
1894,000000	13,807500
1893,000000	13,995100
1892,000000	14,171900
1891,000000	14,351800
1890,000000	14,509200
1889,000000	14,701300
1888,000000	14,899600
1887,000000	15,140300
1886,000000	15,409500
1885,000000	15,720400
1884,000000	16,049600
1883,000000	16,414500
1882,000000	16,777500
1881,000000	17,103500
1880,000000	17,431600
1879,000000	17,772500
1878,000000	18,081600
1877,000000	18,366500
1876,000000	18,649500
1875,000000	18,909200
1874,000000	19,134800
1873,000000	19,340100
1872,000000	19,529000
1871,000000	19,682300
1870,000000	19,820000
1869,000000	19,937700
1868,000000	19,984000
1867,000000	20,004900
1866,000000	20,041100
1865,000000	20,051300
1864,000000	20,044600
1863,000000	20,061200
1862,000000	20,073700
1861,000000	20,058600
1860,000000	20,030400
1859,000000	19,997700
1858,000000	19,954900
1857,000000	19,887300
1856,000000	19,826600
1855,000000	19,758200
1854,000000	19,649500
1853,000000	19,557600
1852,000000	19,482500
1851,000000	19,404900
1850,000000	19,332400
1849,000000	19,246900
1848,000000	19,152000
1847,000000	19,052000
1846,000000	18,952100
1845,000000	18,879900
1844,000000	18,833600
1843,000000	18,803200
1842,000000	18,755200
1841,000000	18,680500
1840,000000	18,635700
1839,000000	18,599000
1838,000000	18,522700
1837,000000	18,434400
1836,000000	18,346100
1835,000000	18,251100
1834,000000	18,148400
1833,000000	18,052300
1832,000000	17,966000
1831,000000	17,883100
1830,000000	17,797800
1829,000000	17,698400
1828,000000	17,606000
1827,000000	17,520900
1826,000000	17,437500
1825,000000	17,371200
1824,000000	17,330800
1823,000000	17,318400
1822,000000	17,288100
1821,000000	17,252300
1820,000000	17,215100
1819,000000	17,186800
1818,000000	17,179700
1817,000000	17,159600
1816,000000	17,143600
1815,000000	17,128900
1814,000000	17,121700
1813,000000	17,108600
1812,000000	17,073300
1811,000000	17,020500
1810,000000	16,979000
1809,000000	16,940600
1808,000000	16,901000
1807,000000	16,855700
1806,000000	16,790500
1805,000000	16,737800
1804,000000	16,707500
1803,000000	16,665400
1802,000000	16,624200
1801,000000	16,564600
1800,000000	16,516500
1799,000000	16,495000
1798,000000	16,447600
1797,000000	16,401200
1796,000000	16,362100
1795,000000	16,313800
1794,000000	16,263000
1793,000000	16,201700
1792,000000	16,154100
1791,000000	16,106500
1790,000000	16,040400
1789,000000	15,983400
1788,000000	15,909300
1787,000000	15,838800
1786,000000	15,791500
1785,000000	15,711900
1784,000000	15,632900
1783,000000	15,566800
1782,000000	15,490300
1781,000000	15,419400
1780,000000	15,339400
1779,000000	15,251800
1778,000000	15,176500
1777,000000	15,079300
1776,000000	14,964400
1775,000000	14,852400
1774,000000	14,753000
1773,000000	14,632000
1772,000000	14,521500
1771,000000	14,397900
1770,000000	14,293500
1769,000000	14,205500
1768,000000	14,112400
1767,000000	14,034100
1766,000000	13,981600
1765,000000	13,947700
1764,000000	13,951100
1763,000000	13,972300
1762,000000	14,027100
1761,000000	14,090500
1760,000000	14,152500
1759,000000	14,226400
1758,000000	14,288400
1757,000000	14,335900
1756,000000	14,370100
1755,000000	14,389000
1754,000000	14,367800
1753,000000	14,371800
1752,000000	14,362700
1751,000000	14,308000
1750,000000	14,262200
1749,000000	14,204700
1748,000000	14,137500
1747,000000	14,011800
1746,000000	13,902500
1745,000000	13,777600
1744,000000	13,624100
1743,000000	13,442300
1742,000000	13,260700
1741,000000	13,070100
1740,000000	12,881900
1739,000000	12,706200
1738,000000	12,579400
1737,000000	12,472500
1736,000000	12,417100
1735,000000	12,379500
1734,000000	12,373400
1733,000000	12,435400
1732,000000	12,500100
1731,000000	12,588500
1730,000000	12,687000
1729,000000	12,787100
1728,000000	12,876100
1727,000000	12,946500
1726,000000	12,983500
1725,000000	13,062600
1724,000000	13,063300
1723,000000	13,070700
1722,000000	13,073300
1721,000000	13,049600
1720,000000	13,063000
1719,000000	13,047400
1718,000000	13,041400
1717,000000	13,086300
1716,000000	13,096200
1715,000000	13,121900
1714,000000	13,154600
1713,000000	13,204100
1712,000000	13,175200
1711,000000	13,183600
1710,000000	13,173300
1709,000000	13,156600
1708,000000	13,119900
1707,000000	13,063300
1706,000000	13,040400
1705,000000	12,971000
1704,000000	12,908500
1703,000000	12,846000
1702,000000	12,702000
1701,000000	12,588300
1700,000000	12,458400
1699,000000	12,333700
1698,000000	12,226600
1697,000000	12,185400
1696,000000	12,164000
1695,000000	12,210400
1694,000000	12,291600
1693,000000	12,418500
1692,000000	12,554000
1691,000000	12,663200
1690,000000	12,764400
1689,000000	12,805600
1688,000000	12,805700
1687,000000	12,799500
1686,000000	12,782900
1685,000000	12,842100
1684,000000	12,981700
1683,000000	13,256000
1682,000000	13,606400
1681,000000	14,066300
1680,000000	14,544800
1679,000000	15,021200
1678,000000	15,505700
1677,000000	15,928100
1676,000000	16,307600
1675,000000	16,618800
1674,000000	16,888600
1673,000000	17,141000
1672,000000	17,353300
1671,000000	17,547100
1670,000000	17,699200
1669,000000	17,818900
1668,000000	17,935900
1667,000000	18,030000
1666,000000	18,140100
1665,000000	18,199500
1664,000000	18,261900
1663,000000	18,314600
1662,000000	18,367800
1661,000000	18,406800
1660,000000	18,415700
1659,000000	18,443100
1658,000000	18,461400
1657,000000	18,467600
1656,000000	18,473900
1655,000000	18,481500
1654,000000	18,470600
1653,000000	18,445600
1652,000000	18,426500
1651,000000	18,405100
1650,000000	18,363500
1649,000000	18,324600
1648,000000	18,300000
1647,000000	18,263900
1646,000000	18,213700
1645,000000	18,168200
1644,000000	18,123400
1643,000000	18,069000
1642,000000	18,034500
1641,000000	17,982700
1640,000000	17,923100
1639,000000	17,885000
1638,000000	17,801500
1637,000000	17,751500
1636,000000	17,688500
1635,000000	17,615300
1634,000000	17,567200
1633,000000	17,512100
1632,000000	17,440300
1631,000000	17,367000
1630,000000	17,316000
1629,000000	17,243100
1628,000000	17,167400
1627,000000	17,082800
1626,000000	17,016700
1625,000000	16,946100
1624,000000	16,887400
1623,000000	16,827100
1622,000000	16,770200
1621,000000	16,697600
1620,000000	16,629400
1619,000000	16,551100
1618,000000	16,492300
1617,000000	16,424600
1616,000000	16,366700
1615,000000	16,304100
1614,000000	16,237000
1613,000000	16,191800
1612,000000	16,128700
1611,000000	16,071300
1610,000000	16,019400
1609,000000	15,969300
1608,000000	15,912900
1607,000000	15,844800
1606,000000	15,789200
1605,000000	15,749300
1604,000000	15,696900
1603,000000	15,645200
1602,000000	15,595500
1601,000000	15,537600
1600,000000	15,494100
1599,000000	15,443400
1598,000000	15,389800
1597,000000	15,349500
1596,000000	15,314500
1595,000000	15,282700
1594,000000	15,258100
1593,000000	15,216900
1592,000000	15,174300
1591,000000	15,144600
1590,000000	15,122000
1589,000000	15,088300
1588,000000	15,054900
1587,000000	15,046200
1586,000000	15,021600
1585,000000	15,011000
1584,000000	15,007400
1583,000000	14,992500
1582,000000	14,981900
1581,000000	14,964300
1580,000000	14,958500
1579,000000	14,967700
1578,000000	14,990800
1577,000000	14,996200
1576,000000	15,014700
1575,000000	15,041200
1574,000000	15,057200
1573,000000	15,073600
1572,000000	15,084600
1571,000000	15,110000
1570,000000	15,135100
1569,000000	15,160900
1568,000000	15,185600
1567,000000	15,210500
1566,000000	15,253500
1565,000000	15,281500
1564,000000	15,309700
1563,000000	15,335000
1562,000000	15,360000
1561,000000	15,386100
1560,000000	15,409800
1559,000000	15,430900
1558,000000	15,455500
1557,000000	15,482100
1556,000000	15,504000
1555,000000	15,520000
1554,000000	15,533300
1553,000000	15,538600
1552,000000	15,554600
1551,000000	15,573000
1550,000000	15,577700
1549,000000	15,584000
1548,000000	15,597000
1547,000000	15,605400
1546,000000	15,618000
1545,000000	15,636000
1544,000000	15,644200
1543,000000	15,670400
1542,000000	15,688600
1541,000000	15,697200
1540,000000	15,699600
1539,000000	15,721500
1538,000000	15,736300
1537,000000	15,742500
1536,000000	15,755900
1535,000000	15,770200
1534,000000	15,773200
1533,000000	15,775600
1532,000000	15,775500
1531,000000	15,798100
1530,000000	15,795900
1529,000000	15,789400
1528,000000	15,803000
1527,000000	15,806300
1526,000000	15,782900
1525,000000	15,784400
1524,000000	15,784900
1523,000000	15,790600
1522,000000	15,794000
1521,000000	15,787600
1520,000000	15,779400
1519,000000	15,768400
1518,000000	15,772700
1517,000000	15,763900
1516,000000	15,759300
1515,000000	15,769600
1514,000000	15,752100
1513,000000	15,735900
1512,000000	15,729200
1511,000000	15,727300
1510,000000	15,728200
1509,000000	15,708900
1508,000000	15,700800
1507,000000	15,691200
1506,000000	15,696700
1505,000000	15,687400
1504,000000	15,683700
1503,000000	15,658800
1502,000000	15,656400
1501,000000	15,661500
1500,000000	15,671700
1499,000000	15,673500
1498,000000	15,668900
1497,000000	15,687600
1496,000000	15,685900
1495,000000	15,697100
1494,000000	15,707400
1493,000000	15,721300
1492,000000	15,748200
1491,000000	15,751600
1490,000000	15,765200
1489,000000	15,789100
1488,000000	15,807000
1487,000000	15,824800
1486,000000	15,834200
1485,000000	15,857700
1484,000000	15,869200
1483,000000	15,908400
1482,000000	15,951700
1481,000000	15,975500
1480,000000	16,027200
1479,000000	16,057500
1478,000000	16,083700
1477,000000	16,112700
1476,000000	16,143800
1475,000000	16,203600
1474,000000	16,254200
1473,000000	16,276900
1472,000000	16,326100
1471,000000	16,356100
1470,000000	16,391300
1469,000000	16,430100
1468,000000	16,492300
1467,000000	16,513000
1466,000000	16,586500
1465,000000	16,636100
1464,000000	16,679500
1463,000000	16,768200
1462,000000	16,835700
1461,000000	16,907300
1460,000000	16,966500
1459,000000	17,060500
1458,000000	17,151400
1457,000000	17,249200
1456,000000	17,338800
1455,000000	17,421800
1454,000000	17,556800
1453,000000	17,656600
1452,000000	17,776600
1451,000000	17,888200
1450,000000	17,985400
1449,000000	18,075200
1448,000000	18,206400
1447,000000	18,353500
1446,000000	18,472300
1445,000000	18,591700
1444,000000	18,716600
1443,000000	18,847000
1442,000000	18,982300
1441,000000	19,124000
1440,000000	19,268500
1439,000000	19,384800
1438,000000	19,498600
1437,000000	19,621900
1436,000000	19,743900
1435,000000	19,861500
1434,000000	20,004500
1433,000000	20,130100
1432,000000	20,272900
1431,000000	20,424600
1430,000000	20,566900
1429,000000	20,729400
1428,000000	20,929600
1427,000000	21,132500
1426,000000	21,342700
1425,000000	21,554000
1424,000000	21,784600
1423,000000	21,984100
1422,000000	22,191500
1421,000000	22,426000
1420,000000	22,651300
1419,000000	22,866300
1418,000000	23,028100
1417,000000	23,248400
1416,000000	23,469600
1415,000000	23,664100
1414,000000	23,865900
1413,000000	24,015300
1412,000000	24,230600
1411,000000	24,504900
1410,000000	24,816900
1409,000000	25,153900
1408,000000	25,483000
1407,000000	25,834400
1406,000000	26,220000
1405,000000	26,572100
1404,000000	26,914200
1403,000000	27,268900
1402,000000	27,683200
1401,000000	28,024100
1400,000000	28,261100
1399,000000	28,414300
1398,000000	28,608700
1397,000000	28,799400
1396,000000	28,976300
1395,000000	29,037700
1394,000000	29,144700
1393,000000	29,291000
1392,000000	29,422800
1391,000000	29,545600
1390,000000	29,746900
1389,000000	30,029600
1388,000000	30,267900
1387,000000	30,591200
1386,000000	30,943000
1385,000000	31,342100
1384,000000	31,744200
1383,000000	32,061300
1382,000000	32,310100
1381,000000	32,388500
1380,000000	32,487300
1379,000000	32,505000
1378,000000	32,557700
1377,000000	32,683200
1376,000000	32,888300
1375,000000	33,187700
1374,000000	33,573200
1373,000000	34,003500
1372,000000	34,465100
1371,000000	34,873400
1370,000000	35,251100
1369,000000	35,622400
1368,000000	35,948300
1367,000000	36,171200
1366,000000	36,434500
1365,000000	36,657700
1364,000000	36,843100
1363,000000	37,022700
1362,000000	37,191800
1361,000000	37,258300
1360,000000	37,301400
1359,000000	37,413100
1358,000000	37,635400
1357,000000	37,984200
1356,000000	38,516200
1355,000000	39,215700
1354,000000	39,924200
1353,000000	40,636000
1352,000000	41,368900
1351,000000	42,023600
1350,000000	42,595200
1349,000000	43,112700
1348,000000	43,602000
1347,000000	44,040900
1346,000000	44,470300
1345,000000	44,890600
1344,000000	45,253600
1343,000000	45,608600
1342,000000	45,962100
1341,000000	46,289300
1340,000000	46,581800
1339,000000	46,878200
1338,000000	47,162200
1337,000000	47,417000
1336,000000	47,664900
1335,000000	47,903100
1334,000000	48,126600
1333,000000	48,347300
1332,000000	48,555300
1331,000000	48,735200
1330,000000	48,910000
1329,000000	49,077800
1328,000000	49,236700
1327,000000	49,388800
1326,000000	49,543000
1325,000000	49,663600
1324,000000	49,792400
1323,000000	49,913900
1322,000000	50,027200
1321,000000	50,145500
1320,000000	50,238700
1319,000000	50,330600
1318,000000	50,431400
1317,000000	50,524800
1316,000000	50,618700
1315,000000	50,691800
1314,000000	50,773800
1313,000000	50,828600
1312,000000	50,890300
1311,000000	50,969400
1310,000000	51,018600
1309,000000	51,053900
1308,000000	51,089900
1307,000000	51,117600
1306,000000	51,139100
1305,000000	51,171200
1304,000000	51,182900
1303,000000	51,175500
1302,000000	51,174100
1301,000000	51,170500
1300,000000	51,155100
1299,000000	51,135800
1298,000000	51,130100
1297,000000	51,125800
1296,000000	51,128700
1295,000000	51,157700
1294,000000	51,172500
1293,000000	51,158300
1292,000000	51,125200
1291,000000	51,075500
1290,000000	51,028100
1289,000000	50,990800
1288,000000	50,919900
1287,000000	50,836800
1286,000000	50,762000
1285,000000	50,664700
1284,000000	50,568200
1283,000000	50,482200
1282,000000	50,380400
1281,000000	50,295400
1280,000000	50,212000
1279,000000	50,131100
1278,000000	50,049700
1277,000000	49,967500
1276,000000	49,889200
1275,000000	49,817100
1274,000000	49,756400
1273,000000	49,694900
1272,000000	49,633200
1271,000000	49,563600
1270,000000	49,518300
1269,000000	49,447000
1268,000000	49,374000
1267,000000	49,323000
1266,000000	49,250900
1265,000000	49,169000
1264,000000	49,107800
1263,000000	49,046100
1262,000000	48,996400
1261,000000	48,925700
1260,000000	48,859200
1259,000000	48,803900
1258,000000	48,727600
1257,000000	48,654400
1256,000000	48,566500
1255,000000	48,485400
1254,000000	48,416500
1253,000000	48,333100
1252,000000	48,217400
1251,000000	48,115700
1250,000000	48,001500
1249,000000	47,881600
1248,000000	47,757300
1247,000000	47,620800
1246,000000	47,473700
1245,000000	47,312500
1244,000000	47,137900
1243,000000	46,969200
1242,000000	46,778500
1241,000000	46,589200
1240,000000	46,413200
1239,000000	46,217500
1238,000000	46,006900
1237,000000	45,804200
1236,000000	45,594400
1235,000000	45,381300
1234,000000	45,168000
1233,000000	44,933700
1232,000000	44,699800
1231,000000	44,482700
1230,000000	44,246300
1229,000000	44,005200
1228,000000	43,792800
1227,000000	43,543400
1226,000000	43,301100
1225,000000	43,081000
1224,000000	42,845200
1223,000000	42,618400
1222,000000	42,387600
1221,000000	42,185800
1220,000000	41,998500
1219,000000	41,790300
1218,000000	41,614400
1217,000000	41,434400
1216,000000	41,267700
1215,000000	41,094800
1214,000000	40,950500
1213,000000	40,817000
1212,000000	40,666800
1211,000000	40,530700
1210,000000	40,416100
1209,000000	40,307000
1208,000000	40,245000
1207,000000	40,158900
1206,000000	40,125100
1205,000000	40,095000
1204,000000	40,069100
1203,000000	40,046500
1202,000000	40,022400
1201,000000	39,938300
1200,000000	39,849800
1199,000000	39,720500
1198,000000	39,545300
1197,000000	39,290800
1196,000000	38,959200
1195,000000	38,559700
1194,000000	38,062500
1193,000000	37,515400
1192,000000	36,909100
1191,000000	36,331400
1190,000000	35,845000
1189,000000	35,482200
1188,000000	35,260600
1187,000000	35,265100
1186,000000	35,379300
1185,000000	35,667000
1184,000000	36,132200
1183,000000	36,695500
1182,000000	37,368000
1181,000000	38,005300
1180,000000	38,624600
1179,000000	39,201600
1178,000000	39,683800
1177,000000	40,129900
1176,000000	40,531800
1175,000000	40,903600
1174,000000	41,318700
1173,000000	41,726700
1172,000000	42,201000
1171,000000	42,632900
1170,000000	43,114800
1169,000000	43,560000
1168,000000	44,013700
1167,000000	44,474300
1166,000000	44,969100
1165,000000	45,455100
1164,000000	45,917400
1163,000000	46,395000
1162,000000	46,822300
1161,000000	47,276200
1160,000000	47,693100
1159,000000	48,093800
1158,000000	48,437500
1157,000000	48,730600
1156,000000	48,935100
1155,000000	49,097700
1154,000000	49,148500
1153,000000	49,194600
1152,000000	49,165500
1151,000000	49,109500
1150,000000	49,070100
1149,000000	49,028100
1148,000000	49,057100
1147,000000	49,175300
1146,000000	49,378000
1145,000000	49,687900
1144,000000	50,037500
1143,000000	50,409500
1142,000000	50,800700
1141,000000	51,220900
1140,000000	51,628000
1139,000000	52,051600
1138,000000	52,495700
1137,000000	52,962900
1136,000000	53,390300
1135,000000	53,795600
1134,000000	54,117600
1133,000000	54,422800
1132,000000	54,699300
1131,000000	54,973400
1130,000000	55,210000
1129,000000	55,383200
1128,000000	55,537300
1127,000000	55,656700
1126,000000	55,742800
1125,000000	55,818200
1124,000000	55,893600
1123,000000	55,982200
1122,000000	56,029700
1121,000000	56,066300
1120,000000	56,089700
1119,000000	56,105500
1118,000000	56,124900
1117,000000	56,135300
1116,000000	56,122400
1115,000000	56,096000
1114,000000	56,059800
1113,000000	56,060400
1112,000000	56,044800
1111,000000	56,026900
1110,000000	56,000900
1109,000000	55,991300
1108,000000	55,965100
1107,000000	55,941100
1106,000000	55,903800
1105,000000	55,863000
1104,000000	55,831100
1103,000000	55,787500
1102,000000	55,749200
1101,000000	55,712200
1100,000000	55,674500
1099,000000	55,616300
1098,000000	55,552400
1097,000000	55,488500
1096,000000	55,400900
1095,000000	55,340500
1094,000000	55,277600
1093,000000	55,207100
1092,000000	55,142500
1091,000000	55,063000
1090,000000	54,991500
1089,000000	54,904000
1088,000000	54,811300
1087,000000	54,726000
1086,000000	54,654700
1085,000000	54,571200
1084,000000	54,486200
1083,000000	54,411800
1082,000000	54,336000
1081,000000	54,254200
1080,000000	54,188100
1079,000000	54,123700
1078,000000	54,040600
1077,000000	53,979000
1076,000000	53,921600
1075,000000	53,867300
1074,000000	53,798600
1073,000000	53,729400
1072,000000	53,660900
1071,000000	53,592600
1070,000000	53,539300
1069,000000	53,482100
1068,000000	53,412700
1067,000000	53,358200
1066,000000	53,301300
1065,000000	53,246200
1064,000000	53,174400
1063,000000	53,099000
1062,000000	53,039100
1061,000000	52,964200
1060,000000	52,900100
1059,000000	52,818700
1058,000000	52,735700
1057,000000	52,677500
1056,000000	52,603800
1055,000000	52,527000
1054,000000	52,441400
1053,000000	52,369800
1052,000000	52,308800
1051,000000	52,247800
1050,000000	52,176900
1049,000000	52,120100
1048,000000	52,059800
1047,000000	51,990500
1046,000000	51,914900
1045,000000	51,854900
1044,000000	51,787700
1043,000000	51,711200
1042,000000	51,658600
1041,000000	51,601900
1040,000000	51,526500
1039,000000	51,462100
1038,000000	51,406200
1037,000000	51,323100
1036,000000	51,242900
1035,000000	51,182000
1034,000000	51,112000
1033,000000	51,025700
1032,000000	50,956000
1031,000000	50,876600
1030,000000	50,798100
1029,000000	50,731600
1028,000000	50,645800
1027,000000	50,555300
1026,000000	50,477300
1025,000000	50,390700
1024,000000	50,293800
1023,000000	50,231100
1022,000000	50,171000
1021,000000	50,102400
1020,000000	50,023700
1019,000000	49,951200
1018,000000	49,901700
1017,000000	49,845500
1016,000000	49,805700
1015,000000	49,769000
1014,000000	49,732900
1013,000000	49,701100
1012,000000	49,686200
1011,000000	49,690200
1010,000000	49,689100
1009,000000	49,684000
1008,000000	49,692100
1007,000000	49,688700
1006,000000	49,688000
1005,000000	49,676700
1004,000000	49,672900
1003,000000	49,681200
1002,000000	49,673500
1001,000000	49,666700
1000,000000	49,648800
999,000000	49,650400
998,000000	49,650200
997,000000	49,631800
996,000000	49,609000
995,000000	49,592200
994,000000	49,606800
993,000000	49,604900
992,000000	49,589200
991,000000	49,586700
990,000000	49,602700
989,000000	49,612500
988,000000	49,608100
987,000000	49,623400
986,000000	49,642900
985,000000	49,642200
984,000000	49,642800
983,000000	49,664700
982,000000	49,669900
981,000000	49,682000
980,000000	49,677000
979,000000	49,686900
978,000000	49,687800
977,000000	49,698300
976,000000	49,713800
975,000000	49,726900
974,000000	49,749100
973,000000	49,740000
972,000000	49,751700
971,000000	49,781200
970,000000	49,788400
969,000000	49,792000
968,000000	49,801500
967,000000	49,821200
966,000000	49,837300
965,000000	49,848300
964,000000	49,869300
963,000000	49,908500
962,000000	49,946400
961,000000	49,973300
960,000000	50,006200
959,000000	50,056800
958,000000	50,071200
957,000000	50,128400
956,000000	50,151700
955,000000	50,192000
954,000000	50,217500
953,000000	50,261500
952,000000	50,291500
951,000000	50,318800
950,000000	50,325900
949,000000	50,345900
948,000000	50,393800
947,000000	50,427700
946,000000	50,457700
945,000000	50,503800
944,000000	50,532500
943,000000	50,571800
942,000000	50,587000
941,000000	50,643500
940,000000	50,687600
939,000000	50,735600
938,000000	50,764800
937,000000	50,819600
936,000000	50,863800
935,000000	50,961500
934,000000	51,009400
933,000000	51,069700
932,000000	51,147100
931,000000	51,177100
930,000000	51,233900
929,000000	51,275700
928,000000	51,348300
927,000000	51,423300
926,000000	51,450300
925,000000	51,491500
924,000000	51,555400
923,000000	51,612000
922,000000	51,741500
921,000000	51,776200
920,000000	51,801700
919,000000	51,853100
918,000000	51,917200
917,000000	52,028100
916,000000	52,052200
915,000000	52,114200
914,000000	52,151800
913,000000	52,203400
912,000000	52,265800
911,000000	52,337600
910,000000	52,435600
909,000000	52,494900
908,000000	52,560400
907,000000	52,674400
906,000000	52,791400
905,000000	52,871300
904,000000	52,913100
903,000000	52,997800
902,000000	53,093500
901,000000	53,224400
900,000000	53,308800
899,000000	53,393000
898,000000	53,484200
897,000000	53,563700
896,000000	53,595800
895,000000	53,615000
894,000000	53,685200
893,000000	53,756100
892,000000	53,822900
891,000000	53,805200
890,000000	53,758600
889,000000	53,745200
888,000000	53,791400
887,000000	53,710000
886,000000	53,723000
885,000000	53,719300
884,000000	53,664200
883,000000	53,608600
882,000000	53,535100
881,000000	53,520700
880,000000	53,432700
879,000000	53,380300
878,000000	53,285400
877,000000	53,244400
876,000000	53,157100
875,000000	53,118100
874,000000	53,035300
873,000000	52,951400
872,000000	52,797600
871,000000	52,653400
870,000000	52,480400
869,000000	52,316900
868,000000	52,232100
867,000000	52,303300
866,000000	52,443100
865,000000	52,607300
864,000000	52,774500
863,000000	52,892600
862,000000	53,042400
861,000000	53,203200
860,000000	53,350200
859,000000	53,485300
858,000000	55,311600
857,000000	65,076200
856,000000	64,629300
855,000000	64,388000
854,000000	65,143900
853,000000	65,382000
852,000000	65,350700
851,000000	65,394900
850,000000	65,536000
849,000000	66,129700
848,000000	66,242700
847,000000	66,344800
846,000000	66,531900
845,000000	66,588600
844,000000	66,943700
843,000000	67,097600
842,000000	67,215300
841,000000	67,239200
840,000000	67,396900
839,000000	67,421900
838,000000	67,584200
837,000000	67,705200
836,000000	67,828500
835,000000	68,058500
834,000000	68,173900
833,000000	68,200300
832,000000	68,348300
831,000000	68,658500
830,000000	68,623000
829,000000	68,869100
828,000000	68,900900
827,000000	68,991200
826,000000	69,204500
825,000000	69,651600
824,000000	69,890800
823,000000	69,981800
822,000000	70,206500
821,000000	70,530200
820,000000	70,821700
819,000000	70,850600
818,000000	71,235200
817,000000	71,654600
816,000000	72,013000
815,000000	72,303900
814,000000	72,740900
813,000000	72,917800
812,000000	73,314400
811,000000	73,769600
810,000000	74,135100
809,000000	74,530100
808,000000	74,948100
807,000000	75,385000
806,000000	75,793500
805,000000	76,060000
804,000000	76,466900
803,000000	76,938300
802,000000	77,418400
801,000000	77,995400
800,000000	78,345900
799,000000	78,662700
798,000000	79,141200
797,000000	79,535000
796,000000	79,931100
795,000000	80,402100
794,000000	80,732700
793,000000	81,230200
792,000000	81,711100
791,000000	82,256300
790,000000	82,693700
789,000000	83,216300
788,000000	83,625700
787,000000	84,030200
786,000000	84,392000
785,000000	84,771800
784,000000	85,262600
783,000000	85,682800
782,000000	86,176600
781,000000	86,636200
780,000000	86,931700
779,000000	87,353700
778,000000	87,771900
777,000000	88,088900
776,000000	88,454600
775,000000	88,776600
774,000000	89,154200
773,000000	89,469400
772,000000	89,776400
771,000000	90,141000
770,000000	90,393900
769,000000	90,746200
768,000000	90,981600
767,000000	91,218500
766,000000	91,527100
765,000000	91,799500
764,000000	92,032100
763,000000	92,225100
762,000000	92,358900
761,000000	92,523900
760,000000	92,710300
759,000000	92,937500
758,000000	93,060500
757,000000	93,085500
756,000000	93,254700
755,000000	93,418300
754,000000	93,505000
753,000000	93,673500
752,000000	93,788000
751,000000	93,900300
750,000000	94,002300
749,000000	94,095100
748,000000	94,142600
747,000000	94,147500
746,000000	94,148700
745,000000	94,085300
744,000000	94,115300
743,000000	94,232700
742,000000	94,238500
741,000000	94,218500
740,000000	94,148800
739,000000	94,108500
738,000000	94,142200
737,000000	94,127700
736,000000	94,066000
735,000000	94,057600
734,000000	94,004400
733,000000	93,930800
732,000000	93,859600
731,000000	93,747900
730,000000	93,706000
729,000000	93,516700
728,000000	93,431400
727,000000	93,464500
726,000000	93,347300
725,000000	93,212700
724,000000	93,086900
723,000000	92,963200
722,000000	92,918600
721,000000	92,730100
720,000000	92,495700
719,000000	92,272000
718,000000	92,102600
717,000000	91,994500
716,000000	91,827300
715,000000	91,671600
714,000000	91,548100
713,000000	91,328400
712,000000	91,089800
711,000000	90,884100
710,000000	90,673300
709,000000	90,553800
708,000000	90,389600
707,000000	90,217200
706,000000	89,986200
705,000000	89,751800
704,000000	89,492600
703,000000	89,254700
702,000000	89,036800
701,000000	88,803100
700,000000	88,587300
699,000000	88,274400
698,000000	88,040500
697,000000	87,762400
696,000000	87,474100
695,000000	87,138900
694,000000	86,800900
693,000000	86,483300
692,000000	86,128500
691,000000	85,719600
690,000000	85,296100
689,000000	84,874500
688,000000	84,439600
687,000000	84,110300
686,000000	83,649900
685,000000	83,156300
684,000000	82,631800
683,000000	82,141700
682,000000	81,669900
681,000000	81,225200
680,000000	80,712600
679,000000	80,216900
678,000000	79,727400
677,000000	79,290600
676,000000	78,816400
675,000000	78,322200
674,000000	77,808700
673,000000	77,322100
672,000000	76,825500
671,000000	76,435800
670,000000	75,961700
669,000000	75,537000
668,000000	75,136900
667,000000	74,707100
666,000000	74,345800
665,000000	74,058200
664,000000	73,766200
663,000000	73,463300
662,000000	73,138000
661,000000	72,863800
660,000000	72,567500
659,000000	72,254600
658,000000	71,949200
657,000000	71,642500
656,000000	71,290600
655,000000	71,036900
654,000000	70,668500
653,000000	70,369200
652,000000	69,985700
651,000000	69,608200
650,000000	69,246200
649,000000	68,866700
648,000000	68,512400
647,000000	68,141900
646,000000	67,776300
645,000000	67,415400
644,000000	67,017100
643,000000	66,651400
642,000000	66,253900
641,000000	65,849000
640,000000	65,441400
639,000000	65,098500
638,000000	64,680300
637,000000	64,290500
636,000000	63,983200
635,000000	63,629800
634,000000	63,289500
633,000000	62,998800
632,000000	62,718000
631,000000	62,480200
630,000000	62,199600
629,000000	62,003800
628,000000	61,837200
627,000000	61,704800
626,000000	61,684600
625,000000	61,631200
624,000000	61,620400
623,000000	61,652100
622,000000	61,734400
621,000000	61,772600
620,000000	61,865000
619,000000	61,934200
618,000000	62,082600
617,000000	62,225800
616,000000	62,345500
615,000000	62,460500
614,000000	62,729300
613,000000	62,889500
612,000000	63,077800
611,000000	63,341400
610,000000	63,562100
609,000000	63,797600
608,000000	64,063500
607,000000	64,336700
606,000000	64,589100
605,000000	64,977400
604,000000	65,298900
603,000000	65,658800
602,000000	66,015600
601,000000	66,363300
600,000000	66,736100
599,000000	67,112300
598,000000	67,470700
597,000000	67,809600
596,000000	68,135100
595,000000	68,488800
594,000000	68,798100
593,000000	69,113000
592,000000	69,491200
591,000000	69,827000
590,000000	70,115900
589,000000	70,427900
588,000000	70,725200
587,000000	71,039700
586,000000	71,373200
585,000000	71,609700
584,000000	71,872900
583,000000	72,089500
582,000000	72,320800
581,000000	72,565000
580,000000	72,715000
579,000000	72,878000
578,000000	73,020600
577,000000	73,166100
576,000000	73,283400
575,000000	73,354200
574,000000	73,489200
573,000000	73,550300
572,000000	73,555600
571,000000	73,568600
570,000000	73,567500
569,000000	73,559800
568,000000	73,500300
567,000000	73,458000
566,000000	73,360500
565,000000	73,299500
564,000000	73,187100
563,000000	73,080300
562,000000	72,950500
561,000000	72,794100
560,000000	72,695000
559,000000	72,626800
558,000000	72,465700
557,000000	72,263000
556,000000	72,052700
555,000000	71,783200
554,000000	71,534100
553,000000	71,256100
552,000000	70,960600
551,000000	70,645500
550,000000	70,339600
549,000000	69,982600
548,000000	69,565800
547,000000	69,226500
546,000000	68,806500
545,000000	68,398500
544,000000	67,935800
543,000000	67,468100
542,000000	67,016000
541,000000	66,493000
540,000000	65,998200
539,000000	65,467100
538,000000	64,905600
537,000000	64,336300
536,000000	63,751600
535,000000	63,131200
534,000000	62,496200
533,000000	61,843400
532,000000	61,172300
531,000000	60,516800
530,000000	59,866600
529,000000	59,166800
528,000000	58,439900
527,000000	57,700100
526,000000	56,941200
525,000000	56,197400
524,000000	55,432500
523,000000	54,699700
522,000000	53,937500
521,000000	53,138500
520,000000	52,358600
519,000000	51,579300
518,000000	50,812800
517,000000	50,058700
516,000000	49,314500
515,000000	48,561300
514,000000	47,834900
513,000000	47,125700
512,000000	46,455000
511,000000	45,780100
510,000000	45,123500
509,000000	44,487500
508,000000	43,887300
507,000000	43,321600
506,000000	42,794900
505,000000	42,270000
504,000000	41,739300
503,000000	41,236300
502,000000	40,764300
501,000000	40,295600
500,000000	39,833300
499,000000	39,370400
498,000000	38,962000
497,000000	38,542600
496,000000	38,125400
495,000000	37,704100
494,000000	37,299000
493,000000	36,890800
492,000000	36,447800
491,000000	36,002700
490,000000	35,576900
489,000000	35,154700
488,000000	34,722200
487,000000	34,274700
486,000000	33,825300
485,000000	33,398300
484,000000	32,966200
483,000000	32,518900
482,000000	32,079600
481,000000	31,649400
480,000000	31,202200
479,000000	30,791400
478,000000	30,405300
477,000000	30,015500
476,000000	29,676700
475,000000	29,350300
474,000000	29,044800
473,000000	28,741100
472,000000	28,465100
471,000000	28,225500
470,000000	27,996400
469,000000	27,780100
468,000000	27,615700
467,000000	27,467900
466,000000	27,303900
465,000000	27,185800
464,000000	27,098000
463,000000	27,020700
462,000000	26,943500
461,000000	26,885800
460,000000	26,853600
459,000000	26,822700
458,000000	26,766200
457,000000	26,727000
456,000000	26,719200
455,000000	26,695100
454,000000	26,682900
453,000000	26,667200
452,000000	26,648900
451,000000	26,629100
450,000000	26,594400
449,000000	26,548000
448,000000	26,494800
447,000000	26,455600
446,000000	26,412000
445,000000	26,346100
444,000000	26,272800
443,000000	26,154600
442,000000	26,021900
441,000000	25,894800
440,000000	25,743600
439,000000	25,587400
438,000000	25,433100
437,000000	25,275200
436,000000	25,098400
435,000000	24,900400
434,000000	24,700500
433,000000	24,485700
432,000000	24,245600
431,000000	24,003100
430,000000	23,769300
429,000000	23,493700
428,000000	23,212500
427,000000	22,932500
426,000000	22,615700
425,000000	22,311800
424,000000	21,984300
423,000000	21,645300
422,000000	21,298400
421,000000	20,906700
420,000000	20,516900
419,000000	20,126900
418,000000	19,728600
417,000000	19,311600
416,000000	18,898700
415,000000	18,506400
414,000000	18,058100
413,000000	17,606600
412,000000	17,168000
411,000000	16,733100
410,000000	16,295400
409,000000	15,862600
408,000000	15,455200
407,000000	15,035500
406,000000	14,610700
405,000000	14,197000
404,000000	13,771700
403,000000	13,362800
402,000000	12,980200
401,000000	12,605400
400,000000	12,213500
399,000000	11,850400
398,000000	11,509000
397,000000	11,178200
396,000000	10,841200
395,000000	10,544900
394,000000	10,245200
393,000000	9,948400
392,000000	9,650500
391,000000	9,385000
390,000000	9,163800
389,000000	8,909300
388,000000	8,691600
387,000000	8,493400
386,000000	8,305700
385,000000	8,107100
384,000000	7,906100
383,000000	7,749700
382,000000	7,619200
381,000000	7,481900
380,000000	7,334400
379,000000	7,207200
378,000000	7,092100
377,000000	6,991800
376,000000	7,022800
375,000000	6,636000
374,000000	6,382500
373,000000	6,340900
372,000000	6,291800
371,000000	6,161300
370,000000	6,107300
369,000000	6,176900
368,000000	6,191700
367,000000	6,141800
366,000000	6,127100
365,000000	6,102300
364,000000	6,119500
363,000000	6,152700
362,000000	6,164300
361,000000	6,047500
360,000000	6,037300
359,000000	6,040900
358,000000	5,951600
357,000000	5,870100
356,000000	5,898100
355,000000	5,893600
354,000000	5,874800
353,000000	5,772600
352,000000	5,726000
351,000000	5,773300
350,000000	5,464700
349,000000	5,714900
348,000000	5,750800
347,000000	5,703000
346,000000	5,757700
345,000000	5,794900
344,000000	5,569400
343,000000	5,621800
342,000000	5,494900
341,000000	5,709000
340,000000	5,771600
339,000000	5,523500
338,000000	5,631400
337,000000	5,587300
336,000000	5,417600
335,000000	5,464200
334,000000	5,670900
333,000000	5,720500
332,000000	5,584000
331,000000	5,476900
330,000000	5,696600
329,000000	5,741500
328,000000	5,677700
327,000000	5,590800
326,000000	5,748200
325,000000	5,813900
324,000000	5,724700
323,000000	5,722000
322,000000	5,468000
321,000000	5,725300
320,000000	5,639100
319,000000	5,874100
318,000000	6,049900
317,000000	5,693000
316,000000	5,332100
315,000000	5,242100
314,000000	5,282300
313,000000	5,235800
312,000000	5,260100
311,000000	5,303200
310,000000	5,302200
309,000000	5,332100
308,000000	5,372100
307,000000	5,342500
306,000000	5,345000
305,000000	5,280400
304,000000	5,346700
303,000000	5,289400
302,000000	5,279300
301,000000	5,308800
300,000000	5,323500
299,000000	5,290700
298,000000	5,342900
297,000000	5,328600
296,000000	5,325600
295,000000	5,341900
294,000000	5,332200
293,000000	5,356500
292,000000	5,364700
291,000000	5,324600
290,000000	5,305900
289,000000	5,385100
288,000000	5,364300
287,000000	5,402500
286,000000	5,358100
285,000000	5,349900
284,000000	5,402600
283,000000	5,444600
282,000000	5,395800
281,000000	5,411200
280,000000	5,420600
279,000000	5,483300
278,000000	5,434300
277,000000	5,412600
276,000000	5,451000
275,000000	5,414200
274,000000	5,391900
273,000000	5,518600
272,000000	5,505100
271,000000	5,538800
270,000000	5,474900
269,000000	5,549600
268,000000	5,562600
267,000000	5,581400
266,000000	5,607900
265,000000	5,630500
264,000000	5,598800
263,000000	5,710100
262,000000	5,666700
261,000000	5,684900
260,000000	5,690800
259,000000	5,712200
258,000000	5,685800
257,000000	5,768800
256,000000	5,745400
255,000000	5,752600
254,000000	5,752700
253,000000	5,754200
252,000000	5,749300
251,000000	5,731300
250,000000	5,842800
