PE UV       SUBTECH     SPECTRUM    ASCII       PEDS        4.00        
   -1
CICIMAUCR0100-1.Sample.ASC
24/04/18
15:25:56.00
24/04/18
15:25:56.00
Vinicio Soto Monge
C. cupreomarginata
250,000000
1
Lambda 1050
1050L1511233
PerkinElmer UV WinLab 6.3.2.0749 / 2.02.05 Lambda 900 UV/VIS/NIR, Aug  7 2015 09:38:08

0
0
3350/servo 860,8/2
0
0
UV/VIS
1
1
1
DoubleDePol,CommonBeamDepol,RBeamAtt,SBeamAtt,60mm sphere, WB InGaAs Detector
0
0
0
0
Program
Program
3350/servo 860,8/2
3350/0,2 860,8/0,2
3350/0,2 860,8/0,2
0
15.00
 
 
 
0
 
860,8
319,2
860,8
Front
100
on
S:100 R:100
0
0
0
0
 
0
 
 
 
0
 
 
0
0
0
0
0
 
 
 
 
0
0


0
0
#HDR
-1
-1
#GR
nm
%R
1.0
0.0
2500,000000
-1,000000
2251
8
67,533200
4,656700
#DATA
2500,000000	9,357300
2499,000000	9,290500
2498,000000	9,220300
2497,000000	9,220300
2496,000000	9,243800
2495,000000	9,160200
2494,000000	9,231000
2493,000000	9,122000
2492,000000	9,131600
2491,000000	9,163400
2490,000000	9,125600
2489,000000	9,089800
2488,000000	9,100200
2487,000000	9,061200
2486,000000	9,079500
2485,000000	9,109900
2484,000000	9,033600
2483,000000	9,075900
2482,000000	9,085700
2481,000000	9,060200
2480,000000	9,077900
2479,000000	9,089500
2478,000000	9,044500
2477,000000	9,063800
2476,000000	9,087100
2475,000000	9,128000
2474,000000	9,064300
2473,000000	9,057600
2472,000000	9,074100
2471,000000	9,105000
2470,000000	9,137600
2469,000000	9,126100
2468,000000	9,128500
2467,000000	9,121100
2466,000000	9,171600
2465,000000	9,188400
2464,000000	9,245500
2463,000000	9,262400
2462,000000	9,282300
2461,000000	9,331800
2460,000000	9,371900
2459,000000	9,420400
2458,000000	9,504100
2457,000000	9,560000
2456,000000	9,609000
2455,000000	9,655800
2454,000000	9,730300
2453,000000	9,809000
2452,000000	9,891300
2451,000000	9,950300
2450,000000	10,055900
2449,000000	10,107900
2448,000000	10,170000
2447,000000	10,265800
2446,000000	10,353600
2445,000000	10,436100
2444,000000	10,495700
2443,000000	10,567600
2442,000000	10,647900
2441,000000	10,741900
2440,000000	10,818900
2439,000000	10,876700
2438,000000	10,955900
2437,000000	11,016800
2436,000000	11,078600
2435,000000	11,169600
2434,000000	11,218800
2433,000000	11,270400
2432,000000	11,342500
2431,000000	11,392900
2430,000000	11,439900
2429,000000	11,500600
2428,000000	11,560100
2427,000000	11,613600
2426,000000	11,628800
2425,000000	11,676500
2424,000000	11,741900
2423,000000	11,772000
2422,000000	11,808200
2421,000000	11,833500
2420,000000	11,861800
2419,000000	11,895300
2418,000000	11,922000
2417,000000	11,951400
2416,000000	11,976800
2415,000000	12,007800
2414,000000	12,042100
2413,000000	12,074700
2412,000000	12,092400
2411,000000	12,118800
2410,000000	12,138900
2409,000000	12,157000
2408,000000	12,176100
2407,000000	12,198900
2406,000000	12,222800
2405,000000	12,250900
2404,000000	12,289000
2403,000000	12,305900
2402,000000	12,312700
2401,000000	12,322200
2400,000000	12,354200
2399,000000	12,399800
2398,000000	12,417000
2397,000000	12,439100
2396,000000	12,472200
2395,000000	12,493000
2394,000000	12,516800
2393,000000	12,538100
2392,000000	12,565300
2391,000000	12,574900
2390,000000	12,596700
2389,000000	12,614400
2388,000000	12,624100
2387,000000	12,637300
2386,000000	12,640400
2385,000000	12,636000
2384,000000	12,641900
2383,000000	12,626700
2382,000000	12,626600
2381,000000	12,654300
2380,000000	12,639200
2379,000000	12,610600
2378,000000	12,608000
2377,000000	12,588100
2376,000000	12,562000
2375,000000	12,557500
2374,000000	12,541800
2373,000000	12,498800
2372,000000	12,468400
2371,000000	12,451200
2370,000000	12,417200
2369,000000	12,382200
2368,000000	12,342500
2367,000000	12,293200
2366,000000	12,237500
2365,000000	12,190600
2364,000000	12,146100
2363,000000	12,081800
2362,000000	12,011800
2361,000000	11,951900
2360,000000	11,906700
2359,000000	11,837700
2358,000000	11,760900
2357,000000	11,724300
2356,000000	11,677400
2355,000000	11,630800
2354,000000	11,605600
2353,000000	11,575800
2352,000000	11,552200
2351,000000	11,564000
2350,000000	11,567600
2349,000000	11,577600
2348,000000	11,605700
2347,000000	11,644500
2346,000000	11,684800
2345,000000	11,727900
2344,000000	11,776200
2343,000000	11,817300
2342,000000	11,858800
2341,000000	11,902200
2340,000000	11,946700
2339,000000	11,965400
2338,000000	11,988200
2337,000000	12,024100
2336,000000	12,022500
2335,000000	12,014800
2334,000000	12,019900
2333,000000	11,979000
2332,000000	11,949000
2331,000000	11,933200
2330,000000	11,894600
2329,000000	11,848400
2328,000000	11,794500
2327,000000	11,734400
2326,000000	11,684300
2325,000000	11,619600
2324,000000	11,538200
2323,000000	11,463300
2322,000000	11,383400
2321,000000	11,272700
2320,000000	11,174800
2319,000000	11,072200
2318,000000	10,953900
2317,000000	10,840700
2316,000000	10,736500
2315,000000	10,622200
2314,000000	10,507100
2313,000000	10,400300
2312,000000	10,302700
2311,000000	10,209500
2310,000000	10,122200
2309,000000	10,061300
2308,000000	9,999600
2307,000000	9,939800
2306,000000	9,934500
2305,000000	9,927100
2304,000000	9,933100
2303,000000	9,978600
2302,000000	10,024900
2301,000000	10,102400
2300,000000	10,162600
2299,000000	10,241000
2298,000000	10,347500
2297,000000	10,440200
2296,000000	10,534300
2295,000000	10,638400
2294,000000	10,723400
2293,000000	10,784300
2292,000000	10,852900
2291,000000	10,903600
2290,000000	10,952200
2289,000000	10,979300
2288,000000	10,990200
2287,000000	10,985300
2286,000000	10,978600
2285,000000	10,968200
2284,000000	10,927100
2283,000000	10,906200
2282,000000	10,880500
2281,000000	10,812700
2280,000000	10,774400
2279,000000	10,707800
2278,000000	10,667600
2277,000000	10,639400
2276,000000	10,589400
2275,000000	10,540100
2274,000000	10,522500
2273,000000	10,497600
2272,000000	10,493000
2271,000000	10,479800
2270,000000	10,499000
2269,000000	10,528100
2268,000000	10,581400
2267,000000	10,677500
2266,000000	10,783400
2265,000000	10,873300
2264,000000	11,017700
2263,000000	11,185800
2262,000000	11,353400
2261,000000	11,561700
2260,000000	11,772800
2259,000000	12,018500
2258,000000	12,285900
2257,000000	12,537100
2256,000000	12,794800
2255,000000	13,049700
2254,000000	13,326700
2253,000000	13,570300
2252,000000	13,814300
2251,000000	14,090000
2250,000000	14,299100
2249,000000	14,536700
2248,000000	14,741700
2247,000000	14,937800
2246,000000	15,118000
2245,000000	15,274800
2244,000000	15,433000
2243,000000	15,584500
2242,000000	15,724100
2241,000000	15,849000
2240,000000	15,950400
2239,000000	16,077900
2238,000000	16,143200
2237,000000	16,238100
2236,000000	16,337100
2235,000000	16,417800
2234,000000	16,475200
2233,000000	16,531300
2232,000000	16,574300
2231,000000	16,629200
2230,000000	16,654200
2229,000000	16,706200
2228,000000	16,723700
2227,000000	16,717800
2226,000000	16,713400
2225,000000	16,738000
2224,000000	16,726100
2223,000000	16,714200
2222,000000	16,689400
2221,000000	16,673300
2220,000000	16,663700
2219,000000	16,657300
2218,000000	16,617300
2217,000000	16,595200
2216,000000	16,557100
2215,000000	16,513500
2214,000000	16,496200
2213,000000	16,457200
2212,000000	16,421100
2211,000000	16,407200
2210,000000	16,364700
2209,000000	16,333800
2208,000000	16,303300
2207,000000	16,307300
2206,000000	16,284900
2205,000000	16,260500
2204,000000	16,259700
2203,000000	16,212600
2202,000000	16,206800
2201,000000	16,195900
2200,000000	16,170200
2199,000000	16,161500
2198,000000	16,134000
2197,000000	16,129500
2196,000000	16,120600
2195,000000	16,122200
2194,000000	16,120700
2193,000000	16,086300
2192,000000	16,074200
2191,000000	16,067700
2190,000000	16,056100
2189,000000	16,056600
2188,000000	16,037100
2187,000000	16,045700
2186,000000	16,018800
2185,000000	16,001400
2184,000000	15,981700
2183,000000	15,967800
2182,000000	15,944800
2181,000000	15,928600
2180,000000	15,936200
2179,000000	15,915700
2178,000000	15,901800
2177,000000	15,892300
2176,000000	15,896000
2175,000000	15,888000
2174,000000	15,894500
2173,000000	15,889900
2172,000000	15,897000
2171,000000	15,892000
2170,000000	15,911600
2169,000000	15,927900
2168,000000	15,937300
2167,000000	15,968800
2166,000000	16,001300
2165,000000	16,019500
2164,000000	16,032200
2163,000000	16,056600
2162,000000	16,081500
2161,000000	16,115300
2160,000000	16,143600
2159,000000	16,180300
2158,000000	16,214000
2157,000000	16,257000
2156,000000	16,297300
2155,000000	16,334500
2154,000000	16,395000
2153,000000	16,451100
2152,000000	16,492800
2151,000000	16,555100
2150,000000	16,606800
2149,000000	16,654200
2148,000000	16,705200
2147,000000	16,738700
2146,000000	16,788900
2145,000000	16,827400
2144,000000	16,884900
2143,000000	16,931100
2142,000000	16,952800
2141,000000	17,005000
2140,000000	17,066200
2139,000000	17,094500
2138,000000	17,120600
2137,000000	17,155400
2136,000000	17,184600
2135,000000	17,218700
2134,000000	17,246900
2133,000000	17,266600
2132,000000	17,287900
2131,000000	17,331100
2130,000000	17,334600
2129,000000	17,335900
2128,000000	17,362500
2127,000000	17,371800
2126,000000	17,379300
2125,000000	17,383800
2124,000000	17,377000
2123,000000	17,368800
2122,000000	17,370900
2121,000000	17,360900
2120,000000	17,342500
2119,000000	17,332600
2118,000000	17,303200
2117,000000	17,291200
2116,000000	17,280600
2115,000000	17,245400
2114,000000	17,219600
2113,000000	17,209600
2112,000000	17,203700
2111,000000	17,164700
2110,000000	17,121300
2109,000000	17,099900
2108,000000	17,078500
2107,000000	17,044200
2106,000000	17,019100
2105,000000	16,993200
2104,000000	16,971300
2103,000000	16,954600
2102,000000	16,919700
2101,000000	16,892800
2100,000000	16,857200
2099,000000	16,822900
2098,000000	16,816600
2097,000000	16,788100
2096,000000	16,750400
2095,000000	16,730200
2094,000000	16,709800
2093,000000	16,696200
2092,000000	16,688000
2091,000000	16,658900
2090,000000	16,629300
2089,000000	16,617500
2088,000000	16,613200
2087,000000	16,579700
2086,000000	16,546600
2085,000000	16,535500
2084,000000	16,514600
2083,000000	16,481000
2082,000000	16,448900
2081,000000	16,416900
2080,000000	16,399900
2079,000000	16,366200
2078,000000	16,319000
2077,000000	16,278300
2076,000000	16,244200
2075,000000	16,204500
2074,000000	16,163100
2073,000000	16,123900
2072,000000	16,079100
2071,000000	16,037000
2070,000000	15,993700
2069,000000	15,944900
2068,000000	15,895600
2067,000000	15,852300
2066,000000	15,803600
2065,000000	15,758300
2064,000000	15,726200
2063,000000	15,680600
2062,000000	15,666900
2061,000000	15,644000
2060,000000	15,605400
2059,000000	15,590500
2058,000000	15,577300
2057,000000	15,579100
2056,000000	15,573700
2055,000000	15,596600
2054,000000	15,631700
2053,000000	15,678900
2052,000000	15,725900
2051,000000	15,787100
2050,000000	15,866900
2049,000000	15,945500
2048,000000	16,036400
2047,000000	16,130700
2046,000000	16,242900
2045,000000	16,356500
2044,000000	16,484500
2043,000000	16,592000
2042,000000	16,718800
2041,000000	16,825800
2040,000000	16,935500
2039,000000	17,068800
2038,000000	17,197800
2037,000000	17,300100
2036,000000	17,413400
2035,000000	17,503700
2034,000000	17,588500
2033,000000	17,687800
2032,000000	17,763800
2031,000000	17,860500
2030,000000	17,951600
2029,000000	18,031100
2028,000000	18,075900
2027,000000	18,125400
2026,000000	18,193300
2025,000000	18,255500
2024,000000	18,317300
2023,000000	18,363900
2022,000000	18,423700
2021,000000	18,454000
2020,000000	18,505200
2019,000000	18,537700
2018,000000	18,582100
2017,000000	18,614000
2016,000000	18,626300
2015,000000	18,652200
2014,000000	18,656500
2013,000000	18,696600
2012,000000	18,705700
2011,000000	18,686800
2010,000000	18,680000
2009,000000	18,703100
2008,000000	18,680700
2007,000000	18,684500
2006,000000	18,663200
2005,000000	18,648600
2004,000000	18,613500
2003,000000	18,581100
2002,000000	18,525800
2001,000000	18,494200
2000,000000	18,472400
1999,000000	18,418300
1998,000000	18,373900
1997,000000	18,318300
1996,000000	18,245400
1995,000000	18,201900
1994,000000	18,139100
1993,000000	18,053900
1992,000000	17,992000
1991,000000	17,914300
1990,000000	17,839600
1989,000000	17,786300
1988,000000	17,690000
1987,000000	17,631800
1986,000000	17,539700
1985,000000	17,472500
1984,000000	17,352000
1983,000000	17,283100
1982,000000	17,181700
1981,000000	17,118300
1980,000000	17,031000
1979,000000	16,934700
1978,000000	16,850700
1977,000000	16,755900
1976,000000	16,678200
1975,000000	16,599900
1974,000000	16,506000
1973,000000	16,426800
1972,000000	16,348600
1971,000000	16,265400
1970,000000	16,197100
1969,000000	16,114400
1968,000000	16,033900
1967,000000	15,968200
1966,000000	15,904000
1965,000000	15,798200
1964,000000	15,737500
1963,000000	15,660500
1962,000000	15,591600
1961,000000	15,532600
1960,000000	15,441200
1959,000000	15,375400
1958,000000	15,295600
1957,000000	15,244500
1956,000000	15,155700
1955,000000	15,083200
1954,000000	15,014300
1953,000000	14,957500
1952,000000	14,864400
1951,000000	14,795400
1950,000000	14,734600
1949,000000	14,700500
1948,000000	14,648400
1947,000000	14,599900
1946,000000	14,526400
1945,000000	14,507800
1944,000000	14,462200
1943,000000	14,433700
1942,000000	14,411800
1941,000000	14,398600
1940,000000	14,387300
1939,000000	14,394800
1938,000000	14,381700
1937,000000	14,383100
1936,000000	14,399900
1935,000000	14,426300
1934,000000	14,447200
1933,000000	14,507300
1932,000000	14,547200
1931,000000	14,609500
1930,000000	14,679600
1929,000000	14,765600
1928,000000	14,863300
1927,000000	14,957700
1926,000000	15,036400
1925,000000	15,159100
1924,000000	15,305000
1923,000000	15,443200
1922,000000	15,574000
1921,000000	15,741500
1920,000000	15,902600
1919,000000	16,055300
1918,000000	16,235700
1917,000000	16,437100
1916,000000	16,630000
1915,000000	16,823000
1914,000000	17,042200
1913,000000	17,310600
1912,000000	17,538500
1911,000000	17,753400
1910,000000	18,016200
1909,000000	18,258800
1908,000000	18,512200
1907,000000	18,779200
1906,000000	19,102000
1905,000000	19,410700
1904,000000	19,726300
1903,000000	20,025500
1902,000000	20,353600
1901,000000	20,646200
1900,000000	21,008700
1899,000000	21,369400
1898,000000	21,688800
1897,000000	22,072300
1896,000000	22,411600
1895,000000	22,738500
1894,000000	23,094000
1893,000000	23,476400
1892,000000	23,873900
1891,000000	24,284000
1890,000000	24,681500
1889,000000	25,061900
1888,000000	25,491400
1887,000000	25,902200
1886,000000	26,343300
1885,000000	26,814900
1884,000000	27,360900
1883,000000	27,910800
1882,000000	28,418500
1881,000000	28,972400
1880,000000	29,511500
1879,000000	30,006700
1878,000000	30,487900
1877,000000	30,925700
1876,000000	31,343400
1875,000000	31,734900
1874,000000	32,106900
1873,000000	32,473100
1872,000000	32,786100
1871,000000	33,048700
1870,000000	33,273600
1869,000000	33,493100
1868,000000	33,702000
1867,000000	33,845300
1866,000000	33,944900
1865,000000	34,051300
1864,000000	34,154000
1863,000000	34,256700
1862,000000	34,336100
1861,000000	34,413100
1860,000000	34,501900
1859,000000	34,529500
1858,000000	34,557100
1857,000000	34,586500
1856,000000	34,595900
1855,000000	34,596200
1854,000000	34,579100
1853,000000	34,533800
1852,000000	34,488000
1851,000000	34,484100
1850,000000	34,489900
1849,000000	34,473100
1848,000000	34,423000
1847,000000	34,340800
1846,000000	34,228400
1845,000000	34,164300
1844,000000	34,156100
1843,000000	34,159600
1842,000000	34,173600
1841,000000	34,148300
1840,000000	34,094500
1839,000000	34,034100
1838,000000	33,980700
1837,000000	33,934400
1836,000000	33,861600
1835,000000	33,789500
1834,000000	33,708100
1833,000000	33,627000
1832,000000	33,569800
1831,000000	33,505300
1830,000000	33,431800
1829,000000	33,358100
1828,000000	33,270000
1827,000000	33,184500
1826,000000	33,112500
1825,000000	33,047400
1824,000000	33,000200
1823,000000	33,002800
1822,000000	33,034900
1821,000000	33,008900
1820,000000	32,932300
1819,000000	32,875500
1818,000000	32,850000
1817,000000	32,844900
1816,000000	32,845300
1815,000000	32,823200
1814,000000	32,805600
1813,000000	32,809100
1812,000000	32,792600
1811,000000	32,750200
1810,000000	32,691700
1809,000000	32,646900
1808,000000	32,628000
1807,000000	32,603300
1806,000000	32,546700
1805,000000	32,473800
1804,000000	32,421300
1803,000000	32,385400
1802,000000	32,354500
1801,000000	32,309600
1800,000000	32,238800
1799,000000	32,153800
1798,000000	32,116800
1797,000000	32,073300
1796,000000	32,031700
1795,000000	31,990800
1794,000000	31,938400
1793,000000	31,874400
1792,000000	31,817700
1791,000000	31,764900
1790,000000	31,704200
1789,000000	31,641300
1788,000000	31,573300
1787,000000	31,521200
1786,000000	31,458300
1785,000000	31,379200
1784,000000	31,289500
1783,000000	31,203300
1782,000000	31,137200
1781,000000	31,057600
1780,000000	30,956000
1779,000000	30,882000
1778,000000	30,775400
1777,000000	30,667500
1776,000000	30,565000
1775,000000	30,434100
1774,000000	30,303600
1773,000000	30,179600
1772,000000	30,030400
1771,000000	29,889600
1770,000000	29,755700
1769,000000	29,605600
1768,000000	29,482600
1767,000000	29,360000
1766,000000	29,257000
1765,000000	29,156600
1764,000000	29,108100
1763,000000	29,054900
1762,000000	29,062200
1761,000000	29,089000
1760,000000	29,134800
1759,000000	29,183200
1758,000000	29,234200
1757,000000	29,295700
1756,000000	29,335300
1755,000000	29,373100
1754,000000	29,382200
1753,000000	29,360500
1752,000000	29,341700
1751,000000	29,314600
1750,000000	29,274600
1749,000000	29,201200
1748,000000	29,102800
1747,000000	29,000500
1746,000000	28,888100
1745,000000	28,744100
1744,000000	28,597900
1743,000000	28,409100
1742,000000	28,194700
1741,000000	27,959900
1740,000000	27,726100
1739,000000	27,487600
1738,000000	27,264100
1737,000000	27,060500
1736,000000	26,886500
1735,000000	26,776200
1734,000000	26,714000
1733,000000	26,700400
1732,000000	26,732300
1731,000000	26,790500
1730,000000	26,872200
1729,000000	26,977700
1728,000000	27,081700
1727,000000	27,199300
1726,000000	27,299000
1725,000000	27,386100
1724,000000	27,469400
1723,000000	27,500600
1722,000000	27,535400
1721,000000	27,550900
1720,000000	27,599400
1719,000000	27,653000
1718,000000	27,698500
1717,000000	27,760100
1716,000000	27,823000
1715,000000	27,907200
1714,000000	28,004600
1713,000000	28,082400
1712,000000	28,155100
1711,000000	28,197900
1710,000000	28,215800
1709,000000	28,260800
1708,000000	28,224100
1707,000000	28,214300
1706,000000	28,181600
1705,000000	28,134500
1704,000000	28,068700
1703,000000	28,000200
1702,000000	27,881200
1701,000000	27,763500
1700,000000	27,615500
1699,000000	27,414900
1698,000000	27,288400
1697,000000	27,153200
1696,000000	27,059700
1695,000000	27,028200
1694,000000	27,073800
1693,000000	27,171300
1692,000000	27,316900
1691,000000	27,468200
1690,000000	27,643300
1689,000000	27,763100
1688,000000	27,872700
1687,000000	27,927700
1686,000000	27,965400
1685,000000	28,030500
1684,000000	28,134200
1683,000000	28,337800
1682,000000	28,651400
1681,000000	29,124000
1680,000000	29,620700
1679,000000	30,185400
1678,000000	30,751900
1677,000000	31,296600
1676,000000	31,769000
1675,000000	32,217500
1674,000000	32,599300
1673,000000	32,954600
1672,000000	33,220200
1671,000000	33,482500
1670,000000	33,703800
1669,000000	33,928900
1668,000000	34,105800
1667,000000	34,289800
1666,000000	34,442300
1665,000000	34,558600
1664,000000	34,665800
1663,000000	34,774900
1662,000000	34,853500
1661,000000	34,932000
1660,000000	34,993000
1659,000000	35,051100
1658,000000	35,094100
1657,000000	35,127700
1656,000000	35,154500
1655,000000	35,171600
1654,000000	35,180200
1653,000000	35,180400
1652,000000	35,162700
1651,000000	35,152800
1650,000000	35,124900
1649,000000	35,105600
1648,000000	35,073100
1647,000000	35,034600
1646,000000	34,979800
1645,000000	34,944500
1644,000000	34,882400
1643,000000	34,856100
1642,000000	34,805400
1641,000000	34,752000
1640,000000	34,692000
1639,000000	34,625000
1638,000000	34,560700
1637,000000	34,504900
1636,000000	34,437600
1635,000000	34,381900
1634,000000	34,323700
1633,000000	34,239200
1632,000000	34,158400
1631,000000	34,073700
1630,000000	34,001000
1629,000000	33,915200
1628,000000	33,813900
1627,000000	33,742300
1626,000000	33,674000
1625,000000	33,585500
1624,000000	33,499700
1623,000000	33,421400
1622,000000	33,331700
1621,000000	33,248800
1620,000000	33,170600
1619,000000	33,096900
1618,000000	33,015900
1617,000000	32,922400
1616,000000	32,856300
1615,000000	32,781600
1614,000000	32,704400
1613,000000	32,636400
1612,000000	32,557200
1611,000000	32,468200
1610,000000	32,394600
1609,000000	32,320300
1608,000000	32,251700
1607,000000	32,180900
1606,000000	32,096600
1605,000000	32,013800
1604,000000	31,936800
1603,000000	31,842500
1602,000000	31,751700
1601,000000	31,680100
1600,000000	31,599700
1599,000000	31,529700
1598,000000	31,461000
1597,000000	31,389200
1596,000000	31,318500
1595,000000	31,245900
1594,000000	31,190500
1593,000000	31,132900
1592,000000	31,067500
1591,000000	30,994200
1590,000000	30,935300
1589,000000	30,882900
1588,000000	30,833800
1587,000000	30,782800
1586,000000	30,737000
1585,000000	30,701200
1584,000000	30,661300
1583,000000	30,618300
1582,000000	30,581600
1581,000000	30,554800
1580,000000	30,530800
1579,000000	30,493300
1578,000000	30,467900
1577,000000	30,460400
1576,000000	30,441900
1575,000000	30,433400
1574,000000	30,429400
1573,000000	30,433200
1572,000000	30,437000
1571,000000	30,447200
1570,000000	30,461600
1569,000000	30,470700
1568,000000	30,476900
1567,000000	30,491700
1566,000000	30,509800
1565,000000	30,529800
1564,000000	30,570900
1563,000000	30,591900
1562,000000	30,589600
1561,000000	30,593800
1560,000000	30,599500
1559,000000	30,606900
1558,000000	30,601600
1557,000000	30,604800
1556,000000	30,611400
1555,000000	30,584300
1554,000000	30,556700
1553,000000	30,525100
1552,000000	30,500600
1551,000000	30,480600
1550,000000	30,460600
1549,000000	30,431600
1548,000000	30,400000
1547,000000	30,376600
1546,000000	30,352700
1545,000000	30,323300
1544,000000	30,295200
1543,000000	30,284600
1542,000000	30,265100
1541,000000	30,245900
1540,000000	30,230800
1539,000000	30,230600
1538,000000	30,210300
1537,000000	30,193700
1536,000000	30,176300
1535,000000	30,167700
1534,000000	30,144700
1533,000000	30,106700
1532,000000	30,087900
1531,000000	30,067300
1530,000000	30,045000
1529,000000	30,013900
1528,000000	29,994200
1527,000000	29,960600
1526,000000	29,923700
1525,000000	29,887400
1524,000000	29,846100
1523,000000	29,806000
1522,000000	29,785100
1521,000000	29,750200
1520,000000	29,712700
1519,000000	29,670500
1518,000000	29,642900
1517,000000	29,605900
1516,000000	29,564200
1515,000000	29,522300
1514,000000	29,486300
1513,000000	29,434600
1512,000000	29,391700
1511,000000	29,356400
1510,000000	29,308800
1509,000000	29,272800
1508,000000	29,245200
1507,000000	29,195800
1506,000000	29,153700
1505,000000	29,121700
1504,000000	29,080400
1503,000000	29,049300
1502,000000	29,015200
1501,000000	28,991000
1500,000000	28,988800
1499,000000	28,935100
1498,000000	28,930900
1497,000000	28,904200
1496,000000	28,904600
1495,000000	28,887600
1494,000000	28,878800
1493,000000	28,888800
1492,000000	28,890800
1491,000000	28,867100
1490,000000	28,890800
1489,000000	28,882100
1488,000000	28,899400
1487,000000	28,916000
1486,000000	28,933900
1485,000000	28,934100
1484,000000	28,951000
1483,000000	28,976200
1482,000000	29,006500
1481,000000	29,033900
1480,000000	29,054400
1479,000000	29,075800
1478,000000	29,109300
1477,000000	29,134200
1476,000000	29,168700
1475,000000	29,209200
1474,000000	29,250200
1473,000000	29,295100
1472,000000	29,353600
1471,000000	29,404100
1470,000000	29,436000
1469,000000	29,462000
1468,000000	29,505400
1467,000000	29,550600
1466,000000	29,591600
1465,000000	29,666000
1464,000000	29,716800
1463,000000	29,779900
1462,000000	29,840800
1461,000000	29,908100
1460,000000	30,006000
1459,000000	30,068600
1458,000000	30,154000
1457,000000	30,273200
1456,000000	30,372400
1455,000000	30,466000
1454,000000	30,569300
1453,000000	30,682800
1452,000000	30,831200
1451,000000	30,962100
1450,000000	31,071400
1449,000000	31,173600
1448,000000	31,278300
1447,000000	31,441000
1446,000000	31,594700
1445,000000	31,696800
1444,000000	31,824300
1443,000000	31,951200
1442,000000	32,095700
1441,000000	32,247200
1440,000000	32,387500
1439,000000	32,542300
1438,000000	32,699800
1437,000000	32,843600
1436,000000	32,958100
1435,000000	33,109900
1434,000000	33,289900
1433,000000	33,434800
1432,000000	33,587500
1431,000000	33,749200
1430,000000	33,915800
1429,000000	34,111300
1428,000000	34,314200
1427,000000	34,514200
1426,000000	34,716500
1425,000000	34,972600
1424,000000	35,242300
1423,000000	35,465200
1422,000000	35,685200
1421,000000	35,971400
1420,000000	36,245900
1419,000000	36,534900
1418,000000	36,746100
1417,000000	36,949900
1416,000000	37,253700
1415,000000	37,553700
1414,000000	37,858300
1413,000000	38,114700
1412,000000	38,337200
1411,000000	38,638700
1410,000000	38,983600
1409,000000	39,385400
1408,000000	39,724200
1407,000000	40,117200
1406,000000	40,505200
1405,000000	40,932700
1404,000000	41,345900
1403,000000	41,717000
1402,000000	42,078300
1401,000000	42,605400
1400,000000	42,922500
1399,000000	43,191400
1398,000000	43,386900
1397,000000	43,676100
1396,000000	44,001500
1395,000000	44,237900
1394,000000	44,394000
1393,000000	44,560900
1392,000000	44,806400
1391,000000	45,017800
1390,000000	45,222700
1389,000000	45,476600
1388,000000	45,837300
1387,000000	46,125900
1386,000000	46,470600
1385,000000	46,842100
1384,000000	47,284800
1383,000000	47,666600
1382,000000	47,993200
1381,000000	48,236500
1380,000000	48,356400
1379,000000	48,505300
1378,000000	48,590400
1377,000000	48,693000
1376,000000	48,812600
1375,000000	48,983400
1374,000000	49,205500
1373,000000	49,508000
1372,000000	49,840300
1371,000000	50,176500
1370,000000	50,466500
1369,000000	50,750000
1368,000000	51,034700
1367,000000	51,254300
1366,000000	51,447600
1365,000000	51,661500
1364,000000	51,847800
1363,000000	51,981100
1362,000000	52,161000
1361,000000	52,305100
1360,000000	52,347500
1359,000000	52,401600
1358,000000	52,489900
1357,000000	52,636000
1356,000000	52,873700
1355,000000	53,224000
1354,000000	53,633900
1353,000000	54,034800
1352,000000	54,478100
1351,000000	54,938000
1350,000000	55,364600
1349,000000	55,749300
1348,000000	56,106300
1347,000000	56,447700
1346,000000	56,721000
1345,000000	57,015800
1344,000000	57,300500
1343,000000	57,536000
1342,000000	57,772700
1341,000000	58,023900
1340,000000	58,247800
1339,000000	58,449600
1338,000000	58,654500
1337,000000	58,849000
1336,000000	59,025100
1335,000000	59,199800
1334,000000	59,373000
1333,000000	59,527900
1332,000000	59,687500
1331,000000	59,830100
1330,000000	59,947500
1329,000000	60,065200
1328,000000	60,190900
1327,000000	60,290300
1326,000000	60,398900
1325,000000	60,506800
1324,000000	60,611700
1323,000000	60,696300
1322,000000	60,778400
1321,000000	60,855200
1320,000000	60,928100
1319,000000	60,997000
1318,000000	61,071200
1317,000000	61,140000
1316,000000	61,203100
1315,000000	61,269800
1314,000000	61,333500
1313,000000	61,388800
1312,000000	61,431300
1311,000000	61,484000
1310,000000	61,529500
1309,000000	61,556700
1308,000000	61,592700
1307,000000	61,624000
1306,000000	61,637400
1305,000000	61,654200
1304,000000	61,682600
1303,000000	61,692700
1302,000000	61,695700
1301,000000	61,703600
1300,000000	61,686100
1299,000000	61,671700
1298,000000	61,681800
1297,000000	61,686200
1296,000000	61,683700
1295,000000	61,674700
1294,000000	61,654800
1293,000000	61,639300
1292,000000	61,618500
1291,000000	61,590800
1290,000000	61,567400
1289,000000	61,522200
1288,000000	61,470600
1287,000000	61,436900
1286,000000	61,398000
1285,000000	61,342200
1284,000000	61,284400
1283,000000	61,233300
1282,000000	61,179400
1281,000000	61,130200
1280,000000	61,080000
1279,000000	61,026600
1278,000000	60,997500
1277,000000	60,950400
1276,000000	60,907300
1275,000000	60,873800
1274,000000	60,843600
1273,000000	60,810000
1272,000000	60,792700
1271,000000	60,776900
1270,000000	60,747200
1269,000000	60,717400
1268,000000	60,695900
1267,000000	60,665300
1266,000000	60,642000
1265,000000	60,629700
1264,000000	60,600700
1263,000000	60,570300
1262,000000	60,535700
1261,000000	60,504300
1260,000000	60,467100
1259,000000	60,432200
1258,000000	60,388200
1257,000000	60,347200
1256,000000	60,310900
1255,000000	60,263300
1254,000000	60,220500
1253,000000	60,156600
1252,000000	60,101400
1251,000000	60,027300
1250,000000	59,941600
1249,000000	59,856000
1248,000000	59,797600
1247,000000	59,725000
1246,000000	59,617300
1245,000000	59,518900
1244,000000	59,418300
1243,000000	59,308300
1242,000000	59,201400
1241,000000	59,099300
1240,000000	58,994300
1239,000000	58,869700
1238,000000	58,747200
1237,000000	58,634500
1236,000000	58,523400
1235,000000	58,403800
1234,000000	58,281900
1233,000000	58,151500
1232,000000	58,015800
1231,000000	57,904800
1230,000000	57,770900
1229,000000	57,621500
1228,000000	57,467300
1227,000000	57,334400
1226,000000	57,203800
1225,000000	57,050900
1224,000000	56,902200
1223,000000	56,763600
1222,000000	56,649300
1221,000000	56,501300
1220,000000	56,362200
1219,000000	56,240800
1218,000000	56,127000
1217,000000	56,006700
1216,000000	55,877400
1215,000000	55,767200
1214,000000	55,665400
1213,000000	55,553000
1212,000000	55,433900
1211,000000	55,347700
1210,000000	55,225600
1209,000000	55,131800
1208,000000	55,053500
1207,000000	54,990900
1206,000000	54,902300
1205,000000	54,827400
1204,000000	54,803000
1203,000000	54,761200
1202,000000	54,711400
1201,000000	54,662200
1200,000000	54,593100
1199,000000	54,521200
1198,000000	54,424900
1197,000000	54,304000
1196,000000	54,105500
1195,000000	53,893300
1194,000000	53,654900
1193,000000	53,342800
1192,000000	52,991000
1191,000000	52,599000
1190,000000	52,223900
1189,000000	51,903700
1188,000000	51,646600
1187,000000	51,515100
1186,000000	51,450800
1185,000000	51,513600
1184,000000	51,679000
1183,000000	51,952700
1182,000000	52,313900
1181,000000	52,728100
1180,000000	53,155600
1179,000000	53,546200
1178,000000	53,904200
1177,000000	54,202700
1176,000000	54,492400
1175,000000	54,754900
1174,000000	54,998600
1173,000000	55,248200
1172,000000	55,523400
1171,000000	55,776500
1170,000000	56,068100
1169,000000	56,350500
1168,000000	56,659500
1167,000000	56,942000
1166,000000	57,235100
1165,000000	57,545000
1164,000000	57,858600
1163,000000	58,127000
1162,000000	58,438000
1161,000000	58,723600
1160,000000	58,985200
1159,000000	59,251900
1158,000000	59,510500
1157,000000	59,733900
1156,000000	59,927200
1155,000000	60,082200
1154,000000	60,194100
1153,000000	60,264400
1152,000000	60,329200
1151,000000	60,336000
1150,000000	60,325800
1149,000000	60,327600
1148,000000	60,350500
1147,000000	60,409500
1146,000000	60,468300
1145,000000	60,608000
1144,000000	60,768400
1143,000000	60,976800
1142,000000	61,195000
1141,000000	61,438000
1140,000000	61,667700
1139,000000	61,921000
1138,000000	62,164200
1137,000000	62,432900
1136,000000	62,720800
1135,000000	62,989600
1134,000000	63,259600
1133,000000	63,447700
1132,000000	63,628100
1131,000000	63,807000
1130,000000	63,977700
1129,000000	64,142600
1128,000000	64,254000
1127,000000	64,334400
1126,000000	64,417000
1125,000000	64,492200
1124,000000	64,555700
1123,000000	64,587700
1122,000000	64,628900
1121,000000	64,645200
1120,000000	64,651500
1119,000000	64,672800
1118,000000	64,695600
1117,000000	64,687100
1116,000000	64,679700
1115,000000	64,673000
1114,000000	64,656700
1113,000000	64,648600
1112,000000	64,652600
1111,000000	64,619600
1110,000000	64,613200
1109,000000	64,607600
1108,000000	64,597300
1107,000000	64,575800
1106,000000	64,553600
1105,000000	64,533700
1104,000000	64,511200
1103,000000	64,504600
1102,000000	64,476600
1101,000000	64,463100
1100,000000	64,436900
1099,000000	64,404900
1098,000000	64,394300
1097,000000	64,366500
1096,000000	64,335200
1095,000000	64,308100
1094,000000	64,251600
1093,000000	64,221800
1092,000000	64,198500
1091,000000	64,152200
1090,000000	64,109600
1089,000000	64,079800
1088,000000	64,045200
1087,000000	64,003100
1086,000000	63,960800
1085,000000	63,910000
1084,000000	63,870100
1083,000000	63,828200
1082,000000	63,776000
1081,000000	63,731300
1080,000000	63,692600
1079,000000	63,650100
1078,000000	63,601500
1077,000000	63,553200
1076,000000	63,490700
1075,000000	63,465900
1074,000000	63,418800
1073,000000	63,370700
1072,000000	63,334800
1071,000000	63,287400
1070,000000	63,239500
1069,000000	63,201100
1068,000000	63,151700
1067,000000	63,112900
1066,000000	63,075200
1065,000000	63,017600
1064,000000	62,968500
1063,000000	62,926100
1062,000000	62,876700
1061,000000	62,833000
1060,000000	62,791000
1059,000000	62,740200
1058,000000	62,677900
1057,000000	62,630100
1056,000000	62,586800
1055,000000	62,545700
1054,000000	62,505200
1053,000000	62,462900
1052,000000	62,418700
1051,000000	62,379400
1050,000000	62,342300
1049,000000	62,290100
1048,000000	62,232800
1047,000000	62,195600
1046,000000	62,168200
1045,000000	62,138900
1044,000000	62,111800
1043,000000	62,073400
1042,000000	62,041700
1041,000000	62,023100
1040,000000	61,979800
1039,000000	61,932600
1038,000000	61,907400
1037,000000	61,866400
1036,000000	61,834400
1035,000000	61,815800
1034,000000	61,771800
1033,000000	61,724200
1032,000000	61,696300
1031,000000	61,666000
1030,000000	61,628400
1029,000000	61,584900
1028,000000	61,557700
1027,000000	61,523600
1026,000000	61,475100
1025,000000	61,449400
1024,000000	61,427800
1023,000000	61,377800
1022,000000	61,341000
1021,000000	61,314300
1020,000000	61,287900
1019,000000	61,276900
1018,000000	61,266300
1017,000000	61,246100
1016,000000	61,233500
1015,000000	61,228200
1014,000000	61,238300
1013,000000	61,254500
1012,000000	61,283100
1011,000000	61,306000
1010,000000	61,326900
1009,000000	61,348200
1008,000000	61,382400
1007,000000	61,433900
1006,000000	61,472700
1005,000000	61,508400
1004,000000	61,536500
1003,000000	61,565300
1002,000000	61,613000
1001,000000	61,655200
1000,000000	61,675100
999,000000	61,712600
998,000000	61,767700
997,000000	61,792300
996,000000	61,837100
995,000000	61,879900
994,000000	61,923000
993,000000	61,967300
992,000000	62,001100
991,000000	62,041500
990,000000	62,090100
989,000000	62,134900
988,000000	62,168200
987,000000	62,209700
986,000000	62,259400
985,000000	62,297500
984,000000	62,335600
983,000000	62,364900
982,000000	62,393000
981,000000	62,444500
980,000000	62,490800
979,000000	62,507200
978,000000	62,522700
977,000000	62,566700
976,000000	62,593100
975,000000	62,616500
974,000000	62,644600
973,000000	62,674900
972,000000	62,692000
971,000000	62,731100
970,000000	62,769500
969,000000	62,806400
968,000000	62,825500
967,000000	62,847700
966,000000	62,884900
965,000000	62,926000
964,000000	62,948800
963,000000	62,981700
962,000000	63,009400
961,000000	63,057100
960,000000	63,095100
959,000000	63,132800
958,000000	63,167600
957,000000	63,208900
956,000000	63,272300
955,000000	63,302600
954,000000	63,351500
953,000000	63,419400
952,000000	63,443100
951,000000	63,523000
950,000000	63,571800
949,000000	63,608900
948,000000	63,695000
947,000000	63,744000
946,000000	63,797800
945,000000	63,880600
944,000000	63,942900
943,000000	63,993700
942,000000	64,065400
941,000000	64,133400
940,000000	64,173000
939,000000	64,264600
938,000000	64,292900
937,000000	64,374800
936,000000	64,445200
935,000000	64,504700
934,000000	64,570500
933,000000	64,667000
932,000000	64,699400
931,000000	64,762300
930,000000	64,852100
929,000000	64,872600
928,000000	64,906400
927,000000	65,008200
926,000000	65,042900
925,000000	65,059300
924,000000	65,103100
923,000000	65,113900
922,000000	65,174400
921,000000	65,186500
920,000000	65,183500
919,000000	65,223700
918,000000	65,224000
917,000000	65,245400
916,000000	65,215800
915,000000	65,224300
914,000000	65,274600
913,000000	65,253600
912,000000	65,208100
911,000000	65,200700
910,000000	65,202400
909,000000	65,174200
908,000000	65,177000
907,000000	65,180400
906,000000	65,188900
905,000000	65,170800
904,000000	65,192800
903,000000	65,187500
902,000000	65,217000
901,000000	65,229100
900,000000	65,238500
899,000000	65,276800
898,000000	65,298400
897,000000	65,328500
896,000000	65,354600
895,000000	65,387200
894,000000	65,397300
893,000000	65,441200
892,000000	65,478700
891,000000	65,508100
890,000000	65,538600
889,000000	65,588800
888,000000	65,584000
887,000000	65,639900
886,000000	65,640400
885,000000	65,669700
884,000000	65,672600
883,000000	65,717900
882,000000	65,728100
881,000000	65,724100
880,000000	65,746400
879,000000	65,760700
878,000000	65,773500
877,000000	65,768200
876,000000	65,764900
875,000000	65,764200
874,000000	65,777400
873,000000	65,761400
872,000000	65,753500
871,000000	65,737000
870,000000	65,731200
869,000000	65,715900
868,000000	65,685600
867,000000	65,631800
866,000000	65,597800
865,000000	65,557200
864,000000	65,511800
863,000000	65,433200
862,000000	65,383000
861,000000	65,254100
860,000000	65,097900
859,000000	64,964000
858,000000	65,197500
857,000000	67,533200
856,000000	67,351500
855,000000	66,856500
854,000000	67,174900
853,000000	66,806100
852,000000	66,869300
851,000000	67,154600
850,000000	67,003600
849,000000	67,378400
848,000000	66,946000
847,000000	66,885700
846,000000	67,017400
845,000000	66,865000
844,000000	66,831000
843,000000	66,704100
842,000000	66,605900
841,000000	66,726700
840,000000	66,633100
839,000000	66,739200
838,000000	66,654700
837,000000	66,397000
836,000000	66,443600
835,000000	66,219900
834,000000	66,391000
833,000000	66,224000
832,000000	66,160800
831,000000	66,202100
830,000000	66,047300
829,000000	66,051600
828,000000	66,026400
827,000000	65,831200
826,000000	65,793900
825,000000	65,821300
824,000000	65,708000
823,000000	65,752800
822,000000	65,647700
821,000000	65,486000
820,000000	65,453000
819,000000	65,438600
818,000000	65,411200
817,000000	65,303700
816,000000	65,327400
815,000000	65,179600
814,000000	65,020100
813,000000	64,945400
812,000000	64,825300
811,000000	64,692600
810,000000	64,620500
809,000000	64,518800
808,000000	64,544100
807,000000	64,422000
806,000000	64,244200
805,000000	64,082300
804,000000	63,954100
803,000000	63,824800
802,000000	63,638000
801,000000	63,479600
800,000000	63,428600
799,000000	63,299200
798,000000	63,180300
797,000000	63,053000
796,000000	62,847300
795,000000	62,642900
794,000000	62,488300
793,000000	62,325200
792,000000	62,125700
791,000000	61,943700
790,000000	61,772600
789,000000	61,649700
788,000000	61,493200
787,000000	61,322300
786,000000	61,088300
785,000000	60,919000
784,000000	60,714200
783,000000	60,481700
782,000000	60,217500
781,000000	60,058100
780,000000	59,917800
779,000000	59,722200
778,000000	59,577100
777,000000	59,331300
776,000000	59,243000
775,000000	59,112400
774,000000	58,930500
773,000000	58,768800
772,000000	58,619900
771,000000	58,500100
770,000000	58,317600
769,000000	58,136800
768,000000	57,948200
767,000000	57,839900
766,000000	57,677400
765,000000	57,583200
764,000000	57,527400
763,000000	57,437400
762,000000	57,302000
761,000000	57,139800
760,000000	57,047900
759,000000	56,973700
758,000000	56,908200
757,000000	56,851200
756,000000	56,780600
755,000000	56,667300
754,000000	56,612000
753,000000	56,586600
752,000000	56,469500
751,000000	56,411200
750,000000	56,412000
749,000000	56,350100
748,000000	56,370200
747,000000	56,391300
746,000000	56,262100
745,000000	56,247500
744,000000	56,291800
743,000000	56,305500
742,000000	56,287300
741,000000	56,235700
740,000000	56,259300
739,000000	56,274300
738,000000	56,228300
737,000000	56,187000
736,000000	56,143500
735,000000	56,158200
734,000000	56,139500
733,000000	56,094300
732,000000	56,056900
731,000000	56,053900
730,000000	56,010100
729,000000	55,918200
728,000000	55,901300
727,000000	55,919400
726,000000	55,935500
725,000000	55,884300
724,000000	55,772500
723,000000	55,774800
722,000000	55,775200
721,000000	55,709600
720,000000	55,596000
719,000000	55,484200
718,000000	55,406000
717,000000	55,309100
716,000000	55,239300
715,000000	55,106800
714,000000	55,023100
713,000000	54,914700
712,000000	54,826800
711,000000	54,755000
710,000000	54,644300
709,000000	54,547000
708,000000	54,433300
707,000000	54,336200
706,000000	54,232100
705,000000	54,128400
704,000000	54,048400
703,000000	53,918800
702,000000	53,813200
701,000000	53,694100
700,000000	53,562400
699,000000	53,428300
698,000000	53,308200
697,000000	53,235000
696,000000	53,119300
695,000000	53,057000
694,000000	53,023300
693,000000	52,982600
692,000000	52,936300
691,000000	52,909400
690,000000	52,875300
689,000000	52,870100
688,000000	52,843900
687,000000	52,868100
686,000000	52,867900
685,000000	52,839800
684,000000	52,852600
683,000000	52,934300
682,000000	52,984900
681,000000	53,020800
680,000000	53,078100
679,000000	53,139100
678,000000	53,220400
677,000000	53,279400
676,000000	53,346100
675,000000	53,382400
674,000000	53,450200
673,000000	53,483000
672,000000	53,526900
671,000000	53,605300
670,000000	53,655900
669,000000	53,666000
668,000000	53,693300
667,000000	53,701000
666,000000	53,646800
665,000000	53,613500
664,000000	53,547000
663,000000	53,529900
662,000000	53,455300
661,000000	53,351800
660,000000	53,258400
659,000000	53,119900
658,000000	52,979900
657,000000	52,799800
656,000000	52,577700
655,000000	52,397200
654,000000	52,151600
653,000000	51,920500
652,000000	51,680200
651,000000	51,357700
650,000000	51,064500
649,000000	50,776400
648,000000	50,444400
647,000000	50,099400
646,000000	49,791300
645,000000	49,443500
644,000000	49,100200
643,000000	48,794100
642,000000	48,506000
641,000000	48,266600
640,000000	48,053600
639,000000	47,849100
638,000000	47,762200
637,000000	47,708100
636,000000	47,688400
635,000000	47,766300
634,000000	47,886000
633,000000	48,093100
632,000000	48,360400
631,000000	48,663300
630,000000	49,051800
629,000000	49,488200
628,000000	49,972200
627,000000	50,464900
626,000000	50,987700
625,000000	51,505000
624,000000	52,090400
623,000000	52,654200
622,000000	53,227900
621,000000	53,854300
620,000000	54,493200
619,000000	55,114500
618,000000	55,690600
617,000000	56,268500
616,000000	56,886000
615,000000	57,428000
614,000000	57,984300
613,000000	58,517700
612,000000	58,993400
611,000000	59,421000
610,000000	59,863500
609,000000	60,277100
608,000000	60,616300
607,000000	60,940800
606,000000	61,317600
605,000000	61,620900
604,000000	61,904200
603,000000	62,169600
602,000000	62,485200
601,000000	62,750400
600,000000	62,985100
599,000000	63,232100
598,000000	63,448100
597,000000	63,678000
596,000000	63,863300
595,000000	64,051100
594,000000	64,283000
593,000000	64,435000
592,000000	64,611700
591,000000	64,756100
590,000000	64,896400
589,000000	65,042300
588,000000	65,170800
587,000000	65,330200
586,000000	65,464900
585,000000	65,560300
584,000000	65,683100
583,000000	65,804100
582,000000	65,915400
581,000000	66,031100
580,000000	66,133600
579,000000	66,200600
578,000000	66,285800
577,000000	66,334100
576,000000	66,350400
575,000000	66,400900
574,000000	66,410400
573,000000	66,438100
572,000000	66,401500
571,000000	66,426700
570,000000	66,403200
569,000000	66,302500
568,000000	66,253800
567,000000	66,201500
566,000000	66,073400
565,000000	65,987800
564,000000	65,862200
563,000000	65,761200
562,000000	65,658000
561,000000	65,488800
560,000000	65,344300
559,000000	65,180600
558,000000	64,979300
557,000000	64,719800
556,000000	64,459000
555,000000	64,167800
554,000000	63,841200
553,000000	63,496400
552,000000	63,108000
551,000000	62,676600
550,000000	62,211800
549,000000	61,707300
548,000000	61,107900
547,000000	60,534900
546,000000	59,881200
545,000000	59,186800
544,000000	58,440900
543,000000	57,644200
542,000000	56,846000
541,000000	55,978300
540,000000	55,105800
539,000000	54,154400
538,000000	53,228400
537,000000	52,265700
536,000000	51,298400
535,000000	50,318900
534,000000	49,342800
533,000000	48,346300
532,000000	47,313500
531,000000	46,300200
530,000000	45,312400
529,000000	44,308800
528,000000	43,349300
527,000000	42,405300
526,000000	41,489900
525,000000	40,606300
524,000000	39,742600
523,000000	38,889900
522,000000	38,069200
521,000000	37,301200
520,000000	36,570900
519,000000	35,904900
518,000000	35,249400
517,000000	34,634900
516,000000	34,068200
515,000000	33,517500
514,000000	32,996300
513,000000	32,498700
512,000000	31,994600
511,000000	31,527500
510,000000	31,082100
509,000000	30,664100
508,000000	30,243000
507,000000	29,831700
506,000000	29,437200
505,000000	29,050300
504,000000	28,633800
503,000000	28,244200
502,000000	27,867800
501,000000	27,487100
500,000000	27,132200
499,000000	26,760000
498,000000	26,383700
497,000000	26,023500
496,000000	25,667000
495,000000	25,327400
494,000000	24,983100
493,000000	24,661900
492,000000	24,329700
491,000000	23,987100
490,000000	23,670200
489,000000	23,368400
488,000000	23,079400
487,000000	22,781500
486,000000	22,511500
485,000000	22,259300
484,000000	22,012000
483,000000	21,764500
482,000000	21,522900
481,000000	21,298400
480,000000	21,072000
479,000000	20,859400
478,000000	20,636100
477,000000	20,414800
476,000000	20,206600
475,000000	19,996000
474,000000	19,790200
473,000000	19,595800
472,000000	19,405400
471,000000	19,199200
470,000000	18,995400
469,000000	18,796200
468,000000	18,608800
467,000000	18,426900
466,000000	18,230600
465,000000	18,036300
464,000000	17,838900
463,000000	17,659200
462,000000	17,485700
461,000000	17,314900
460,000000	17,145900
459,000000	16,993900
458,000000	16,845500
457,000000	16,696800
456,000000	16,576900
455,000000	16,479000
454,000000	16,372100
453,000000	16,273100
452,000000	16,195900
451,000000	16,123400
450,000000	16,041600
449,000000	15,959800
448,000000	15,893400
447,000000	15,838400
446,000000	15,773000
445,000000	15,701000
444,000000	15,628500
443,000000	15,539400
442,000000	15,436900
441,000000	15,336900
440,000000	15,239500
439,000000	15,128200
438,000000	15,002400
437,000000	14,882700
436,000000	14,758900
435,000000	14,605100
434,000000	14,449400
433,000000	14,301300
432,000000	14,143100
431,000000	13,976800
430,000000	13,804300
429,000000	13,635400
428,000000	13,463400
427,000000	13,279300
426,000000	13,112900
425,000000	12,937400
424,000000	12,738800
423,000000	12,552200
422,000000	12,352600
421,000000	12,146500
420,000000	11,952200
419,000000	11,758000
418,000000	11,547400
417,000000	11,346000
416,000000	11,139600
415,000000	10,934300
414,000000	10,727200
413,000000	10,511700
412,000000	10,296000
411,000000	10,085300
410,000000	9,873800
409,000000	9,670700
408,000000	9,466100
407,000000	9,255500
406,000000	9,052200
405,000000	8,839900
404,000000	8,621500
403,000000	8,429200
402,000000	8,226300
401,000000	8,022900
400,000000	7,830700
399,000000	7,643700
398,000000	7,464700
397,000000	7,291200
396,000000	7,113800
395,000000	6,949100
394,000000	6,793200
393,000000	6,630800
392,000000	6,480300
391,000000	6,353300
390,000000	6,236100
389,000000	6,109000
388,000000	5,989000
387,000000	5,881100
386,000000	5,799200
385,000000	5,714300
384,000000	5,625800
383,000000	5,554100
382,000000	5,489600
381,000000	5,420200
380,000000	5,358300
379,000000	5,315000
378,000000	5,257700
377,000000	5,213400
376,000000	5,134900
375,000000	5,107300
374,000000	5,055200
373,000000	5,040100
372,000000	5,016000
371,000000	5,011600
370,000000	5,063600
369,000000	5,037700
368,000000	5,036300
367,000000	4,972300
366,000000	4,934700
365,000000	4,921500
364,000000	4,955700
363,000000	4,948200
362,000000	4,949200
361,000000	4,934200
360,000000	4,879200
359,000000	4,901400
358,000000	4,895000
357,000000	4,881000
356,000000	4,881500
355,000000	4,842000
354,000000	4,835000
353,000000	4,852800
352,000000	4,842700
351,000000	4,800900
350,000000	4,793900
349,000000	4,800900
348,000000	4,836900
347,000000	4,828400
346,000000	4,792700
345,000000	4,700900
344,000000	4,740700
343,000000	4,795900
342,000000	4,748000
341,000000	4,794500
340,000000	4,784400
339,000000	4,774900
338,000000	4,783200
337,000000	4,780800
336,000000	4,781400
335,000000	4,787600
334,000000	4,732600
333,000000	4,871200
332,000000	4,819600
331,000000	4,831400
330,000000	4,704600
329,000000	4,812900
328,000000	4,777000
327,000000	4,785500
326,000000	4,788900
325,000000	4,824000
324,000000	4,817400
323,000000	4,728800
322,000000	4,818000
321,000000	4,995100
320,000000	4,801200
319,000000	4,656700
318,000000	4,902000
317,000000	4,996400
316,000000	4,753900
315,000000	4,713500
314,000000	4,734200
313,000000	4,725500
312,000000	4,701700
311,000000	4,758700
310,000000	4,719500
309,000000	4,724600
308,000000	4,662700
307,000000	4,741200
306,000000	4,704900
305,000000	4,728600
304,000000	4,703900
303,000000	4,679500
302,000000	4,737400
301,000000	4,778500
300,000000	4,783600
299,000000	4,781100
298,000000	4,835200
297,000000	4,787700
296,000000	4,802900
295,000000	4,869300
294,000000	4,805800
293,000000	4,827800
292,000000	4,843600
291,000000	4,858700
290,000000	4,852100
289,000000	4,814800
288,000000	4,897900
287,000000	4,873400
286,000000	4,878700
285,000000	4,909600
284,000000	4,905900
283,000000	4,916800
282,000000	4,973600
281,000000	4,929700
280,000000	4,974300
279,000000	4,970500
278,000000	4,921100
277,000000	5,006800
276,000000	5,027300
275,000000	5,002000
274,000000	5,065900
273,000000	5,063600
272,000000	5,054000
271,000000	5,080700
270,000000	5,082500
269,000000	5,065500
268,000000	5,085600
267,000000	5,148400
266,000000	5,096700
265,000000	5,148800
264,000000	5,165400
263,000000	5,214300
262,000000	5,231200
261,000000	5,289400
260,000000	5,277400
259,000000	5,232600
258,000000	5,256400
257,000000	5,306600
256,000000	5,327300
255,000000	5,300700
254,000000	5,332200
253,000000	5,330100
252,000000	5,358300
251,000000	5,328500
250,000000	5,340100
