PE UV       SUBTECH     SPECTRUM    ASCII       PEDS        4.00        
   -1
CICIMAUCR0258-1.Sample.ASC
24/07/01
10:36:38.00
24/07/01
10:36:38.00
Vinicio Soto Monge
C. resplendens. Sex M. Dorsal.
250,000000
1
Lambda 1050
1050L1511233
PerkinElmer UV WinLab 6.3.2.0749 / 2.02.05 Lambda 900 UV/VIS/NIR, Aug  7 2015 09:38:08

0
0
3350/servo 860,8/2
0
0
UV/VIS
1
1
1
DoubleDePol,CommonBeamDepol,RBeamAtt,SBeamAtt,60mm sphere, WB InGaAs Detector
0
0
0
0
Program
Program
3350/servo 860,8/2
3350/0,2 860,8/0,2
3350/0,2 860,8/0,2
0
15.00
 
 
 
0
 
860,8
319,2
860,8
Front
100
on
S:100 R:100
0
0
0
0
 
0
 
 
 
0
 
 
0
0
0
0
0
 
 
 
 
0
0


0
0
#HDR
-1
-1
#GR
nm
%R
1.0
0.0
2500,000000
-1,000000
2251
8
95,943200
5,144800
#DATA
2500,000000	9,686900
2499,000000	9,728500
2498,000000	9,722100
2497,000000	9,685900
2496,000000	9,616200
2495,000000	9,676800
2494,000000	9,619200
2493,000000	9,492900
2492,000000	9,609500
2491,000000	9,547200
2490,000000	9,554000
2489,000000	9,521000
2488,000000	9,534600
2487,000000	9,525800
2486,000000	9,578900
2485,000000	9,549800
2484,000000	9,500600
2483,000000	9,518200
2482,000000	9,623700
2481,000000	9,547700
2480,000000	9,560300
2479,000000	9,548500
2478,000000	9,566000
2477,000000	9,609900
2476,000000	9,642100
2475,000000	9,641700
2474,000000	9,620800
2473,000000	9,645300
2472,000000	9,682400
2471,000000	9,692200
2470,000000	9,711800
2469,000000	9,736400
2468,000000	9,750800
2467,000000	9,810100
2466,000000	9,836500
2465,000000	9,843900
2464,000000	9,847700
2463,000000	9,919300
2462,000000	9,973800
2461,000000	10,022800
2460,000000	10,044100
2459,000000	10,059900
2458,000000	10,140400
2457,000000	10,189700
2456,000000	10,261900
2455,000000	10,317800
2454,000000	10,376500
2453,000000	10,442600
2452,000000	10,506000
2451,000000	10,576200
2450,000000	10,641600
2449,000000	10,721500
2448,000000	10,804000
2447,000000	10,879100
2446,000000	10,961500
2445,000000	11,063100
2444,000000	11,109300
2443,000000	11,201700
2442,000000	11,291200
2441,000000	11,361400
2440,000000	11,438700
2439,000000	11,518900
2438,000000	11,589700
2437,000000	11,665800
2436,000000	11,745100
2435,000000	11,809700
2434,000000	11,897900
2433,000000	11,979300
2432,000000	12,039000
2431,000000	12,096900
2430,000000	12,170600
2429,000000	12,239800
2428,000000	12,296400
2427,000000	12,367900
2426,000000	12,427800
2425,000000	12,492000
2424,000000	12,543300
2423,000000	12,619400
2422,000000	12,662700
2421,000000	12,717500
2420,000000	12,777500
2419,000000	12,824900
2418,000000	12,868400
2417,000000	12,938100
2416,000000	12,989000
2415,000000	13,040800
2414,000000	13,070600
2413,000000	13,115400
2412,000000	13,165600
2411,000000	13,215800
2410,000000	13,249100
2409,000000	13,281800
2408,000000	13,310900
2407,000000	13,359400
2406,000000	13,420200
2405,000000	13,490300
2404,000000	13,551000
2403,000000	13,618400
2402,000000	13,651100
2401,000000	13,687700
2400,000000	13,726600
2399,000000	13,763500
2398,000000	13,804800
2397,000000	13,851800
2396,000000	13,903900
2395,000000	13,933700
2394,000000	13,957000
2393,000000	13,987800
2392,000000	14,028900
2391,000000	14,062100
2390,000000	14,112600
2389,000000	14,137200
2388,000000	14,169300
2387,000000	14,189800
2386,000000	14,220900
2385,000000	14,257200
2384,000000	14,259700
2383,000000	14,279800
2382,000000	14,296100
2381,000000	14,308400
2380,000000	14,322600
2379,000000	14,324700
2378,000000	14,343600
2377,000000	14,364600
2376,000000	14,363900
2375,000000	14,363500
2374,000000	14,366600
2373,000000	14,364000
2372,000000	14,363900
2371,000000	14,366000
2370,000000	14,363700
2369,000000	14,358800
2368,000000	14,360600
2367,000000	14,353200
2366,000000	14,343800
2365,000000	14,330200
2364,000000	14,310800
2363,000000	14,295900
2362,000000	14,273800
2361,000000	14,242800
2360,000000	14,234600
2359,000000	14,221400
2358,000000	14,195000
2357,000000	14,167700
2356,000000	14,144800
2355,000000	14,125000
2354,000000	14,108500
2353,000000	14,102900
2352,000000	14,096600
2351,000000	14,101300
2350,000000	14,106400
2349,000000	14,112100
2348,000000	14,127400
2347,000000	14,157700
2346,000000	14,182800
2345,000000	14,212100
2344,000000	14,262400
2343,000000	14,298600
2342,000000	14,338400
2341,000000	14,386200
2340,000000	14,422200
2339,000000	14,451600
2338,000000	14,500700
2337,000000	14,545400
2336,000000	14,560100
2335,000000	14,575400
2334,000000	14,596700
2333,000000	14,612200
2332,000000	14,621500
2331,000000	14,618900
2330,000000	14,601500
2329,000000	14,610600
2328,000000	14,598400
2327,000000	14,582800
2326,000000	14,563300
2325,000000	14,540700
2324,000000	14,515400
2323,000000	14,466700
2322,000000	14,410800
2321,000000	14,357600
2320,000000	14,321300
2319,000000	14,257500
2318,000000	14,175300
2317,000000	14,092800
2316,000000	14,012800
2315,000000	13,927900
2314,000000	13,846200
2313,000000	13,770500
2312,000000	13,675500
2311,000000	13,589100
2310,000000	13,508200
2309,000000	13,449100
2308,000000	13,387500
2307,000000	13,329800
2306,000000	13,280500
2305,000000	13,277100
2304,000000	13,267500
2303,000000	13,271100
2302,000000	13,295800
2301,000000	13,327200
2300,000000	13,383900
2299,000000	13,437600
2298,000000	13,499300
2297,000000	13,571700
2296,000000	13,663600
2295,000000	13,744300
2294,000000	13,832500
2293,000000	13,902200
2292,000000	13,976500
2291,000000	14,045200
2290,000000	14,105900
2289,000000	14,165100
2288,000000	14,198200
2287,000000	14,240100
2286,000000	14,278300
2285,000000	14,281900
2284,000000	14,288900
2283,000000	14,289400
2282,000000	14,274500
2281,000000	14,260100
2280,000000	14,231300
2279,000000	14,194100
2278,000000	14,162800
2277,000000	14,134100
2276,000000	14,081000
2275,000000	14,057900
2274,000000	14,008500
2273,000000	13,974900
2272,000000	13,956600
2271,000000	13,946200
2270,000000	13,960000
2269,000000	13,966400
2268,000000	13,999400
2267,000000	14,022900
2266,000000	14,109000
2265,000000	14,175300
2264,000000	14,273100
2263,000000	14,402000
2262,000000	14,562100
2261,000000	14,713600
2260,000000	14,888700
2259,000000	15,079700
2258,000000	15,279300
2257,000000	15,494100
2256,000000	15,714900
2255,000000	15,917900
2254,000000	16,150900
2253,000000	16,381400
2252,000000	16,583900
2251,000000	16,788500
2250,000000	16,997200
2249,000000	17,178800
2248,000000	17,377900
2247,000000	17,545600
2246,000000	17,697800
2245,000000	17,842100
2244,000000	18,006300
2243,000000	18,108700
2242,000000	18,238200
2241,000000	18,349200
2240,000000	18,420800
2239,000000	18,540500
2238,000000	18,607500
2237,000000	18,673800
2236,000000	18,753900
2235,000000	18,786900
2234,000000	18,859400
2233,000000	18,893500
2232,000000	18,929700
2231,000000	18,945800
2230,000000	18,980600
2229,000000	18,999700
2228,000000	19,014600
2227,000000	19,008400
2226,000000	18,987900
2225,000000	18,998400
2224,000000	18,986400
2223,000000	18,954100
2222,000000	18,933600
2221,000000	18,884700
2220,000000	18,857900
2219,000000	18,823100
2218,000000	18,807200
2217,000000	18,749800
2216,000000	18,688400
2215,000000	18,666900
2214,000000	18,608300
2213,000000	18,566100
2212,000000	18,526000
2211,000000	18,494600
2210,000000	18,455500
2209,000000	18,418200
2208,000000	18,385300
2207,000000	18,357800
2206,000000	18,314500
2205,000000	18,270400
2204,000000	18,266700
2203,000000	18,241700
2202,000000	18,215700
2201,000000	18,203300
2200,000000	18,185100
2199,000000	18,171000
2198,000000	18,146700
2197,000000	18,139900
2196,000000	18,115200
2195,000000	18,084500
2194,000000	18,088600
2193,000000	18,069400
2192,000000	18,062800
2191,000000	18,053400
2190,000000	18,038900
2189,000000	18,032800
2188,000000	18,028900
2187,000000	17,996700
2186,000000	17,968300
2185,000000	17,959800
2184,000000	17,947900
2183,000000	17,932300
2182,000000	17,917500
2181,000000	17,892100
2180,000000	17,873700
2179,000000	17,860600
2178,000000	17,847800
2177,000000	17,828000
2176,000000	17,825700
2175,000000	17,824200
2174,000000	17,801500
2173,000000	17,811500
2172,000000	17,813100
2171,000000	17,806800
2170,000000	17,826300
2169,000000	17,828200
2168,000000	17,819700
2167,000000	17,858000
2166,000000	17,859600
2165,000000	17,874200
2164,000000	17,889900
2163,000000	17,922500
2162,000000	17,953200
2161,000000	17,986900
2160,000000	18,007100
2159,000000	18,047500
2158,000000	18,085000
2157,000000	18,126600
2156,000000	18,180500
2155,000000	18,231200
2154,000000	18,265800
2153,000000	18,313900
2152,000000	18,357100
2151,000000	18,409100
2150,000000	18,450300
2149,000000	18,509400
2148,000000	18,561400
2147,000000	18,617300
2146,000000	18,667000
2145,000000	18,712900
2144,000000	18,770700
2143,000000	18,822900
2142,000000	18,869300
2141,000000	18,907500
2140,000000	18,950200
2139,000000	18,995200
2138,000000	19,022900
2137,000000	19,072600
2136,000000	19,101900
2135,000000	19,137700
2134,000000	19,173900
2133,000000	19,208400
2132,000000	19,224500
2131,000000	19,231300
2130,000000	19,266000
2129,000000	19,291600
2128,000000	19,294700
2127,000000	19,306100
2126,000000	19,322700
2125,000000	19,325300
2124,000000	19,320200
2123,000000	19,328700
2122,000000	19,309300
2121,000000	19,300500
2120,000000	19,303500
2119,000000	19,278900
2118,000000	19,271400
2117,000000	19,269800
2116,000000	19,251100
2115,000000	19,219100
2114,000000	19,215700
2113,000000	19,200600
2112,000000	19,174400
2111,000000	19,144700
2110,000000	19,127400
2109,000000	19,104300
2108,000000	19,077200
2107,000000	19,047200
2106,000000	19,016400
2105,000000	18,987900
2104,000000	18,967500
2103,000000	18,944700
2102,000000	18,915000
2101,000000	18,880400
2100,000000	18,847500
2099,000000	18,833800
2098,000000	18,805300
2097,000000	18,773400
2096,000000	18,749400
2095,000000	18,731700
2094,000000	18,697200
2093,000000	18,662600
2092,000000	18,641000
2091,000000	18,627500
2090,000000	18,601300
2089,000000	18,575700
2088,000000	18,555400
2087,000000	18,522500
2086,000000	18,494500
2085,000000	18,472000
2084,000000	18,442000
2083,000000	18,403000
2082,000000	18,366500
2081,000000	18,333700
2080,000000	18,292700
2079,000000	18,242100
2078,000000	18,192900
2077,000000	18,141300
2076,000000	18,089200
2075,000000	18,033400
2074,000000	17,973500
2073,000000	17,907800
2072,000000	17,841200
2071,000000	17,785200
2070,000000	17,726100
2069,000000	17,639300
2068,000000	17,559800
2067,000000	17,498200
2066,000000	17,429000
2065,000000	17,357600
2064,000000	17,296700
2063,000000	17,217500
2062,000000	17,136500
2061,000000	17,081300
2060,000000	17,026000
2059,000000	16,971800
2058,000000	16,922400
2057,000000	16,875200
2056,000000	16,838500
2055,000000	16,824900
2054,000000	16,812800
2053,000000	16,799800
2052,000000	16,805300
2051,000000	16,815400
2050,000000	16,834400
2049,000000	16,859800
2048,000000	16,897400
2047,000000	16,947800
2046,000000	16,995600
2045,000000	17,036700
2044,000000	17,095800
2043,000000	17,154400
2042,000000	17,210400
2041,000000	17,275700
2040,000000	17,321000
2039,000000	17,364500
2038,000000	17,402800
2037,000000	17,459600
2036,000000	17,493900
2035,000000	17,532600
2034,000000	17,585000
2033,000000	17,611100
2032,000000	17,632800
2031,000000	17,632900
2030,000000	17,645300
2029,000000	17,674500
2028,000000	17,689200
2027,000000	17,691300
2026,000000	17,696700
2025,000000	17,709100
2024,000000	17,703400
2023,000000	17,688600
2022,000000	17,663200
2021,000000	17,643500
2020,000000	17,633300
2019,000000	17,611500
2018,000000	17,592100
2017,000000	17,560700
2016,000000	17,530800
2015,000000	17,505500
2014,000000	17,473800
2013,000000	17,437400
2012,000000	17,402600
2011,000000	17,344200
2010,000000	17,298400
2009,000000	17,260600
2008,000000	17,204300
2007,000000	17,143000
2006,000000	17,082400
2005,000000	17,010800
2004,000000	16,951300
2003,000000	16,904500
2002,000000	16,826800
2001,000000	16,749600
2000,000000	16,661000
1999,000000	16,590400
1998,000000	16,516000
1997,000000	16,435400
1996,000000	16,338400
1995,000000	16,251000
1994,000000	16,163400
1993,000000	16,079900
1992,000000	15,989300
1991,000000	15,897500
1990,000000	15,801400
1989,000000	15,696400
1988,000000	15,590400
1987,000000	15,509000
1986,000000	15,400700
1985,000000	15,306500
1984,000000	15,191000
1983,000000	15,105700
1982,000000	14,996400
1981,000000	14,882100
1980,000000	14,793400
1979,000000	14,701400
1978,000000	14,585200
1977,000000	14,492200
1976,000000	14,400800
1975,000000	14,282000
1974,000000	14,211800
1973,000000	14,116100
1972,000000	13,993800
1971,000000	13,904800
1970,000000	13,791100
1969,000000	13,703200
1968,000000	13,610600
1967,000000	13,516100
1966,000000	13,417700
1965,000000	13,341900
1964,000000	13,262800
1963,000000	13,162800
1962,000000	13,086300
1961,000000	12,992400
1960,000000	12,913300
1959,000000	12,827500
1958,000000	12,745300
1957,000000	12,664100
1956,000000	12,586900
1955,000000	12,517100
1954,000000	12,426500
1953,000000	12,337600
1952,000000	12,274700
1951,000000	12,195200
1950,000000	12,156400
1949,000000	12,067900
1948,000000	11,991400
1947,000000	11,934600
1946,000000	11,901700
1945,000000	11,846500
1944,000000	11,798800
1943,000000	11,762900
1942,000000	11,720500
1941,000000	11,705400
1940,000000	11,689600
1939,000000	11,653600
1938,000000	11,663900
1937,000000	11,666700
1936,000000	11,633400
1935,000000	11,639800
1934,000000	11,658400
1933,000000	11,696700
1932,000000	11,703200
1931,000000	11,762100
1930,000000	11,802200
1929,000000	11,853200
1928,000000	11,933400
1927,000000	11,978100
1926,000000	12,062600
1925,000000	12,146300
1924,000000	12,253000
1923,000000	12,374300
1922,000000	12,474900
1921,000000	12,601400
1920,000000	12,743600
1919,000000	12,901100
1918,000000	13,022500
1917,000000	13,183900
1916,000000	13,336500
1915,000000	13,511100
1914,000000	13,703600
1913,000000	13,935600
1912,000000	14,149200
1911,000000	14,348400
1910,000000	14,569700
1909,000000	14,763900
1908,000000	14,989200
1907,000000	15,250200
1906,000000	15,530100
1905,000000	15,852900
1904,000000	16,178400
1903,000000	16,466900
1902,000000	16,803000
1901,000000	17,133200
1900,000000	17,493000
1899,000000	17,904200
1898,000000	18,299700
1897,000000	18,704300
1896,000000	19,091700
1895,000000	19,467000
1894,000000	19,876200
1893,000000	20,319300
1892,000000	20,826500
1891,000000	21,383000
1890,000000	21,917800
1889,000000	22,420500
1888,000000	22,953400
1887,000000	23,485700
1886,000000	24,045700
1885,000000	24,604900
1884,000000	25,168600
1883,000000	25,743900
1882,000000	26,352500
1881,000000	26,893800
1880,000000	27,426300
1879,000000	27,930200
1878,000000	28,431800
1877,000000	28,951400
1876,000000	29,454500
1875,000000	29,941400
1874,000000	30,409500
1873,000000	30,849900
1872,000000	31,304400
1871,000000	31,716600
1870,000000	32,088800
1869,000000	32,412500
1868,000000	32,718500
1867,000000	32,974900
1866,000000	33,186200
1865,000000	33,388100
1864,000000	33,585000
1863,000000	33,778400
1862,000000	33,970000
1861,000000	34,168900
1860,000000	34,383700
1859,000000	34,574900
1858,000000	34,729700
1857,000000	34,852700
1856,000000	34,981500
1855,000000	35,080600
1854,000000	35,166200
1853,000000	35,239400
1852,000000	35,288200
1851,000000	35,357000
1850,000000	35,417800
1849,000000	35,507800
1848,000000	35,589700
1847,000000	35,621400
1846,000000	35,602400
1845,000000	35,559900
1844,000000	35,555700
1843,000000	35,576400
1842,000000	35,648600
1841,000000	35,706900
1840,000000	35,691600
1839,000000	35,696200
1838,000000	35,678700
1837,000000	35,653400
1836,000000	35,627000
1835,000000	35,573400
1834,000000	35,514100
1833,000000	35,450300
1832,000000	35,420100
1831,000000	35,386700
1830,000000	35,373600
1829,000000	35,337600
1828,000000	35,288200
1827,000000	35,239800
1826,000000	35,166900
1825,000000	35,122400
1824,000000	35,081600
1823,000000	35,053300
1822,000000	35,054000
1821,000000	35,065200
1820,000000	35,033700
1819,000000	34,990900
1818,000000	34,936200
1817,000000	34,884800
1816,000000	34,847400
1815,000000	34,839700
1814,000000	34,819800
1813,000000	34,789600
1812,000000	34,758300
1811,000000	34,736300
1810,000000	34,696600
1809,000000	34,643200
1808,000000	34,611200
1807,000000	34,574700
1806,000000	34,538400
1805,000000	34,498400
1804,000000	34,447100
1803,000000	34,398800
1802,000000	34,369600
1801,000000	34,331900
1800,000000	34,279800
1799,000000	34,214400
1798,000000	34,152500
1797,000000	34,107300
1796,000000	34,079800
1795,000000	34,043900
1794,000000	33,995400
1793,000000	33,955100
1792,000000	33,909800
1791,000000	33,857300
1790,000000	33,820900
1789,000000	33,796300
1788,000000	33,756100
1787,000000	33,713500
1786,000000	33,676900
1785,000000	33,648000
1784,000000	33,620400
1783,000000	33,576500
1782,000000	33,524200
1781,000000	33,481300
1780,000000	33,449300
1779,000000	33,406400
1778,000000	33,350600
1777,000000	33,302100
1776,000000	33,254800
1775,000000	33,208300
1774,000000	33,162700
1773,000000	33,105200
1772,000000	33,036700
1771,000000	32,983000
1770,000000	32,926600
1769,000000	32,868800
1768,000000	32,813800
1767,000000	32,749600
1766,000000	32,699200
1765,000000	32,651000
1764,000000	32,620200
1763,000000	32,600000
1762,000000	32,591000
1761,000000	32,593500
1760,000000	32,613700
1759,000000	32,650000
1758,000000	32,699200
1757,000000	32,755800
1756,000000	32,795100
1755,000000	32,845000
1754,000000	32,907600
1753,000000	32,962600
1752,000000	32,991800
1751,000000	33,018200
1750,000000	33,039900
1749,000000	33,037400
1748,000000	33,045900
1747,000000	33,037900
1746,000000	33,007700
1745,000000	32,973400
1744,000000	32,947000
1743,000000	32,887000
1742,000000	32,804700
1741,000000	32,733700
1740,000000	32,648700
1739,000000	32,544900
1738,000000	32,448500
1737,000000	32,333400
1736,000000	32,219500
1735,000000	32,150500
1734,000000	32,069400
1733,000000	32,015900
1732,000000	31,993200
1731,000000	31,987900
1730,000000	32,020100
1729,000000	32,049900
1728,000000	32,092800
1727,000000	32,133700
1726,000000	32,214800
1725,000000	32,285700
1724,000000	32,356800
1723,000000	32,414400
1722,000000	32,470100
1721,000000	32,540000
1720,000000	32,615400
1719,000000	32,701800
1718,000000	32,796500
1717,000000	32,887400
1716,000000	32,971700
1715,000000	33,070500
1714,000000	33,182200
1713,000000	33,274200
1712,000000	33,383000
1711,000000	33,451600
1710,000000	33,531200
1709,000000	33,585800
1708,000000	33,641100
1707,000000	33,668700
1706,000000	33,658500
1705,000000	33,661900
1704,000000	33,637000
1703,000000	33,596000
1702,000000	33,545600
1701,000000	33,495300
1700,000000	33,428500
1699,000000	33,330300
1698,000000	33,233700
1697,000000	33,148100
1696,000000	33,091400
1695,000000	33,008900
1694,000000	32,969700
1693,000000	32,992600
1692,000000	33,002300
1691,000000	33,049700
1690,000000	33,101800
1689,000000	33,195500
1688,000000	33,300700
1687,000000	33,361500
1686,000000	33,433600
1685,000000	33,531800
1684,000000	33,612000
1683,000000	33,732100
1682,000000	33,868000
1681,000000	34,062300
1680,000000	34,306900
1679,000000	34,572600
1678,000000	34,897100
1677,000000	35,180300
1676,000000	35,487100
1675,000000	35,759200
1674,000000	36,028800
1673,000000	36,258700
1672,000000	36,467800
1671,000000	36,664000
1670,000000	36,830800
1669,000000	36,971900
1668,000000	37,107700
1667,000000	37,189500
1666,000000	37,293000
1665,000000	37,378400
1664,000000	37,451800
1663,000000	37,517700
1662,000000	37,590300
1661,000000	37,644900
1660,000000	37,695700
1659,000000	37,733300
1658,000000	37,765600
1657,000000	37,810700
1656,000000	37,802900
1655,000000	37,832500
1654,000000	37,838900
1653,000000	37,845800
1652,000000	37,823100
1651,000000	37,817500
1650,000000	37,789700
1649,000000	37,776700
1648,000000	37,741500
1647,000000	37,709300
1646,000000	37,686200
1645,000000	37,645000
1644,000000	37,608300
1643,000000	37,585000
1642,000000	37,535400
1641,000000	37,506300
1640,000000	37,442100
1639,000000	37,397700
1638,000000	37,357100
1637,000000	37,311500
1636,000000	37,254800
1635,000000	37,211400
1634,000000	37,181400
1633,000000	37,103400
1632,000000	37,053400
1631,000000	36,991300
1630,000000	36,925000
1629,000000	36,886100
1628,000000	36,827000
1627,000000	36,763500
1626,000000	36,695500
1625,000000	36,630800
1624,000000	36,579500
1623,000000	36,510000
1622,000000	36,449600
1621,000000	36,392700
1620,000000	36,329900
1619,000000	36,286100
1618,000000	36,211100
1617,000000	36,164100
1616,000000	36,099600
1615,000000	36,059500
1614,000000	35,992400
1613,000000	35,947500
1612,000000	35,899000
1611,000000	35,840800
1610,000000	35,776100
1609,000000	35,719200
1608,000000	35,673000
1607,000000	35,607300
1606,000000	35,548300
1605,000000	35,488400
1604,000000	35,419900
1603,000000	35,363600
1602,000000	35,295500
1601,000000	35,234100
1600,000000	35,167300
1599,000000	35,088400
1598,000000	35,036600
1597,000000	34,976500
1596,000000	34,917600
1595,000000	34,846600
1594,000000	34,787600
1593,000000	34,740800
1592,000000	34,683800
1591,000000	34,625600
1590,000000	34,571700
1589,000000	34,515500
1588,000000	34,460900
1587,000000	34,403500
1586,000000	34,329600
1585,000000	34,281000
1584,000000	34,232900
1583,000000	34,173200
1582,000000	34,125800
1581,000000	34,069800
1580,000000	34,016400
1579,000000	33,967400
1578,000000	33,919400
1577,000000	33,877400
1576,000000	33,842800
1575,000000	33,803700
1574,000000	33,765500
1573,000000	33,733700
1572,000000	33,690200
1571,000000	33,647000
1570,000000	33,627700
1569,000000	33,606800
1568,000000	33,579500
1567,000000	33,550100
1566,000000	33,513900
1565,000000	33,494400
1564,000000	33,458600
1563,000000	33,431700
1562,000000	33,403500
1561,000000	33,367800
1560,000000	33,322600
1559,000000	33,278400
1558,000000	33,239600
1557,000000	33,186700
1556,000000	33,139400
1555,000000	33,093900
1554,000000	33,028900
1553,000000	32,960800
1552,000000	32,889700
1551,000000	32,816500
1550,000000	32,762800
1549,000000	32,689900
1548,000000	32,614600
1547,000000	32,565300
1546,000000	32,501800
1545,000000	32,432600
1544,000000	32,377000
1543,000000	32,326400
1542,000000	32,264100
1541,000000	32,203500
1540,000000	32,150200
1539,000000	32,103800
1538,000000	32,060400
1537,000000	32,015300
1536,000000	31,942000
1535,000000	31,877300
1534,000000	31,829300
1533,000000	31,766800
1532,000000	31,698800
1531,000000	31,644400
1530,000000	31,588100
1529,000000	31,523000
1528,000000	31,459700
1527,000000	31,403900
1526,000000	31,341400
1525,000000	31,274500
1524,000000	31,203700
1523,000000	31,130100
1522,000000	31,058400
1521,000000	30,992800
1520,000000	30,918700
1519,000000	30,843500
1518,000000	30,773400
1517,000000	30,701300
1516,000000	30,636900
1515,000000	30,558900
1514,000000	30,483600
1513,000000	30,412400
1512,000000	30,344600
1511,000000	30,272700
1510,000000	30,185500
1509,000000	30,102500
1508,000000	30,032600
1507,000000	29,969900
1506,000000	29,888300
1505,000000	29,806100
1504,000000	29,733500
1503,000000	29,663700
1502,000000	29,596200
1501,000000	29,528700
1500,000000	29,460100
1499,000000	29,392000
1498,000000	29,326100
1497,000000	29,263300
1496,000000	29,206500
1495,000000	29,151800
1494,000000	29,094700
1493,000000	29,042000
1492,000000	28,999800
1491,000000	28,952100
1490,000000	28,909300
1489,000000	28,857900
1488,000000	28,795100
1487,000000	28,748000
1486,000000	28,710800
1485,000000	28,661100
1484,000000	28,622400
1483,000000	28,583000
1482,000000	28,549600
1481,000000	28,513300
1480,000000	28,466300
1479,000000	28,430400
1478,000000	28,414300
1477,000000	28,394300
1476,000000	28,360100
1475,000000	28,331500
1474,000000	28,325200
1473,000000	28,320900
1472,000000	28,311400
1471,000000	28,306900
1470,000000	28,299400
1469,000000	28,278300
1468,000000	28,253700
1467,000000	28,254900
1466,000000	28,273900
1465,000000	28,278800
1464,000000	28,273300
1463,000000	28,284600
1462,000000	28,278800
1461,000000	28,281200
1460,000000	28,325100
1459,000000	28,347200
1458,000000	28,366100
1457,000000	28,417500
1456,000000	28,460600
1455,000000	28,512100
1454,000000	28,549900
1453,000000	28,588100
1452,000000	28,664500
1451,000000	28,729600
1450,000000	28,786100
1449,000000	28,837600
1448,000000	28,888600
1447,000000	28,954600
1446,000000	29,046100
1445,000000	29,131000
1444,000000	29,182800
1443,000000	29,259800
1442,000000	29,351800
1441,000000	29,440500
1440,000000	29,533400
1439,000000	29,630300
1438,000000	29,733700
1437,000000	29,825800
1436,000000	29,924300
1435,000000	30,044100
1434,000000	30,185100
1433,000000	30,307900
1432,000000	30,453100
1431,000000	30,595300
1430,000000	30,716700
1429,000000	30,862700
1428,000000	31,058600
1427,000000	31,213800
1426,000000	31,383100
1425,000000	31,571600
1424,000000	31,767000
1423,000000	31,998800
1422,000000	32,221400
1421,000000	32,411000
1420,000000	32,671100
1419,000000	32,958000
1418,000000	33,178800
1417,000000	33,413300
1416,000000	33,674900
1415,000000	33,999400
1414,000000	34,324200
1413,000000	34,617500
1412,000000	34,924400
1411,000000	35,250100
1410,000000	35,613100
1409,000000	36,031300
1408,000000	36,398700
1407,000000	36,773300
1406,000000	37,145000
1405,000000	37,558400
1404,000000	37,974700
1403,000000	38,400000
1402,000000	38,785400
1401,000000	39,251200
1400,000000	39,751700
1399,000000	40,186200
1398,000000	40,514300
1397,000000	40,905300
1396,000000	41,365500
1395,000000	41,876400
1394,000000	42,304800
1393,000000	42,668200
1392,000000	43,127300
1391,000000	43,565900
1390,000000	44,023500
1389,000000	44,433100
1388,000000	45,001100
1387,000000	45,502000
1386,000000	45,993700
1385,000000	46,497800
1384,000000	47,062100
1383,000000	47,556200
1382,000000	48,061300
1381,000000	48,516800
1380,000000	48,795200
1379,000000	49,106500
1378,000000	49,382600
1377,000000	49,580200
1376,000000	49,797400
1375,000000	50,016000
1374,000000	50,198800
1373,000000	50,445100
1372,000000	50,681300
1371,000000	50,962000
1370,000000	51,194700
1369,000000	51,406900
1368,000000	51,664600
1367,000000	51,873100
1366,000000	52,049000
1365,000000	52,206100
1364,000000	52,413100
1363,000000	52,510200
1362,000000	52,700600
1361,000000	52,841100
1360,000000	52,947600
1359,000000	52,947400
1358,000000	53,076000
1357,000000	53,167300
1356,000000	53,254500
1355,000000	53,434900
1354,000000	53,631300
1353,000000	53,821700
1352,000000	54,029700
1351,000000	54,275100
1350,000000	54,560500
1349,000000	54,822800
1348,000000	55,088600
1347,000000	55,335500
1346,000000	55,580400
1345,000000	55,797300
1344,000000	56,066500
1343,000000	56,317900
1342,000000	56,547500
1341,000000	56,772800
1340,000000	57,022800
1339,000000	57,253300
1338,000000	57,480100
1337,000000	57,702100
1336,000000	57,926300
1335,000000	58,174600
1334,000000	58,381300
1333,000000	58,600900
1332,000000	58,816000
1331,000000	59,046500
1330,000000	59,247100
1329,000000	59,445400
1328,000000	59,645900
1327,000000	59,834400
1326,000000	60,018100
1325,000000	60,204600
1324,000000	60,373000
1323,000000	60,553900
1322,000000	60,703700
1321,000000	60,861400
1320,000000	61,021900
1319,000000	61,169500
1318,000000	61,330300
1317,000000	61,469100
1316,000000	61,594200
1315,000000	61,726300
1314,000000	61,854600
1313,000000	61,990500
1312,000000	62,096100
1311,000000	62,203300
1310,000000	62,306200
1309,000000	62,405200
1308,000000	62,508800
1307,000000	62,597300
1306,000000	62,673600
1305,000000	62,747700
1304,000000	62,815300
1303,000000	62,881400
1302,000000	62,943600
1301,000000	62,994900
1300,000000	63,046200
1299,000000	63,100400
1298,000000	63,137500
1297,000000	63,171700
1296,000000	63,212300
1295,000000	63,236500
1294,000000	63,264000
1293,000000	63,274500
1292,000000	63,279900
1291,000000	63,299600
1290,000000	63,316000
1289,000000	63,335500
1288,000000	63,316800
1287,000000	63,303800
1286,000000	63,297800
1285,000000	63,277800
1284,000000	63,249800
1283,000000	63,229300
1282,000000	63,199000
1281,000000	63,172800
1280,000000	63,150100
1279,000000	63,123600
1278,000000	63,095300
1277,000000	63,072000
1276,000000	63,052500
1275,000000	63,024800
1274,000000	63,007300
1273,000000	63,000100
1272,000000	62,967100
1271,000000	62,933600
1270,000000	62,932100
1269,000000	62,917600
1268,000000	62,901100
1267,000000	62,880600
1266,000000	62,864900
1265,000000	62,842100
1264,000000	62,820700
1263,000000	62,804900
1262,000000	62,793300
1261,000000	62,761200
1260,000000	62,737400
1259,000000	62,715000
1258,000000	62,686200
1257,000000	62,655800
1256,000000	62,620100
1255,000000	62,584100
1254,000000	62,535000
1253,000000	62,502500
1252,000000	62,468400
1251,000000	62,417900
1250,000000	62,350300
1249,000000	62,291600
1248,000000	62,233800
1247,000000	62,173200
1246,000000	62,114600
1245,000000	62,046700
1244,000000	61,973100
1243,000000	61,890400
1242,000000	61,813800
1241,000000	61,733600
1240,000000	61,644200
1239,000000	61,560600
1238,000000	61,486100
1237,000000	61,405400
1236,000000	61,326900
1235,000000	61,237100
1234,000000	61,150600
1233,000000	61,068500
1232,000000	60,970500
1231,000000	60,866500
1230,000000	60,767100
1229,000000	60,663400
1228,000000	60,561100
1227,000000	60,458300
1226,000000	60,343500
1225,000000	60,231900
1224,000000	60,123400
1223,000000	60,022300
1222,000000	59,918300
1221,000000	59,802500
1220,000000	59,682800
1219,000000	59,567700
1218,000000	59,456800
1217,000000	59,347400
1216,000000	59,248800
1215,000000	59,147300
1214,000000	59,042200
1213,000000	58,939100
1212,000000	58,840400
1211,000000	58,743000
1210,000000	58,630500
1209,000000	58,535500
1208,000000	58,449900
1207,000000	58,349400
1206,000000	58,268200
1205,000000	58,181200
1204,000000	58,090500
1203,000000	58,015200
1202,000000	57,965200
1201,000000	57,915200
1200,000000	57,854300
1199,000000	57,800500
1198,000000	57,735000
1197,000000	57,650800
1196,000000	57,567600
1195,000000	57,463700
1194,000000	57,323600
1193,000000	57,185000
1192,000000	57,027500
1191,000000	56,835500
1190,000000	56,634800
1189,000000	56,433700
1188,000000	56,250800
1187,000000	56,111000
1186,000000	56,015800
1185,000000	55,960000
1184,000000	55,970600
1183,000000	56,046800
1182,000000	56,182100
1181,000000	56,360200
1180,000000	56,576400
1179,000000	56,821700
1178,000000	57,057200
1177,000000	57,286900
1176,000000	57,493000
1175,000000	57,692900
1174,000000	57,867100
1173,000000	58,036200
1172,000000	58,209000
1171,000000	58,374000
1170,000000	58,557100
1169,000000	58,735600
1168,000000	58,911100
1167,000000	59,114600
1166,000000	59,305500
1165,000000	59,527400
1164,000000	59,732400
1163,000000	59,954000
1162,000000	60,175300
1161,000000	60,404000
1160,000000	60,635100
1159,000000	60,855900
1158,000000	61,073700
1157,000000	61,298900
1156,000000	61,510200
1155,000000	61,719900
1154,000000	61,918600
1153,000000	62,099300
1152,000000	62,248700
1151,000000	62,384500
1150,000000	62,522200
1149,000000	62,667400
1148,000000	62,778500
1147,000000	62,916900
1146,000000	63,065000
1145,000000	63,238500
1144,000000	63,421600
1143,000000	63,630800
1142,000000	63,843200
1141,000000	64,091400
1140,000000	64,344600
1139,000000	64,615300
1138,000000	64,893900
1137,000000	65,201100
1136,000000	65,528000
1135,000000	65,840400
1134,000000	66,173700
1133,000000	66,422500
1132,000000	66,651100
1131,000000	66,873100
1130,000000	67,111100
1129,000000	67,302800
1128,000000	67,471500
1127,000000	67,621000
1126,000000	67,725300
1125,000000	67,844100
1124,000000	67,910700
1123,000000	67,986500
1122,000000	68,024000
1121,000000	68,075500
1120,000000	68,094100
1119,000000	68,107500
1118,000000	68,120900
1117,000000	68,137500
1116,000000	68,148800
1115,000000	68,152200
1114,000000	68,147000
1113,000000	68,146900
1112,000000	68,129200
1111,000000	68,124500
1110,000000	68,130200
1109,000000	68,128300
1108,000000	68,121800
1107,000000	68,115800
1106,000000	68,121000
1105,000000	68,093400
1104,000000	68,094000
1103,000000	68,101000
1102,000000	68,103000
1101,000000	68,081900
1100,000000	68,059100
1099,000000	68,075400
1098,000000	68,059500
1097,000000	68,063000
1096,000000	68,047000
1095,000000	68,056500
1094,000000	68,029800
1093,000000	68,023200
1092,000000	68,018200
1091,000000	67,996300
1090,000000	67,988800
1089,000000	67,963500
1088,000000	67,953400
1087,000000	67,927100
1086,000000	67,894100
1085,000000	67,882300
1084,000000	67,883400
1083,000000	67,842300
1082,000000	67,817000
1081,000000	67,801600
1080,000000	67,760900
1079,000000	67,731900
1078,000000	67,686100
1077,000000	67,681500
1076,000000	67,663000
1075,000000	67,621400
1074,000000	67,578600
1073,000000	67,549400
1072,000000	67,511500
1071,000000	67,486900
1070,000000	67,464600
1069,000000	67,422200
1068,000000	67,370000
1067,000000	67,344300
1066,000000	67,294300
1065,000000	67,255600
1064,000000	67,230000
1063,000000	67,205000
1062,000000	67,152800
1061,000000	67,111900
1060,000000	67,082700
1059,000000	67,036200
1058,000000	66,996600
1057,000000	66,958200
1056,000000	66,907000
1055,000000	66,899600
1054,000000	66,874500
1053,000000	66,829200
1052,000000	66,788700
1051,000000	66,775600
1050,000000	66,749000
1049,000000	66,723700
1048,000000	66,700600
1047,000000	66,688400
1046,000000	66,670000
1045,000000	66,655400
1044,000000	66,646200
1043,000000	66,638400
1042,000000	66,632500
1041,000000	66,619600
1040,000000	66,628300
1039,000000	66,614600
1038,000000	66,612300
1037,000000	66,589300
1036,000000	66,584800
1035,000000	66,566900
1034,000000	66,566400
1033,000000	66,551500
1032,000000	66,532700
1031,000000	66,523800
1030,000000	66,513500
1029,000000	66,495200
1028,000000	66,480100
1027,000000	66,454300
1026,000000	66,422500
1025,000000	66,403400
1024,000000	66,355500
1023,000000	66,323300
1022,000000	66,289800
1021,000000	66,253400
1020,000000	66,203900
1019,000000	66,164300
1018,000000	66,128900
1017,000000	66,078700
1016,000000	66,059200
1015,000000	66,029200
1014,000000	65,985800
1013,000000	65,984300
1012,000000	65,970900
1011,000000	65,964900
1010,000000	65,960800
1009,000000	65,958800
1008,000000	65,948600
1007,000000	65,974200
1006,000000	66,004800
1005,000000	66,019000
1004,000000	66,025800
1003,000000	66,067500
1002,000000	66,112500
1001,000000	66,170700
1000,000000	66,191900
999,000000	66,220300
998,000000	66,281000
997,000000	66,335200
996,000000	66,384800
995,000000	66,445300
994,000000	66,489600
993,000000	66,547100
992,000000	66,620100
991,000000	66,656000
990,000000	66,707300
989,000000	66,772000
988,000000	66,818700
987,000000	66,881800
986,000000	66,944500
985,000000	66,995500
984,000000	67,037300
983,000000	67,103300
982,000000	67,137400
981,000000	67,167400
980,000000	67,214300
979,000000	67,261800
978,000000	67,284600
977,000000	67,309500
976,000000	67,335800
975,000000	67,359200
974,000000	67,376100
973,000000	67,418300
972,000000	67,443300
971,000000	67,455700
970,000000	67,471900
969,000000	67,517000
968,000000	67,554100
967,000000	67,599500
966,000000	67,630500
965,000000	67,677300
964,000000	67,755700
963,000000	67,824500
962,000000	67,882700
961,000000	67,950600
960,000000	68,019200
959,000000	68,100400
958,000000	68,180900
957,000000	68,250700
956,000000	68,341100
955,000000	68,427200
954,000000	68,505400
953,000000	68,583700
952,000000	68,647700
951,000000	68,729600
950,000000	68,821500
949,000000	68,894100
948,000000	68,953900
947,000000	69,032200
946,000000	69,093400
945,000000	69,138000
944,000000	69,199100
943,000000	69,270200
942,000000	69,316800
941,000000	69,351000
940,000000	69,403800
939,000000	69,474200
938,000000	69,518000
937,000000	69,556200
936,000000	69,607500
935,000000	69,647500
934,000000	69,705800
933,000000	69,748600
932,000000	69,785400
931,000000	69,844900
930,000000	69,898300
929,000000	69,963700
928,000000	70,017800
927,000000	70,074600
926,000000	70,173300
925,000000	70,241500
924,000000	70,308100
923,000000	70,393300
922,000000	70,482100
921,000000	70,567800
920,000000	70,660300
919,000000	70,753800
918,000000	70,834700
917,000000	70,930500
916,000000	70,996300
915,000000	71,057300
914,000000	71,137900
913,000000	71,209600
912,000000	71,262000
911,000000	71,309500
910,000000	71,370500
909,000000	71,433600
908,000000	71,498500
907,000000	71,548200
906,000000	71,608800
905,000000	71,666200
904,000000	71,743600
903,000000	71,828100
902,000000	71,896200
901,000000	71,978700
900,000000	72,053700
899,000000	72,134800
898,000000	72,224300
897,000000	72,316400
896,000000	72,406200
895,000000	72,492700
894,000000	72,582200
893,000000	72,677000
892,000000	72,768100
891,000000	72,867200
890,000000	72,954400
889,000000	73,043500
888,000000	73,150300
887,000000	73,265400
886,000000	73,378400
885,000000	73,467800
884,000000	73,568000
883,000000	73,674000
882,000000	73,775200
881,000000	73,867900
880,000000	74,000200
879,000000	74,114300
878,000000	74,228400
877,000000	74,334300
876,000000	74,415100
875,000000	74,471800
874,000000	74,542400
873,000000	74,609300
872,000000	74,622600
871,000000	74,668100
870,000000	74,799300
869,000000	75,024700
868,000000	75,305400
867,000000	75,568500
866,000000	75,855000
865,000000	76,120800
864,000000	76,386000
863,000000	76,673100
862,000000	76,955500
861,000000	77,231500
860,000000	77,533700
859,000000	77,840100
858,000000	78,119900
857,000000	81,724500
856,000000	82,973000
855,000000	82,936700
854,000000	83,579300
853,000000	83,848900
852,000000	84,308500
851,000000	84,086500
850,000000	84,723600
849,000000	84,846000
848,000000	85,534500
847,000000	86,243900
846,000000	86,050200
845,000000	85,625000
844,000000	86,416700
843,000000	86,981400
842,000000	87,016500
841,000000	87,370900
840,000000	87,765500
839,000000	88,078500
838,000000	88,909200
837,000000	88,825900
836,000000	89,412500
835,000000	89,905900
834,000000	90,451900
833,000000	90,966500
832,000000	91,268800
831,000000	91,588000
830,000000	92,088800
829,000000	92,597700
828,000000	92,920400
827,000000	93,223600
826,000000	93,684500
825,000000	93,962100
824,000000	94,229900
823,000000	94,625600
822,000000	95,023700
821,000000	95,240500
820,000000	95,243000
819,000000	95,255600
818,000000	95,547600
817,000000	95,458400
816,000000	95,502900
815,000000	95,742700
814,000000	95,916500
813,000000	95,943200
812,000000	95,795000
811,000000	95,779000
810,000000	95,733100
809,000000	95,874700
808,000000	95,877400
807,000000	95,846700
806,000000	95,640500
805,000000	95,385000
804,000000	95,583300
803,000000	95,557300
802,000000	95,527000
801,000000	95,453300
800,000000	95,219600
799,000000	95,321000
798,000000	95,157100
797,000000	95,234200
796,000000	95,300400
795,000000	95,120000
794,000000	94,970600
793,000000	94,848400
792,000000	95,033500
791,000000	95,091300
790,000000	95,081900
789,000000	94,983700
788,000000	94,974500
787,000000	94,914200
786,000000	94,753400
785,000000	94,781800
784,000000	94,760200
783,000000	94,750500
782,000000	94,725400
781,000000	94,486500
780,000000	94,352200
779,000000	94,430400
778,000000	94,119500
777,000000	93,949000
776,000000	93,906800
775,000000	93,904300
774,000000	93,667400
773,000000	93,668200
772,000000	93,480500
771,000000	93,422500
770,000000	93,441800
769,000000	93,224700
768,000000	93,067000
767,000000	93,146400
766,000000	93,047500
765,000000	92,902100
764,000000	92,904800
763,000000	92,856700
762,000000	92,728300
761,000000	92,560000
760,000000	92,585500
759,000000	92,457300
758,000000	92,280200
757,000000	92,292700
756,000000	92,109900
755,000000	92,071500
754,000000	91,837700
753,000000	91,741800
752,000000	91,426200
751,000000	91,259900
750,000000	91,044600
749,000000	90,953500
748,000000	90,543800
747,000000	90,366500
746,000000	90,213600
745,000000	89,752900
744,000000	89,513300
743,000000	89,195600
742,000000	88,672000
741,000000	88,300100
740,000000	87,999000
739,000000	87,542300
738,000000	87,129100
737,000000	86,752800
736,000000	86,237700
735,000000	85,819800
734,000000	85,243400
733,000000	84,829700
732,000000	84,419300
731,000000	84,033500
730,000000	83,519400
729,000000	83,093400
728,000000	82,791500
727,000000	82,441600
726,000000	82,094300
725,000000	81,780900
724,000000	81,574900
723,000000	81,251200
722,000000	81,074700
721,000000	80,888200
720,000000	80,786400
719,000000	80,583400
718,000000	80,464000
717,000000	80,395700
716,000000	80,344100
715,000000	80,257000
714,000000	80,258400
713,000000	80,123700
712,000000	80,091300
711,000000	79,967800
710,000000	79,873600
709,000000	79,689200
708,000000	79,587600
707,000000	79,451100
706,000000	79,200600
705,000000	78,957600
704,000000	78,710300
703,000000	78,384700
702,000000	77,990600
701,000000	77,601700
700,000000	77,123400
699,000000	76,605900
698,000000	76,046400
697,000000	75,427900
696,000000	74,776100
695,000000	74,013600
694,000000	73,233400
693,000000	72,377000
692,000000	71,560300
691,000000	70,643300
690,000000	69,728900
689,000000	68,851500
688,000000	67,893200
687,000000	66,963200
686,000000	66,049100
685,000000	65,208100
684,000000	64,255300
683,000000	63,373900
682,000000	62,529400
681,000000	61,727200
680,000000	60,981200
679,000000	60,305000
678,000000	59,684100
677,000000	59,087000
676,000000	58,549500
675,000000	58,091400
674,000000	57,713000
673,000000	57,421200
672,000000	57,171500
671,000000	57,061900
670,000000	57,070200
669,000000	57,130800
668,000000	57,259700
667,000000	57,525300
666,000000	57,916200
665,000000	58,394800
664,000000	58,885800
663,000000	59,464900
662,000000	60,147400
661,000000	60,855400
660,000000	61,627200
659,000000	62,424200
658,000000	63,217800
657,000000	64,062500
656,000000	64,951100
655,000000	65,816600
654,000000	66,653200
653,000000	67,495100
652,000000	68,381500
651,000000	69,264800
650,000000	70,130100
649,000000	70,961800
648,000000	71,804000
647,000000	72,604700
646,000000	73,448100
645,000000	74,330000
644,000000	75,145400
643,000000	75,966500
642,000000	76,769100
641,000000	77,538200
640,000000	78,258200
639,000000	78,939200
638,000000	79,578600
637,000000	80,146700
636,000000	80,656400
635,000000	81,134100
634,000000	81,558800
633,000000	81,957400
632,000000	82,394100
631,000000	82,817400
630,000000	83,268000
629,000000	83,736000
628,000000	84,220400
627,000000	84,786200
626,000000	85,319100
625,000000	85,840900
624,000000	86,425000
623,000000	87,004400
622,000000	87,588500
621,000000	88,176800
620,000000	88,698300
619,000000	89,227800
618,000000	89,711300
617,000000	90,117100
616,000000	90,505000
615,000000	90,798700
614,000000	91,074700
613,000000	91,319800
612,000000	91,520800
611,000000	91,733400
610,000000	91,890700
609,000000	91,987800
608,000000	92,070200
607,000000	92,154400
606,000000	92,258400
605,000000	92,341500
604,000000	92,435200
603,000000	92,577800
602,000000	92,677700
601,000000	92,779700
600,000000	92,899000
599,000000	92,992900
598,000000	93,091100
597,000000	93,188300
596,000000	93,288800
595,000000	93,375100
594,000000	93,439500
593,000000	93,434100
592,000000	93,452700
591,000000	93,431100
590,000000	93,341500
589,000000	93,322500
588,000000	93,213500
587,000000	93,077900
586,000000	92,959900
585,000000	92,779300
584,000000	92,552900
583,000000	92,314200
582,000000	92,078800
581,000000	91,828700
580,000000	91,536300
579,000000	91,263500
578,000000	90,995900
577,000000	90,662300
576,000000	90,324300
575,000000	90,049300
574,000000	89,713800
573,000000	89,344800
572,000000	89,005300
571,000000	88,673300
570,000000	88,305100
569,000000	87,900300
568,000000	87,516200
567,000000	87,080900
566,000000	86,666300
565,000000	86,216800
564,000000	85,762900
563,000000	85,268400
562,000000	84,754300
561,000000	84,202700
560,000000	83,633800
559,000000	83,024200
558,000000	82,416900
557,000000	81,750800
556,000000	81,080200
555,000000	80,340600
554,000000	79,621000
553,000000	78,808800
552,000000	77,995000
551,000000	77,096000
550,000000	76,171200
549,000000	75,214100
548,000000	74,164600
547,000000	73,045200
546,000000	71,894800
545,000000	70,654900
544,000000	69,320900
543,000000	67,884800
542,000000	66,413600
541,000000	64,874100
540,000000	63,260700
539,000000	61,660300
538,000000	59,977400
537,000000	58,318600
536,000000	56,611100
535,000000	54,947200
534,000000	53,307300
533,000000	51,677600
532,000000	50,102500
531,000000	48,563300
530,000000	47,116500
529,000000	45,766700
528,000000	44,519300
527,000000	43,378100
526,000000	42,398500
525,000000	41,461600
524,000000	40,639700
523,000000	39,913100
522,000000	39,292400
521,000000	38,787600
520,000000	38,355400
519,000000	38,024200
518,000000	37,747000
517,000000	37,523400
516,000000	37,346200
515,000000	37,189700
514,000000	37,049800
513,000000	36,901100
512,000000	36,793400
511,000000	36,671500
510,000000	36,482300
509,000000	36,321700
508,000000	36,133500
507,000000	35,884200
506,000000	35,624000
505,000000	35,262300
504,000000	34,893000
503,000000	34,463100
502,000000	33,979900
501,000000	33,461900
500,000000	32,869500
499,000000	32,339000
498,000000	31,729800
497,000000	31,107200
496,000000	30,438100
495,000000	29,840500
494,000000	29,189800
493,000000	28,580300
492,000000	27,995800
491,000000	27,420600
490,000000	26,899000
489,000000	26,420200
488,000000	25,958100
487,000000	25,554000
486,000000	25,224300
485,000000	24,928600
484,000000	24,693800
483,000000	24,499700
482,000000	24,391500
481,000000	24,359000
480,000000	24,369300
479,000000	24,414900
478,000000	24,522200
477,000000	24,678600
476,000000	24,831000
475,000000	24,998800
474,000000	25,229700
473,000000	25,443900
472,000000	25,679100
471,000000	25,912200
470,000000	26,153300
469,000000	26,380200
468,000000	26,579100
467,000000	26,809900
466,000000	26,994800
465,000000	27,172000
464,000000	27,341900
463,000000	27,452200
462,000000	27,534200
461,000000	27,645000
460,000000	27,728600
459,000000	27,821200
458,000000	27,820900
457,000000	27,834000
456,000000	27,823800
455,000000	27,782000
454,000000	27,707600
453,000000	27,691200
452,000000	27,592600
451,000000	27,480300
450,000000	27,332200
449,000000	27,218200
448,000000	27,089200
447,000000	26,900100
446,000000	26,692800
445,000000	26,495400
444,000000	26,262000
443,000000	26,081000
442,000000	25,842100
441,000000	25,571800
440,000000	25,292700
439,000000	25,013100
438,000000	24,683600
437,000000	24,389100
436,000000	24,063500
435,000000	23,712000
434,000000	23,363600
433,000000	23,032600
432,000000	22,630000
431,000000	22,222700
430,000000	21,843200
429,000000	21,434000
428,000000	21,012500
427,000000	20,584600
426,000000	20,148000
425,000000	19,698400
424,000000	19,204100
423,000000	18,726600
422,000000	18,254100
421,000000	17,751700
420,000000	17,277800
419,000000	16,756800
418,000000	16,263500
417,000000	15,757400
416,000000	15,275200
415,000000	14,810200
414,000000	14,321800
413,000000	13,827500
412,000000	13,376500
411,000000	12,909500
410,000000	12,461000
409,000000	12,058900
408,000000	11,671700
407,000000	11,288100
406,000000	10,893400
405,000000	10,544500
404,000000	10,210900
403,000000	9,876700
402,000000	9,576800
401,000000	9,296000
400,000000	9,013900
399,000000	8,752800
398,000000	8,531600
397,000000	8,313200
396,000000	8,098800
395,000000	7,932800
394,000000	7,758300
393,000000	7,565800
392,000000	7,431600
391,000000	7,276800
390,000000	7,144100
389,000000	7,038100
388,000000	6,919800
387,000000	6,814300
386,000000	6,729400
385,000000	6,628700
384,000000	6,530700
383,000000	6,477200
382,000000	6,391500
381,000000	6,329900
380,000000	6,271100
379,000000	6,179800
378,000000	6,134100
377,000000	6,079300
376,000000	6,020900
375,000000	5,898400
374,000000	5,851900
373,000000	5,936300
372,000000	5,878800
371,000000	5,797400
370,000000	5,784000
369,000000	5,838200
368,000000	5,730100
367,000000	5,675700
366,000000	5,671200
365,000000	5,726400
364,000000	5,806600
363,000000	5,621200
362,000000	5,526900
361,000000	5,528300
360,000000	5,559800
359,000000	5,509500
358,000000	5,470400
357,000000	5,453600
356,000000	5,446500
355,000000	5,420300
354,000000	5,432100
353,000000	5,440100
352,000000	5,404500
351,000000	5,262500
350,000000	5,221000
349,000000	5,239800
348,000000	5,161700
347,000000	5,261500
346,000000	5,372900
345,000000	5,384400
344,000000	5,249100
343,000000	5,197100
342,000000	5,317100
341,000000	5,307100
340,000000	5,288500
339,000000	5,393100
338,000000	5,398800
337,000000	5,353500
336,000000	5,369600
335,000000	5,215600
334,000000	5,144800
333,000000	5,345000
332,000000	5,441000
331,000000	5,308000
330,000000	5,336800
329,000000	5,363800
328,000000	5,433600
327,000000	5,545200
326,000000	5,477600
325,000000	5,298900
324,000000	5,409000
323,000000	5,489800
322,000000	5,549600
321,000000	5,635900
320,000000	5,476500
319,000000	5,438300
318,000000	5,879100
317,000000	5,653600
316,000000	5,261700
315,000000	5,277500
314,000000	5,281800
313,000000	5,280800
312,000000	5,264900
311,000000	5,267600
310,000000	5,317700
309,000000	5,333000
308,000000	5,288600
307,000000	5,278200
306,000000	5,309000
305,000000	5,330100
304,000000	5,332600
303,000000	5,343500
302,000000	5,324300
301,000000	5,341200
300,000000	5,367800
299,000000	5,375700
298,000000	5,402600
297,000000	5,392300
296,000000	5,386800
295,000000	5,417900
294,000000	5,440500
293,000000	5,433100
292,000000	5,428000
291,000000	5,417500
290,000000	5,430800
289,000000	5,457200
288,000000	5,473600
287,000000	5,494500
286,000000	5,486000
285,000000	5,469600
284,000000	5,494100
283,000000	5,503300
282,000000	5,515200
281,000000	5,520500
280,000000	5,531700
279,000000	5,579100
278,000000	5,589800
277,000000	5,593600
276,000000	5,559000
275,000000	5,607900
274,000000	5,616700
273,000000	5,623100
272,000000	5,663500
271,000000	5,671800
270,000000	5,667700
269,000000	5,707100
268,000000	5,703300
267,000000	5,731800
266,000000	5,749800
265,000000	5,781800
264,000000	5,783400
263,000000	5,816600
262,000000	5,821800
261,000000	5,861800
260,000000	5,883100
259,000000	5,903500
258,000000	5,900400
257,000000	5,952900
256,000000	5,970700
255,000000	5,997200
254,000000	5,948100
253,000000	5,990200
252,000000	5,971900
251,000000	5,975800
250,000000	6,002800
