PE UV       SUBTECH     SPECTRUM    ASCII       PEDS        4.00        
   -1
CICIMAUCR0223-3.Sample.ASC
24/06/13
17:08:03.00
24/06/13
17:08:03.00
Vinicio Soto Monge
C. resplendens. Sex M. Dorsal.
250,000000
1
Lambda 1050
1050L1511233
PerkinElmer UV WinLab 6.3.2.0749 / 2.02.05 Lambda 900 UV/VIS/NIR, Aug  7 2015 09:38:08

0
0
3350/servo 860,8/2
0
0
UV/VIS
1
1
1
DoubleDePol,CommonBeamDepol,RBeamAtt,SBeamAtt,60mm sphere, WB InGaAs Detector
0
0
0
0
Program
Program
3350/servo 860,8/2
3350/0,2 860,8/0,2
3350/0,2 860,8/0,2
0
15.00
 
 
 
0
 
860,8
319,2
860,8
Front
100
on
S:100 R:100
0
0
0
0
 
0
 
 
 
0
 
 
0
0
0
0
0
 
 
 
 
0
0


0
0
#HDR
-1
-1
#GR
nm
%R
1.0
0.0
2500,000000
-1,000000
2251
8
86,421400
5,728600
#DATA
2500,000000	8,631900
2499,000000	8,615600
2498,000000	8,572400
2497,000000	8,517400
2496,000000	8,408700
2495,000000	8,515900
2494,000000	8,483400
2493,000000	8,395500
2492,000000	8,440800
2491,000000	8,388800
2490,000000	8,423900
2489,000000	8,374600
2488,000000	8,306000
2487,000000	8,309000
2486,000000	8,418200
2485,000000	8,381500
2484,000000	8,290900
2483,000000	8,370700
2482,000000	8,328000
2481,000000	8,341100
2480,000000	8,303600
2479,000000	8,332900
2478,000000	8,309200
2477,000000	8,352000
2476,000000	8,355600
2475,000000	8,298500
2474,000000	8,321900
2473,000000	8,381700
2472,000000	8,378800
2471,000000	8,396700
2470,000000	8,349900
2469,000000	8,350100
2468,000000	8,362100
2467,000000	8,405700
2466,000000	8,360800
2465,000000	8,452900
2464,000000	8,462900
2463,000000	8,451400
2462,000000	8,524900
2461,000000	8,556000
2460,000000	8,620300
2459,000000	8,612500
2458,000000	8,638700
2457,000000	8,709400
2456,000000	8,777700
2455,000000	8,818200
2454,000000	8,833600
2453,000000	8,894300
2452,000000	8,964300
2451,000000	9,042700
2450,000000	9,074500
2449,000000	9,157800
2448,000000	9,228400
2447,000000	9,283800
2446,000000	9,345500
2445,000000	9,424200
2444,000000	9,492900
2443,000000	9,550300
2442,000000	9,625700
2441,000000	9,702100
2440,000000	9,749100
2439,000000	9,825900
2438,000000	9,896700
2437,000000	9,941300
2436,000000	10,015600
2435,000000	10,079800
2434,000000	10,143200
2433,000000	10,202900
2432,000000	10,261100
2431,000000	10,308700
2430,000000	10,356900
2429,000000	10,411000
2428,000000	10,460500
2427,000000	10,500200
2426,000000	10,559000
2425,000000	10,607700
2424,000000	10,664500
2423,000000	10,691000
2422,000000	10,731900
2421,000000	10,777600
2420,000000	10,802900
2419,000000	10,845700
2418,000000	10,890900
2417,000000	10,916800
2416,000000	10,950600
2415,000000	10,983600
2414,000000	11,013300
2413,000000	11,040600
2412,000000	11,080100
2411,000000	11,117600
2410,000000	11,134300
2409,000000	11,159100
2408,000000	11,185900
2407,000000	11,223800
2406,000000	11,256700
2405,000000	11,286200
2404,000000	11,325400
2403,000000	11,345900
2402,000000	11,375500
2401,000000	11,396700
2400,000000	11,416400
2399,000000	11,433200
2398,000000	11,455600
2397,000000	11,468600
2396,000000	11,477400
2395,000000	11,504800
2394,000000	11,534200
2393,000000	11,559000
2392,000000	11,582600
2391,000000	11,600800
2390,000000	11,610900
2389,000000	11,623700
2388,000000	11,636700
2387,000000	11,652100
2386,000000	11,667900
2385,000000	11,667500
2384,000000	11,665000
2383,000000	11,655800
2382,000000	11,655500
2381,000000	11,655800
2380,000000	11,653000
2379,000000	11,669300
2378,000000	11,666900
2377,000000	11,652900
2376,000000	11,641700
2375,000000	11,627400
2374,000000	11,611400
2373,000000	11,590600
2372,000000	11,561800
2371,000000	11,542500
2370,000000	11,525500
2369,000000	11,492700
2368,000000	11,446400
2367,000000	11,410000
2366,000000	11,377100
2365,000000	11,332700
2364,000000	11,312400
2363,000000	11,285400
2362,000000	11,228100
2361,000000	11,171700
2360,000000	11,123100
2359,000000	11,059800
2358,000000	11,018200
2357,000000	10,983200
2356,000000	10,940700
2355,000000	10,923400
2354,000000	10,895100
2353,000000	10,843700
2352,000000	10,816200
2351,000000	10,808600
2350,000000	10,812800
2349,000000	10,819500
2348,000000	10,824200
2347,000000	10,845100
2346,000000	10,877900
2345,000000	10,892800
2344,000000	10,915400
2343,000000	10,944300
2342,000000	10,976500
2341,000000	11,009200
2340,000000	11,044700
2339,000000	11,069100
2338,000000	11,082900
2337,000000	11,100700
2336,000000	11,097700
2335,000000	11,085100
2334,000000	11,084600
2333,000000	11,071900
2332,000000	11,036900
2331,000000	11,008000
2330,000000	10,979500
2329,000000	10,939300
2328,000000	10,887400
2327,000000	10,859900
2326,000000	10,820500
2325,000000	10,753900
2324,000000	10,685300
2323,000000	10,620900
2322,000000	10,541900
2321,000000	10,459200
2320,000000	10,379400
2319,000000	10,309000
2318,000000	10,196100
2317,000000	10,097200
2316,000000	10,000100
2315,000000	9,887000
2314,000000	9,773500
2313,000000	9,692900
2312,000000	9,607400
2311,000000	9,505400
2310,000000	9,436000
2309,000000	9,356600
2308,000000	9,287800
2307,000000	9,243200
2306,000000	9,201400
2305,000000	9,189300
2304,000000	9,199100
2303,000000	9,204400
2302,000000	9,240600
2301,000000	9,274200
2300,000000	9,325300
2299,000000	9,382000
2298,000000	9,438200
2297,000000	9,522400
2296,000000	9,607200
2295,000000	9,669100
2294,000000	9,751500
2293,000000	9,818000
2292,000000	9,870600
2291,000000	9,926300
2290,000000	9,966600
2289,000000	10,009800
2288,000000	10,021400
2287,000000	10,033400
2286,000000	10,033000
2285,000000	10,031700
2284,000000	9,994100
2283,000000	9,971100
2282,000000	9,925800
2281,000000	9,892200
2280,000000	9,852600
2279,000000	9,804000
2278,000000	9,747700
2277,000000	9,698800
2276,000000	9,653300
2275,000000	9,619200
2274,000000	9,572700
2273,000000	9,533300
2272,000000	9,510900
2271,000000	9,503800
2270,000000	9,501500
2269,000000	9,517200
2268,000000	9,541300
2267,000000	9,583500
2266,000000	9,635500
2265,000000	9,703500
2264,000000	9,804800
2263,000000	9,937400
2262,000000	10,075800
2261,000000	10,231000
2260,000000	10,407200
2259,000000	10,597200
2258,000000	10,793600
2257,000000	11,010900
2256,000000	11,216300
2255,000000	11,439700
2254,000000	11,673700
2253,000000	11,893600
2252,000000	12,097400
2251,000000	12,301600
2250,000000	12,523500
2249,000000	12,713600
2248,000000	12,919300
2247,000000	13,074300
2246,000000	13,239800
2245,000000	13,386600
2244,000000	13,536300
2243,000000	13,648300
2242,000000	13,776900
2241,000000	13,904500
2240,000000	13,994900
2239,000000	14,084300
2238,000000	14,158100
2237,000000	14,234800
2236,000000	14,312100
2235,000000	14,375300
2234,000000	14,417900
2233,000000	14,461500
2232,000000	14,526900
2231,000000	14,544100
2230,000000	14,574500
2229,000000	14,604300
2228,000000	14,618200
2227,000000	14,630600
2226,000000	14,621600
2225,000000	14,608800
2224,000000	14,599700
2223,000000	14,588700
2222,000000	14,571600
2221,000000	14,532800
2220,000000	14,527600
2219,000000	14,518400
2218,000000	14,452900
2217,000000	14,404600
2216,000000	14,370000
2215,000000	14,337400
2214,000000	14,319100
2213,000000	14,291400
2212,000000	14,237700
2211,000000	14,231300
2210,000000	14,212700
2209,000000	14,167400
2208,000000	14,132300
2207,000000	14,127400
2206,000000	14,084900
2205,000000	14,071400
2204,000000	14,044600
2203,000000	14,001400
2202,000000	13,990100
2201,000000	13,976700
2200,000000	13,941900
2199,000000	13,942800
2198,000000	13,919300
2197,000000	13,882500
2196,000000	13,890300
2195,000000	13,870600
2194,000000	13,853000
2193,000000	13,875900
2192,000000	13,842300
2191,000000	13,809000
2190,000000	13,804100
2189,000000	13,786800
2188,000000	13,777100
2187,000000	13,760200
2186,000000	13,747400
2185,000000	13,735400
2184,000000	13,718300
2183,000000	13,711600
2182,000000	13,686600
2181,000000	13,653400
2180,000000	13,658900
2179,000000	13,654600
2178,000000	13,628600
2177,000000	13,629500
2176,000000	13,613300
2175,000000	13,619300
2174,000000	13,606900
2173,000000	13,613900
2172,000000	13,613300
2171,000000	13,633900
2170,000000	13,630100
2169,000000	13,623700
2168,000000	13,626800
2167,000000	13,655500
2166,000000	13,672500
2165,000000	13,695100
2164,000000	13,727800
2163,000000	13,723000
2162,000000	13,747300
2161,000000	13,767700
2160,000000	13,797200
2159,000000	13,833200
2158,000000	13,882200
2157,000000	13,920000
2156,000000	13,945100
2155,000000	14,003400
2154,000000	14,038000
2153,000000	14,084500
2152,000000	14,132000
2151,000000	14,164400
2150,000000	14,216300
2149,000000	14,269300
2148,000000	14,277800
2147,000000	14,349500
2146,000000	14,405100
2145,000000	14,444100
2144,000000	14,490200
2143,000000	14,528100
2142,000000	14,573100
2141,000000	14,612200
2140,000000	14,642200
2139,000000	14,683600
2138,000000	14,725400
2137,000000	14,752100
2136,000000	14,780200
2135,000000	14,798100
2134,000000	14,834400
2133,000000	14,846600
2132,000000	14,859200
2131,000000	14,877300
2130,000000	14,891000
2129,000000	14,909600
2128,000000	14,915600
2127,000000	14,912000
2126,000000	14,911500
2125,000000	14,917400
2124,000000	14,912500
2123,000000	14,897300
2122,000000	14,900900
2121,000000	14,900600
2120,000000	14,880000
2119,000000	14,856100
2118,000000	14,851100
2117,000000	14,838700
2116,000000	14,797900
2115,000000	14,750600
2114,000000	14,740600
2113,000000	14,730000
2112,000000	14,701500
2111,000000	14,673500
2110,000000	14,644500
2109,000000	14,604100
2108,000000	14,585100
2107,000000	14,557300
2106,000000	14,513700
2105,000000	14,479600
2104,000000	14,451600
2103,000000	14,418900
2102,000000	14,391800
2101,000000	14,374700
2100,000000	14,340900
2099,000000	14,296600
2098,000000	14,271500
2097,000000	14,255300
2096,000000	14,218100
2095,000000	14,187100
2094,000000	14,179700
2093,000000	14,151900
2092,000000	14,124900
2091,000000	14,108800
2090,000000	14,085100
2089,000000	14,068600
2088,000000	14,043900
2087,000000	14,014400
2086,000000	13,999300
2085,000000	13,980900
2084,000000	13,947900
2083,000000	13,912700
2082,000000	13,879800
2081,000000	13,849300
2080,000000	13,819700
2079,000000	13,779900
2078,000000	13,739400
2077,000000	13,701900
2076,000000	13,666400
2075,000000	13,632000
2074,000000	13,579600
2073,000000	13,532600
2072,000000	13,482500
2071,000000	13,435600
2070,000000	13,390800
2069,000000	13,324900
2068,000000	13,268200
2067,000000	13,227400
2066,000000	13,173600
2065,000000	13,111800
2064,000000	13,062100
2063,000000	13,012500
2062,000000	12,960100
2061,000000	12,920200
2060,000000	12,888200
2059,000000	12,865500
2058,000000	12,827200
2057,000000	12,798600
2056,000000	12,776000
2055,000000	12,753600
2054,000000	12,769300
2053,000000	12,777000
2052,000000	12,791500
2051,000000	12,805000
2050,000000	12,841900
2049,000000	12,890200
2048,000000	12,935600
2047,000000	12,996800
2046,000000	13,064200
2045,000000	13,131600
2044,000000	13,201400
2043,000000	13,290400
2042,000000	13,370900
2041,000000	13,440300
2040,000000	13,509300
2039,000000	13,587600
2038,000000	13,670200
2037,000000	13,746800
2036,000000	13,813900
2035,000000	13,867900
2034,000000	13,918600
2033,000000	13,977400
2032,000000	14,031100
2031,000000	14,080500
2030,000000	14,112800
2029,000000	14,142800
2028,000000	14,185800
2027,000000	14,226600
2026,000000	14,263300
2025,000000	14,285300
2024,000000	14,308200
2023,000000	14,329500
2022,000000	14,350600
2021,000000	14,366200
2020,000000	14,382800
2019,000000	14,384000
2018,000000	14,382900
2017,000000	14,399200
2016,000000	14,413000
2015,000000	14,415900
2014,000000	14,383300
2013,000000	14,376800
2012,000000	14,381100
2011,000000	14,369200
2010,000000	14,349000
2009,000000	14,328100
2008,000000	14,291800
2007,000000	14,243900
2006,000000	14,215400
2005,000000	14,182400
2004,000000	14,150400
2003,000000	14,101900
2002,000000	14,057900
2001,000000	14,007800
2000,000000	13,974800
1999,000000	13,906700
1998,000000	13,863600
1997,000000	13,804000
1996,000000	13,741400
1995,000000	13,676900
1994,000000	13,580700
1993,000000	13,535400
1992,000000	13,463300
1991,000000	13,407900
1990,000000	13,339800
1989,000000	13,275200
1988,000000	13,174300
1987,000000	13,103800
1986,000000	13,038200
1985,000000	12,944400
1984,000000	12,868800
1983,000000	12,795500
1982,000000	12,708900
1981,000000	12,640600
1980,000000	12,542400
1979,000000	12,467800
1978,000000	12,369500
1977,000000	12,309100
1976,000000	12,233600
1975,000000	12,149600
1974,000000	12,070600
1973,000000	11,971000
1972,000000	11,905000
1971,000000	11,838400
1970,000000	11,740700
1969,000000	11,680300
1968,000000	11,593200
1967,000000	11,552600
1966,000000	11,469500
1965,000000	11,415400
1964,000000	11,335300
1963,000000	11,270900
1962,000000	11,183500
1961,000000	11,140000
1960,000000	11,063800
1959,000000	10,994500
1958,000000	10,905200
1957,000000	10,871500
1956,000000	10,805200
1955,000000	10,729100
1954,000000	10,674400
1953,000000	10,592900
1952,000000	10,562600
1951,000000	10,498200
1950,000000	10,413700
1949,000000	10,397600
1948,000000	10,331400
1947,000000	10,293600
1946,000000	10,254300
1945,000000	10,227800
1944,000000	10,154900
1943,000000	10,115800
1942,000000	10,098500
1941,000000	10,065300
1940,000000	10,065900
1939,000000	10,039600
1938,000000	10,020400
1937,000000	10,033900
1936,000000	10,022000
1935,000000	10,010900
1934,000000	10,035800
1933,000000	10,033700
1932,000000	10,047500
1931,000000	10,077800
1930,000000	10,148100
1929,000000	10,174100
1928,000000	10,214700
1927,000000	10,289900
1926,000000	10,340900
1925,000000	10,434600
1924,000000	10,497300
1923,000000	10,584200
1922,000000	10,679800
1921,000000	10,770400
1920,000000	10,897500
1919,000000	11,040300
1918,000000	11,147200
1917,000000	11,290000
1916,000000	11,425500
1915,000000	11,549000
1914,000000	11,691800
1913,000000	11,863200
1912,000000	12,057000
1911,000000	12,259200
1910,000000	12,425800
1909,000000	12,604000
1908,000000	12,760000
1907,000000	12,976600
1906,000000	13,211200
1905,000000	13,469900
1904,000000	13,730900
1903,000000	13,999100
1902,000000	14,243500
1901,000000	14,505400
1900,000000	14,789300
1899,000000	15,115700
1898,000000	15,432800
1897,000000	15,781300
1896,000000	16,081600
1895,000000	16,391100
1894,000000	16,678300
1893,000000	17,005500
1892,000000	17,355900
1891,000000	17,775000
1890,000000	18,206600
1889,000000	18,602600
1888,000000	19,024400
1887,000000	19,466400
1886,000000	19,890800
1885,000000	20,351100
1884,000000	20,820100
1883,000000	21,367400
1882,000000	21,932700
1881,000000	22,424200
1880,000000	22,941000
1879,000000	23,421000
1878,000000	23,874600
1877,000000	24,357300
1876,000000	24,807700
1875,000000	25,231800
1874,000000	25,666200
1873,000000	26,090800
1872,000000	26,488500
1871,000000	26,876200
1870,000000	27,222300
1869,000000	27,546000
1868,000000	27,866000
1867,000000	28,104500
1866,000000	28,304700
1865,000000	28,470600
1864,000000	28,615400
1863,000000	28,741100
1862,000000	28,859400
1861,000000	28,990700
1860,000000	29,136200
1859,000000	29,272100
1858,000000	29,382100
1857,000000	29,481400
1856,000000	29,553800
1855,000000	29,601900
1854,000000	29,658500
1853,000000	29,716500
1852,000000	29,730800
1851,000000	29,741200
1850,000000	29,755000
1849,000000	29,745300
1848,000000	29,762700
1847,000000	29,811600
1846,000000	29,844700
1845,000000	29,809900
1844,000000	29,736800
1843,000000	29,684000
1842,000000	29,660900
1841,000000	29,683900
1840,000000	29,704200
1839,000000	29,711000
1838,000000	29,686000
1837,000000	29,652500
1836,000000	29,624200
1835,000000	29,606300
1834,000000	29,572000
1833,000000	29,515300
1832,000000	29,435800
1831,000000	29,375500
1830,000000	29,327200
1829,000000	29,310300
1828,000000	29,262600
1827,000000	29,191600
1826,000000	29,144600
1825,000000	29,109400
1824,000000	29,039900
1823,000000	28,989600
1822,000000	28,953700
1821,000000	28,950500
1820,000000	28,959400
1819,000000	28,944600
1818,000000	28,914300
1817,000000	28,877900
1816,000000	28,860800
1815,000000	28,861400
1814,000000	28,847700
1813,000000	28,822600
1812,000000	28,810700
1811,000000	28,792100
1810,000000	28,764800
1809,000000	28,730000
1808,000000	28,698900
1807,000000	28,661200
1806,000000	28,627400
1805,000000	28,591000
1804,000000	28,539100
1803,000000	28,503500
1802,000000	28,462200
1801,000000	28,413700
1800,000000	28,373900
1799,000000	28,324200
1798,000000	28,270200
1797,000000	28,213200
1796,000000	28,162600
1795,000000	28,130800
1794,000000	28,096800
1793,000000	28,042000
1792,000000	27,979300
1791,000000	27,934300
1790,000000	27,894500
1789,000000	27,848900
1788,000000	27,818600
1787,000000	27,787400
1786,000000	27,731700
1785,000000	27,668000
1784,000000	27,616300
1783,000000	27,558000
1782,000000	27,495300
1781,000000	27,444500
1780,000000	27,386700
1779,000000	27,323100
1778,000000	27,256700
1777,000000	27,205100
1776,000000	27,122900
1775,000000	27,040600
1774,000000	26,949000
1773,000000	26,864400
1772,000000	26,773600
1771,000000	26,685800
1770,000000	26,610600
1769,000000	26,510100
1768,000000	26,407800
1767,000000	26,336300
1766,000000	26,254700
1765,000000	26,168100
1764,000000	26,103600
1763,000000	26,081100
1762,000000	26,068100
1761,000000	26,073000
1760,000000	26,094700
1759,000000	26,132700
1758,000000	26,188600
1757,000000	26,259000
1756,000000	26,328200
1755,000000	26,380000
1754,000000	26,433100
1753,000000	26,472000
1752,000000	26,514500
1751,000000	26,535300
1750,000000	26,524900
1749,000000	26,507000
1748,000000	26,484400
1747,000000	26,443100
1746,000000	26,396900
1745,000000	26,319200
1744,000000	26,237200
1743,000000	26,127100
1742,000000	25,994200
1741,000000	25,845300
1740,000000	25,672200
1739,000000	25,490000
1738,000000	25,301200
1737,000000	25,132700
1736,000000	24,970600
1735,000000	24,827700
1734,000000	24,728600
1733,000000	24,663300
1732,000000	24,636200
1731,000000	24,616100
1730,000000	24,645800
1729,000000	24,707200
1728,000000	24,778300
1727,000000	24,863500
1726,000000	24,943800
1725,000000	25,005800
1724,000000	25,061400
1723,000000	25,116000
1722,000000	25,166100
1721,000000	25,215000
1720,000000	25,264600
1719,000000	25,331500
1718,000000	25,401900
1717,000000	25,479200
1716,000000	25,552000
1715,000000	25,664200
1714,000000	25,770200
1713,000000	25,867100
1712,000000	25,950800
1711,000000	26,020700
1710,000000	26,089700
1709,000000	26,138600
1708,000000	26,165700
1707,000000	26,163200
1706,000000	26,153000
1705,000000	26,135000
1704,000000	26,097800
1703,000000	26,050300
1702,000000	25,986200
1701,000000	25,907800
1700,000000	25,797400
1699,000000	25,682600
1698,000000	25,540300
1697,000000	25,417100
1696,000000	25,303500
1695,000000	25,227500
1694,000000	25,169600
1693,000000	25,172200
1692,000000	25,214400
1691,000000	25,301800
1690,000000	25,417400
1689,000000	25,526500
1688,000000	25,608900
1687,000000	25,692300
1686,000000	25,725400
1685,000000	25,798400
1684,000000	25,849900
1683,000000	25,944400
1682,000000	26,114500
1681,000000	26,369900
1680,000000	26,680200
1679,000000	27,083100
1678,000000	27,509900
1677,000000	27,929600
1676,000000	28,348700
1675,000000	28,731000
1674,000000	29,058100
1673,000000	29,369700
1672,000000	29,647600
1671,000000	29,857900
1670,000000	30,067400
1669,000000	30,251800
1668,000000	30,417500
1667,000000	30,539900
1666,000000	30,665300
1665,000000	30,784700
1664,000000	30,882900
1663,000000	30,962800
1662,000000	31,055800
1661,000000	31,150900
1660,000000	31,213300
1659,000000	31,262500
1658,000000	31,315900
1657,000000	31,355200
1656,000000	31,398100
1655,000000	31,422700
1654,000000	31,424900
1653,000000	31,442900
1652,000000	31,424500
1651,000000	31,398100
1650,000000	31,425900
1649,000000	31,406100
1648,000000	31,364600
1647,000000	31,334800
1646,000000	31,304200
1645,000000	31,270300
1644,000000	31,229100
1643,000000	31,202500
1642,000000	31,148800
1641,000000	31,094200
1640,000000	31,064400
1639,000000	31,013000
1638,000000	30,962500
1637,000000	30,914300
1636,000000	30,849500
1635,000000	30,789500
1634,000000	30,729700
1633,000000	30,672300
1632,000000	30,607500
1631,000000	30,552200
1630,000000	30,482300
1629,000000	30,390200
1628,000000	30,329700
1627,000000	30,256300
1626,000000	30,173900
1625,000000	30,100300
1624,000000	30,028200
1623,000000	29,952200
1622,000000	29,897500
1621,000000	29,817000
1620,000000	29,748200
1619,000000	29,674900
1618,000000	29,618700
1617,000000	29,538700
1616,000000	29,475500
1615,000000	29,390200
1614,000000	29,342100
1613,000000	29,286300
1612,000000	29,205100
1611,000000	29,146100
1610,000000	29,067700
1609,000000	29,026600
1608,000000	28,944300
1607,000000	28,869900
1606,000000	28,806200
1605,000000	28,743700
1604,000000	28,660300
1603,000000	28,582400
1602,000000	28,509600
1601,000000	28,447700
1600,000000	28,369100
1599,000000	28,293300
1598,000000	28,240900
1597,000000	28,169000
1596,000000	28,103100
1595,000000	28,031200
1594,000000	27,975900
1593,000000	27,904800
1592,000000	27,854600
1591,000000	27,792000
1590,000000	27,739700
1589,000000	27,685600
1588,000000	27,639000
1587,000000	27,574800
1586,000000	27,521600
1585,000000	27,468100
1584,000000	27,422800
1583,000000	27,369800
1582,000000	27,325100
1581,000000	27,277500
1580,000000	27,241300
1579,000000	27,204100
1578,000000	27,164100
1577,000000	27,126600
1576,000000	27,107200
1575,000000	27,082300
1574,000000	27,060100
1573,000000	27,033400
1572,000000	27,005900
1571,000000	27,006000
1570,000000	27,006800
1569,000000	26,978600
1568,000000	26,970600
1567,000000	26,969900
1566,000000	26,974100
1565,000000	26,960200
1564,000000	26,964200
1563,000000	26,955000
1562,000000	26,945400
1561,000000	26,944200
1560,000000	26,923100
1559,000000	26,925100
1558,000000	26,903300
1557,000000	26,877500
1556,000000	26,864400
1555,000000	26,848400
1554,000000	26,822200
1553,000000	26,798200
1552,000000	26,751400
1551,000000	26,695700
1550,000000	26,669900
1549,000000	26,638600
1548,000000	26,588100
1547,000000	26,535100
1546,000000	26,504200
1545,000000	26,459300
1544,000000	26,419900
1543,000000	26,400400
1542,000000	26,365500
1541,000000	26,327700
1540,000000	26,296400
1539,000000	26,275600
1538,000000	26,250400
1537,000000	26,209200
1536,000000	26,197200
1535,000000	26,156700
1534,000000	26,103600
1533,000000	26,083700
1532,000000	26,046200
1531,000000	25,995100
1530,000000	25,950600
1529,000000	25,913000
1528,000000	25,869900
1527,000000	25,824400
1526,000000	25,779600
1525,000000	25,734100
1524,000000	25,689100
1523,000000	25,633500
1522,000000	25,574000
1521,000000	25,517300
1520,000000	25,471600
1519,000000	25,418700
1518,000000	25,367300
1517,000000	25,311400
1516,000000	25,238100
1515,000000	25,178600
1514,000000	25,114900
1513,000000	25,048800
1512,000000	24,986500
1511,000000	24,927800
1510,000000	24,867800
1509,000000	24,792000
1508,000000	24,711100
1507,000000	24,654500
1506,000000	24,592900
1505,000000	24,525800
1504,000000	24,457600
1503,000000	24,390400
1502,000000	24,319300
1501,000000	24,256500
1500,000000	24,207800
1499,000000	24,155100
1498,000000	24,094500
1497,000000	24,026500
1496,000000	23,966500
1495,000000	23,937200
1494,000000	23,900400
1493,000000	23,848400
1492,000000	23,816100
1491,000000	23,773400
1490,000000	23,723600
1489,000000	23,688100
1488,000000	23,658200
1487,000000	23,609300
1486,000000	23,586700
1485,000000	23,551100
1484,000000	23,515000
1483,000000	23,497800
1482,000000	23,467500
1481,000000	23,436100
1480,000000	23,417100
1479,000000	23,404500
1478,000000	23,380400
1477,000000	23,366700
1476,000000	23,359100
1475,000000	23,357900
1474,000000	23,357800
1473,000000	23,360300
1472,000000	23,357100
1471,000000	23,364500
1470,000000	23,380400
1469,000000	23,384900
1468,000000	23,382700
1467,000000	23,396800
1466,000000	23,403100
1465,000000	23,404400
1464,000000	23,415900
1463,000000	23,445200
1462,000000	23,469600
1461,000000	23,495300
1460,000000	23,520500
1459,000000	23,558500
1458,000000	23,599400
1457,000000	23,647100
1456,000000	23,698000
1455,000000	23,754000
1454,000000	23,818200
1453,000000	23,887300
1452,000000	23,953300
1451,000000	24,034600
1450,000000	24,116200
1449,000000	24,184600
1448,000000	24,229800
1447,000000	24,321900
1446,000000	24,428300
1445,000000	24,515800
1444,000000	24,603100
1443,000000	24,671900
1442,000000	24,766800
1441,000000	24,872400
1440,000000	24,974100
1439,000000	25,080300
1438,000000	25,186100
1437,000000	25,300300
1436,000000	25,404400
1435,000000	25,521400
1434,000000	25,639600
1433,000000	25,766800
1432,000000	25,891200
1431,000000	26,039400
1430,000000	26,166300
1429,000000	26,301900
1428,000000	26,457800
1427,000000	26,625600
1426,000000	26,800300
1425,000000	26,992500
1424,000000	27,193900
1423,000000	27,407400
1422,000000	27,638000
1421,000000	27,826200
1420,000000	28,040000
1419,000000	28,293300
1418,000000	28,559100
1417,000000	28,793000
1416,000000	29,009500
1415,000000	29,291500
1414,000000	29,575500
1413,000000	29,876600
1412,000000	30,152400
1411,000000	30,407700
1410,000000	30,731400
1409,000000	31,096500
1408,000000	31,468800
1407,000000	31,843600
1406,000000	32,201900
1405,000000	32,604300
1404,000000	33,006200
1403,000000	33,387300
1402,000000	33,784500
1401,000000	34,127100
1400,000000	34,600300
1399,000000	35,036400
1398,000000	35,350700
1397,000000	35,605900
1396,000000	35,893400
1395,000000	36,318000
1394,000000	36,689400
1393,000000	36,946400
1392,000000	37,220300
1391,000000	37,573200
1390,000000	37,906000
1389,000000	38,203000
1388,000000	38,569200
1387,000000	39,018300
1386,000000	39,433400
1385,000000	39,836400
1384,000000	40,263900
1383,000000	40,771400
1382,000000	41,260300
1381,000000	41,725300
1380,000000	42,123200
1379,000000	42,291200
1378,000000	42,576800
1377,000000	42,749700
1376,000000	42,938000
1375,000000	43,088200
1374,000000	43,255400
1373,000000	43,466700
1372,000000	43,718700
1371,000000	43,991000
1370,000000	44,309500
1369,000000	44,540900
1368,000000	44,798500
1367,000000	45,038700
1366,000000	45,266400
1365,000000	45,434400
1364,000000	45,627900
1363,000000	45,779900
1362,000000	45,940600
1361,000000	46,067600
1360,000000	46,241000
1359,000000	46,299100
1358,000000	46,316300
1357,000000	46,422800
1356,000000	46,511500
1355,000000	46,688400
1354,000000	46,940100
1353,000000	47,254300
1352,000000	47,532700
1351,000000	47,902600
1350,000000	48,296400
1349,000000	48,639400
1348,000000	48,968400
1347,000000	49,299600
1346,000000	49,608300
1345,000000	49,874300
1344,000000	50,166200
1343,000000	50,444000
1342,000000	50,716400
1341,000000	50,956000
1340,000000	51,219200
1339,000000	51,476000
1338,000000	51,719200
1337,000000	51,947200
1336,000000	52,183200
1335,000000	52,399300
1334,000000	52,617800
1333,000000	52,831000
1332,000000	53,057600
1331,000000	53,274400
1330,000000	53,461400
1329,000000	53,654200
1328,000000	53,835500
1327,000000	54,004900
1326,000000	54,183000
1325,000000	54,337900
1324,000000	54,500800
1323,000000	54,646500
1322,000000	54,806200
1321,000000	54,933500
1320,000000	55,070700
1319,000000	55,203000
1318,000000	55,315100
1317,000000	55,448800
1316,000000	55,548400
1315,000000	55,658300
1314,000000	55,764900
1313,000000	55,871900
1312,000000	55,954200
1311,000000	56,050000
1310,000000	56,119600
1309,000000	56,208100
1308,000000	56,285300
1307,000000	56,364500
1306,000000	56,422600
1305,000000	56,475100
1304,000000	56,521900
1303,000000	56,569600
1302,000000	56,613900
1301,000000	56,647800
1300,000000	56,678700
1299,000000	56,695200
1298,000000	56,729600
1297,000000	56,751300
1296,000000	56,766300
1295,000000	56,789500
1294,000000	56,791100
1293,000000	56,795500
1292,000000	56,791200
1291,000000	56,778500
1290,000000	56,777700
1289,000000	56,758400
1288,000000	56,736200
1287,000000	56,714700
1286,000000	56,688600
1285,000000	56,649800
1284,000000	56,615200
1283,000000	56,565200
1282,000000	56,526000
1281,000000	56,488500
1280,000000	56,434700
1279,000000	56,397800
1278,000000	56,363700
1277,000000	56,323400
1276,000000	56,287600
1275,000000	56,248100
1274,000000	56,215000
1273,000000	56,181200
1272,000000	56,156000
1271,000000	56,136200
1270,000000	56,104300
1269,000000	56,074400
1268,000000	56,047600
1267,000000	56,030100
1266,000000	55,999900
1265,000000	55,977500
1264,000000	55,936700
1263,000000	55,908700
1262,000000	55,880600
1261,000000	55,847900
1260,000000	55,822300
1259,000000	55,802400
1258,000000	55,771900
1257,000000	55,722400
1256,000000	55,683000
1255,000000	55,659900
1254,000000	55,622300
1253,000000	55,568800
1252,000000	55,533300
1251,000000	55,475000
1250,000000	55,404800
1249,000000	55,360300
1248,000000	55,294000
1247,000000	55,217400
1246,000000	55,151100
1245,000000	55,055000
1244,000000	54,968400
1243,000000	54,888100
1242,000000	54,794900
1241,000000	54,692400
1240,000000	54,577900
1239,000000	54,467000
1238,000000	54,365900
1237,000000	54,259800
1236,000000	54,148400
1235,000000	54,045200
1234,000000	53,930600
1233,000000	53,806400
1232,000000	53,685500
1231,000000	53,564300
1230,000000	53,440100
1229,000000	53,306700
1228,000000	53,159700
1227,000000	53,021000
1226,000000	52,894800
1225,000000	52,763300
1224,000000	52,622700
1223,000000	52,482400
1222,000000	52,342800
1221,000000	52,204400
1220,000000	52,064300
1219,000000	51,926900
1218,000000	51,798200
1217,000000	51,681400
1216,000000	51,566200
1215,000000	51,450000
1214,000000	51,327000
1213,000000	51,210100
1212,000000	51,109300
1211,000000	50,998500
1210,000000	50,887000
1209,000000	50,798200
1208,000000	50,708700
1207,000000	50,603700
1206,000000	50,518800
1205,000000	50,457300
1204,000000	50,400400
1203,000000	50,324300
1202,000000	50,278400
1201,000000	50,249200
1200,000000	50,211900
1199,000000	50,162900
1198,000000	50,105100
1197,000000	50,028000
1196,000000	49,931900
1195,000000	49,811500
1194,000000	49,652100
1193,000000	49,454400
1192,000000	49,213800
1191,000000	48,945100
1190,000000	48,643100
1189,000000	48,332100
1188,000000	48,049700
1187,000000	47,833600
1186,000000	47,688800
1185,000000	47,614500
1184,000000	47,627400
1183,000000	47,728000
1182,000000	47,924100
1181,000000	48,193400
1180,000000	48,509600
1179,000000	48,861100
1178,000000	49,203900
1177,000000	49,509900
1176,000000	49,789700
1175,000000	50,034800
1174,000000	50,252900
1173,000000	50,475100
1172,000000	50,695300
1171,000000	50,905800
1170,000000	51,113100
1169,000000	51,339200
1168,000000	51,579400
1167,000000	51,822500
1166,000000	52,061600
1165,000000	52,310200
1164,000000	52,542400
1163,000000	52,787100
1162,000000	53,052700
1161,000000	53,322800
1160,000000	53,580400
1159,000000	53,838400
1158,000000	54,078800
1157,000000	54,329900
1156,000000	54,536500
1155,000000	54,744200
1154,000000	54,907800
1153,000000	55,072700
1152,000000	55,197500
1151,000000	55,296900
1150,000000	55,363900
1149,000000	55,414400
1148,000000	55,460700
1147,000000	55,531100
1146,000000	55,609300
1145,000000	55,706500
1144,000000	55,854400
1143,000000	56,040300
1142,000000	56,249900
1141,000000	56,490900
1140,000000	56,741600
1139,000000	57,024900
1138,000000	57,283000
1137,000000	57,557800
1136,000000	57,875500
1135,000000	58,198000
1134,000000	58,538500
1133,000000	58,860200
1132,000000	59,113000
1131,000000	59,368300
1130,000000	59,603900
1129,000000	59,825700
1128,000000	60,019300
1127,000000	60,192000
1126,000000	60,314800
1125,000000	60,422100
1124,000000	60,510700
1123,000000	60,601600
1122,000000	60,647200
1121,000000	60,722300
1120,000000	60,766200
1119,000000	60,783100
1118,000000	60,803300
1117,000000	60,830100
1116,000000	60,832400
1115,000000	60,828900
1114,000000	60,811600
1113,000000	60,795400
1112,000000	60,794500
1111,000000	60,768400
1110,000000	60,764100
1109,000000	60,744200
1108,000000	60,732800
1107,000000	60,715800
1106,000000	60,692200
1105,000000	60,673500
1104,000000	60,652900
1103,000000	60,626400
1102,000000	60,589300
1101,000000	60,563100
1100,000000	60,559900
1099,000000	60,530000
1098,000000	60,492900
1097,000000	60,467500
1096,000000	60,445900
1095,000000	60,386300
1094,000000	60,366200
1093,000000	60,347300
1092,000000	60,277400
1091,000000	60,257000
1090,000000	60,218800
1089,000000	60,172400
1088,000000	60,142800
1087,000000	60,088200
1086,000000	60,054500
1085,000000	60,000700
1084,000000	59,954400
1083,000000	59,893000
1082,000000	59,850900
1081,000000	59,814000
1080,000000	59,766500
1079,000000	59,739600
1078,000000	59,690400
1077,000000	59,628000
1076,000000	59,590700
1075,000000	59,538900
1074,000000	59,480600
1073,000000	59,411800
1072,000000	59,379300
1071,000000	59,341800
1070,000000	59,285600
1069,000000	59,235000
1068,000000	59,174900
1067,000000	59,118300
1066,000000	59,045600
1065,000000	58,999500
1064,000000	58,930300
1063,000000	58,869800
1062,000000	58,807400
1061,000000	58,739300
1060,000000	58,675300
1059,000000	58,597100
1058,000000	58,530700
1057,000000	58,457900
1056,000000	58,375200
1055,000000	58,317600
1054,000000	58,223600
1053,000000	58,164000
1052,000000	58,072500
1051,000000	57,985200
1050,000000	57,940800
1049,000000	57,876800
1048,000000	57,796500
1047,000000	57,724800
1046,000000	57,658300
1045,000000	57,601400
1044,000000	57,522200
1043,000000	57,481700
1042,000000	57,429700
1041,000000	57,350000
1040,000000	57,298800
1039,000000	57,246100
1038,000000	57,196000
1037,000000	57,132100
1036,000000	57,079300
1035,000000	57,034400
1034,000000	56,976800
1033,000000	56,919700
1032,000000	56,879600
1031,000000	56,830200
1030,000000	56,763000
1029,000000	56,699400
1028,000000	56,657500
1027,000000	56,597700
1026,000000	56,521000
1025,000000	56,474600
1024,000000	56,416100
1023,000000	56,346200
1022,000000	56,277200
1021,000000	56,217900
1020,000000	56,150400
1019,000000	56,071000
1018,000000	56,006000
1017,000000	55,936700
1016,000000	55,886000
1015,000000	55,811000
1014,000000	55,746700
1013,000000	55,677100
1012,000000	55,624000
1011,000000	55,579000
1010,000000	55,514300
1009,000000	55,447800
1008,000000	55,396200
1007,000000	55,349700
1006,000000	55,274400
1005,000000	55,220300
1004,000000	55,174400
1003,000000	55,109800
1002,000000	55,046600
1001,000000	54,972700
1000,000000	54,932000
999,000000	54,865900
998,000000	54,783300
997,000000	54,736000
996,000000	54,692100
995,000000	54,647100
994,000000	54,594400
993,000000	54,535800
992,000000	54,490000
991,000000	54,455600
990,000000	54,415600
989,000000	54,374300
988,000000	54,344000
987,000000	54,307600
986,000000	54,301000
985,000000	54,276300
984,000000	54,263300
983,000000	54,258200
982,000000	54,249800
981,000000	54,246900
980,000000	54,252300
979,000000	54,240000
978,000000	54,247200
977,000000	54,260400
976,000000	54,267100
975,000000	54,281900
974,000000	54,297100
973,000000	54,286800
972,000000	54,307200
971,000000	54,330100
970,000000	54,345000
969,000000	54,351000
968,000000	54,372500
967,000000	54,406500
966,000000	54,421300
965,000000	54,432700
964,000000	54,454000
963,000000	54,485800
962,000000	54,490000
961,000000	54,494900
960,000000	54,512200
959,000000	54,525500
958,000000	54,549500
957,000000	54,567200
956,000000	54,578900
955,000000	54,593000
954,000000	54,597700
953,000000	54,606500
952,000000	54,623500
951,000000	54,641100
950,000000	54,649500
949,000000	54,656700
948,000000	54,662900
947,000000	54,676300
946,000000	54,701800
945,000000	54,709500
944,000000	54,705100
943,000000	54,722300
942,000000	54,740100
941,000000	54,754000
940,000000	54,777600
939,000000	54,816800
938,000000	54,831700
937,000000	54,852100
936,000000	54,895800
935,000000	54,945400
934,000000	55,011400
933,000000	55,072900
932,000000	55,130400
931,000000	55,202900
930,000000	55,267400
929,000000	55,341700
928,000000	55,408000
927,000000	55,478400
926,000000	55,568300
925,000000	55,652300
924,000000	55,744600
923,000000	55,849600
922,000000	55,963600
921,000000	56,068000
920,000000	56,175400
919,000000	56,303800
918,000000	56,408700
917,000000	56,523800
916,000000	56,648000
915,000000	56,770000
914,000000	56,905100
913,000000	57,026300
912,000000	57,161500
911,000000	57,308900
910,000000	57,439400
909,000000	57,581500
908,000000	57,740700
907,000000	57,893300
906,000000	58,060800
905,000000	58,221500
904,000000	58,391100
903,000000	58,559600
902,000000	58,738500
901,000000	58,911000
900,000000	59,099600
899,000000	59,289800
898,000000	59,468600
897,000000	59,642800
896,000000	59,826500
895,000000	60,021900
894,000000	60,207900
893,000000	60,376800
892,000000	60,570800
891,000000	60,750100
890,000000	60,913200
889,000000	61,095300
888,000000	61,300500
887,000000	61,484300
886,000000	61,659100
885,000000	61,837500
884,000000	62,003100
883,000000	62,172500
882,000000	62,349900
881,000000	62,527300
880,000000	62,696400
879,000000	62,869300
878,000000	63,029500
877,000000	63,179900
876,000000	63,324900
875,000000	63,442700
874,000000	63,556900
873,000000	63,635000
872,000000	63,712200
871,000000	63,761800
870,000000	63,814100
869,000000	63,928600
868,000000	64,128500
867,000000	64,341200
866,000000	64,564800
865,000000	64,765100
864,000000	64,976800
863,000000	65,184200
862,000000	65,382300
861,000000	65,581200
860,000000	65,811100
859,000000	66,004000
858,000000	66,215500
857,000000	67,433800
856,000000	68,350000
855,000000	68,696400
854,000000	68,694700
853,000000	68,560200
852,000000	69,312600
851,000000	69,045200
850,000000	69,641400
849,000000	69,667300
848,000000	69,646200
847,000000	70,016800
846,000000	70,216600
845,000000	70,322900
844,000000	70,453500
843,000000	70,712600
842,000000	70,777900
841,000000	70,833000
840,000000	70,995600
839,000000	71,040400
838,000000	71,319100
837,000000	71,139500
836,000000	71,390300
835,000000	71,339800
834,000000	71,527100
833,000000	71,726300
832,000000	71,989800
831,000000	72,088700
830,000000	72,076800
829,000000	72,350600
828,000000	72,321500
827,000000	72,598100
826,000000	72,699100
825,000000	72,931600
824,000000	73,151000
823,000000	73,315100
822,000000	73,379800
821,000000	73,648800
820,000000	73,838800
819,000000	73,708700
818,000000	74,393900
817,000000	74,707900
816,000000	75,107200
815,000000	75,205500
814,000000	75,490100
813,000000	75,893800
812,000000	76,154900
811,000000	76,646600
810,000000	76,960800
809,000000	77,221100
808,000000	77,461000
807,000000	78,203300
806,000000	78,489200
805,000000	78,547600
804,000000	79,007700
803,000000	79,301900
802,000000	79,506100
801,000000	79,929400
800,000000	80,218900
799,000000	80,463500
798,000000	80,553100
797,000000	80,712500
796,000000	80,683600
795,000000	80,905200
794,000000	81,051100
793,000000	81,127000
792,000000	81,128400
791,000000	81,056900
790,000000	81,193300
789,000000	80,951000
788,000000	81,128800
787,000000	81,141000
786,000000	80,989100
785,000000	81,243400
784,000000	81,213200
783,000000	81,285200
782,000000	81,236200
781,000000	81,323900
780,000000	81,454500
779,000000	81,543400
778,000000	81,665900
777,000000	81,807000
776,000000	82,208600
775,000000	82,394500
774,000000	82,580600
773,000000	82,997800
772,000000	83,266000
771,000000	83,552300
770,000000	83,874000
769,000000	84,036900
768,000000	84,439100
767,000000	84,739500
766,000000	84,857600
765,000000	85,287100
764,000000	85,489000
763,000000	85,759000
762,000000	85,849800
761,000000	86,033900
760,000000	86,152400
759,000000	86,211000
758,000000	86,318500
757,000000	86,264900
756,000000	86,421400
755,000000	86,416500
754,000000	86,361300
753,000000	86,358500
752,000000	86,180800
751,000000	86,292600
750,000000	86,079400
749,000000	86,062500
748,000000	86,047600
747,000000	85,937200
746,000000	85,818400
745,000000	85,743800
744,000000	85,660000
743,000000	85,628300
742,000000	85,571400
741,000000	85,525900
740,000000	85,468700
739,000000	85,476600
738,000000	85,510600
737,000000	85,527900
736,000000	85,502400
735,000000	85,495000
734,000000	85,594000
733,000000	85,622400
732,000000	85,739100
731,000000	85,597100
730,000000	85,702900
729,000000	85,746700
728,000000	85,738600
727,000000	85,704500
726,000000	85,762700
725,000000	85,670600
724,000000	85,683400
723,000000	85,567100
722,000000	85,398800
721,000000	85,186300
720,000000	85,007700
719,000000	84,835300
718,000000	84,538500
717,000000	84,283500
716,000000	83,917200
715,000000	83,566600
714,000000	83,389600
713,000000	83,043800
712,000000	82,775400
711,000000	82,427600
710,000000	82,177400
709,000000	81,906500
708,000000	81,607200
707,000000	81,398600
706,000000	81,151700
705,000000	80,877500
704,000000	80,639100
703,000000	80,384100
702,000000	80,278900
701,000000	80,202200
700,000000	80,116000
699,000000	80,008200
698,000000	79,941200
697,000000	79,938500
696,000000	79,948000
695,000000	79,932800
694,000000	79,926400
693,000000	79,913900
692,000000	79,915400
691,000000	79,883000
690,000000	79,827900
689,000000	79,823700
688,000000	79,812900
687,000000	79,768600
686,000000	79,759900
685,000000	79,714600
684,000000	79,604900
683,000000	79,483500
682,000000	79,424200
681,000000	79,306300
680,000000	79,305400
679,000000	79,208100
678,000000	79,061700
677,000000	78,938900
676,000000	78,781400
675,000000	78,617500
674,000000	78,471200
673,000000	78,344900
672,000000	78,147900
671,000000	77,951700
670,000000	77,830000
669,000000	77,614200
668,000000	77,447500
667,000000	77,228300
666,000000	76,995800
665,000000	76,799700
664,000000	76,545800
663,000000	76,261700
662,000000	75,992800
661,000000	75,679600
660,000000	75,288200
659,000000	74,892300
658,000000	74,403400
657,000000	73,942800
656,000000	73,441800
655,000000	72,855100
654,000000	72,284000
653,000000	71,662000
652,000000	71,005500
651,000000	70,342600
650,000000	69,630600
649,000000	68,883900
648,000000	68,148000
647,000000	67,417500
646,000000	66,667200
645,000000	65,837000
644,000000	65,033500
643,000000	64,249100
642,000000	63,402600
641,000000	62,557100
640,000000	61,767200
639,000000	60,990200
638,000000	60,288000
637,000000	59,627700
636,000000	59,021300
635,000000	58,507900
634,000000	58,078000
633,000000	57,744600
632,000000	57,498600
631,000000	57,364400
630,000000	57,294200
629,000000	57,332200
628,000000	57,482700
627,000000	57,699600
626,000000	57,993200
625,000000	58,367900
624,000000	58,795200
623,000000	59,292000
622,000000	59,863000
621,000000	60,445900
620,000000	61,085900
619,000000	61,826500
618,000000	62,600800
617,000000	63,400900
616,000000	64,269500
615,000000	65,112000
614,000000	65,997500
613,000000	66,871300
612,000000	67,740100
611,000000	68,598600
610,000000	69,449600
609,000000	70,350300
608,000000	71,192000
607,000000	71,956700
606,000000	72,754900
605,000000	73,546700
604,000000	74,275400
603,000000	75,040800
602,000000	75,795700
601,000000	76,515100
600,000000	77,191300
599,000000	77,834600
598,000000	78,502600
597,000000	79,094400
596,000000	79,611600
595,000000	80,174900
594,000000	80,683700
593,000000	81,158100
592,000000	81,618500
591,000000	82,041500
590,000000	82,392400
589,000000	82,740800
588,000000	83,070400
587,000000	83,416000
586,000000	83,711600
585,000000	83,953500
584,000000	84,258700
583,000000	84,544500
582,000000	84,773600
581,000000	84,965000
580,000000	85,161100
579,000000	85,371100
578,000000	85,532200
577,000000	85,690800
576,000000	85,824200
575,000000	85,905300
574,000000	86,029700
573,000000	86,085200
572,000000	86,143000
571,000000	86,168600
570,000000	86,213500
569,000000	86,223500
568,000000	86,184500
567,000000	86,160500
566,000000	86,131900
565,000000	86,077300
564,000000	85,989600
563,000000	85,928500
562,000000	85,852200
561,000000	85,726500
560,000000	85,616600
559,000000	85,459700
558,000000	85,305300
557,000000	85,136400
556,000000	84,968700
555,000000	84,758000
554,000000	84,559200
553,000000	84,379400
552,000000	84,139000
551,000000	83,875100
550,000000	83,589500
549,000000	83,344000
548,000000	83,067300
547,000000	82,769900
546,000000	82,380200
545,000000	82,025100
544,000000	81,703800
543,000000	81,332400
542,000000	80,875600
541,000000	80,431100
540,000000	79,970100
539,000000	79,464100
538,000000	78,927800
537,000000	78,388400
536,000000	77,839400
535,000000	77,231300
534,000000	76,646500
533,000000	75,928100
532,000000	75,270300
531,000000	74,507900
530,000000	73,757900
529,000000	72,992600
528,000000	72,220000
527,000000	71,377800
526,000000	70,543600
525,000000	69,693200
524,000000	68,807100
523,000000	67,943000
522,000000	67,010200
521,000000	66,066900
520,000000	65,066500
519,000000	64,070500
518,000000	63,040800
517,000000	61,948700
516,000000	60,891200
515,000000	59,728800
514,000000	58,584100
513,000000	57,406600
512,000000	56,216400
511,000000	54,972200
510,000000	53,748200
509,000000	52,615000
508,000000	51,350200
507,000000	50,142400
506,000000	48,896700
505,000000	47,686100
504,000000	46,496300
503,000000	45,313500
502,000000	44,137400
501,000000	42,979500
500,000000	41,916300
499,000000	40,826300
498,000000	39,893500
497,000000	38,934200
496,000000	38,071900
495,000000	37,289200
494,000000	36,573800
493,000000	35,864100
492,000000	35,248900
491,000000	34,650600
490,000000	34,140500
489,000000	33,634700
488,000000	33,189100
487,000000	32,818700
486,000000	32,430300
485,000000	32,081400
484,000000	31,770400
483,000000	31,439600
482,000000	31,128300
481,000000	30,847800
480,000000	30,560400
479,000000	30,284800
478,000000	30,016400
477,000000	29,747200
476,000000	29,455000
475,000000	29,180800
474,000000	28,878200
473,000000	28,586800
472,000000	28,291000
471,000000	28,002300
470,000000	27,701500
469,000000	27,440300
468,000000	27,118900
467,000000	26,875700
466,000000	26,593100
465,000000	26,303600
464,000000	26,050500
463,000000	25,787500
462,000000	25,553000
461,000000	25,323400
460,000000	25,117400
459,000000	24,946500
458,000000	24,760800
457,000000	24,617200
456,000000	24,476700
455,000000	24,370000
454,000000	24,295900
453,000000	24,192900
452,000000	24,132800
451,000000	24,066500
450,000000	23,996700
449,000000	23,981100
448,000000	23,961500
447,000000	23,949800
446,000000	23,956200
445,000000	23,953800
444,000000	23,980400
443,000000	23,944600
442,000000	23,952100
441,000000	23,923700
440,000000	23,917900
439,000000	23,877200
438,000000	23,909900
437,000000	23,851800
436,000000	23,830800
435,000000	23,766400
434,000000	23,720400
433,000000	23,696400
432,000000	23,605800
431,000000	23,562200
430,000000	23,464500
429,000000	23,336400
428,000000	23,227500
427,000000	23,093000
426,000000	23,002700
425,000000	22,825200
424,000000	22,660700
423,000000	22,472600
422,000000	22,304200
421,000000	22,117700
420,000000	21,882400
419,000000	21,625500
418,000000	21,396200
417,000000	21,146000
416,000000	20,891900
415,000000	20,597900
414,000000	20,305300
413,000000	19,971000
412,000000	19,660800
411,000000	19,313200
410,000000	18,942400
409,000000	18,572300
408,000000	18,209000
407,000000	17,818800
406,000000	17,433800
405,000000	17,042000
404,000000	16,609000
403,000000	16,154400
402,000000	15,735500
401,000000	15,335500
400,000000	14,919200
399,000000	14,473400
398,000000	14,066900
397,000000	13,659900
396,000000	13,258900
395,000000	12,828300
394,000000	12,432800
393,000000	12,060500
392,000000	11,636900
391,000000	11,289400
390,000000	10,952000
389,000000	10,596400
388,000000	10,261400
387,000000	9,941400
386,000000	9,659000
385,000000	9,376000
384,000000	9,095000
383,000000	8,850100
382,000000	8,641700
381,000000	8,404100
380,000000	8,199300
379,000000	8,026800
378,000000	7,876000
377,000000	7,707700
376,000000	7,577500
375,000000	7,262700
374,000000	6,881100
373,000000	7,040200
372,000000	6,934500
371,000000	6,815400
370,000000	6,787200
369,000000	6,815700
368,000000	6,825700
367,000000	6,703700
366,000000	6,581000
365,000000	6,546600
364,000000	6,406000
363,000000	6,353300
362,000000	6,383700
361,000000	6,385200
360,000000	6,322300
359,000000	6,271600
358,000000	6,178500
357,000000	6,233000
356,000000	6,216500
355,000000	6,107900
354,000000	5,984100
353,000000	5,995400
352,000000	6,218500
351,000000	6,215700
350,000000	6,017400
349,000000	6,037700
348,000000	6,157300
347,000000	6,005600
346,000000	5,879200
345,000000	5,898200
344,000000	6,015600
343,000000	6,040900
342,000000	6,000200
341,000000	5,909100
340,000000	5,757300
339,000000	5,827300
338,000000	6,041100
337,000000	6,088900
336,000000	6,025200
335,000000	5,965200
334,000000	5,928000
333,000000	6,032200
332,000000	5,851700
331,000000	5,728600
330,000000	5,813400
329,000000	5,978700
328,000000	6,438200
327,000000	6,541100
326,000000	6,427900
325,000000	6,513600
324,000000	6,543500
323,000000	6,631300
322,000000	6,512400
321,000000	6,732100
320,000000	6,558200
319,000000	6,158600
318,000000	6,557000
317,000000	7,010600
316,000000	6,427600
315,000000	5,865200
314,000000	5,862000
313,000000	5,883500
312,000000	5,876900
311,000000	5,907100
310,000000	5,898400
309,000000	5,875100
308,000000	5,898700
307,000000	5,919300
306,000000	5,899500
305,000000	5,875400
304,000000	5,865500
303,000000	5,864400
302,000000	5,886500
301,000000	5,882000
300,000000	5,912700
299,000000	5,926000
298,000000	5,915800
297,000000	5,933200
296,000000	5,957500
295,000000	5,917800
294,000000	5,925900
293,000000	5,951400
292,000000	5,966300
291,000000	5,952800
290,000000	5,924900
289,000000	5,952500
288,000000	5,971700
287,000000	5,961800
286,000000	5,960600
285,000000	5,980800
284,000000	5,969600
283,000000	5,980800
282,000000	5,980600
281,000000	5,968800
280,000000	6,000800
279,000000	6,022400
278,000000	6,012600
277,000000	6,006600
276,000000	6,027700
275,000000	6,041600
274,000000	6,076300
273,000000	6,050700
272,000000	6,081200
271,000000	6,076300
270,000000	6,081800
269,000000	6,108400
268,000000	6,187600
267,000000	6,218000
266,000000	6,200800
265,000000	6,215500
264,000000	6,231300
263,000000	6,279900
262,000000	6,323400
261,000000	6,324700
260,000000	6,357900
259,000000	6,368700
258,000000	6,362400
257,000000	6,383000
256,000000	6,456200
255,000000	6,443400
254,000000	6,457200
253,000000	6,486200
252,000000	6,491400
251,000000	6,492000
250,000000	6,537700
