PE UV       SUBTECH     SPECTRUM    ASCII       PEDS        4.00        
   -1
CICIMAUCR0253-3.Sample.ASC
24/06/26
14:04:18.00
24/06/26
14:04:18.00
Vinicio Soto Monge
C. resplendens. Sex M. Dorsal.
250,000000
1
Lambda 1050
1050L1511233
PerkinElmer UV WinLab 6.3.2.0749 / 2.02.05 Lambda 900 UV/VIS/NIR, Aug  7 2015 09:38:08

0
0
3350/servo 860,8/2
0
0
UV/VIS
1
1
1
DoubleDePol,CommonBeamDepol,RBeamAtt,SBeamAtt,60mm sphere, WB InGaAs Detector
0
0
0
0
Program
Program
3350/servo 860,8/2
3350/0,2 860,8/0,2
3350/0,2 860,8/0,2
0
15.00
 
 
 
0
 
860,8
319,2
860,8
Front
100
on
S:100 R:100
0
0
0
0
 
0
 
 
 
0
 
 
0
0
0
0
0
 
 
 
 
0
0


0
0
#HDR
-1
-1
#GR
nm
%R
1.0
0.0
2500,000000
-1,000000
2251
8
90,933900
5,761100
#DATA
2500,000000	9,693300
2499,000000	9,790500
2498,000000	9,687600
2497,000000	9,675600
2496,000000	9,657100
2495,000000	9,613300
2494,000000	9,597800
2493,000000	9,653600
2492,000000	9,654800
2491,000000	9,642900
2490,000000	9,533300
2489,000000	9,563900
2488,000000	9,570600
2487,000000	9,501800
2486,000000	9,578800
2485,000000	9,580200
2484,000000	9,582100
2483,000000	9,574100
2482,000000	9,613600
2481,000000	9,578300
2480,000000	9,629000
2479,000000	9,640200
2478,000000	9,570400
2477,000000	9,594500
2476,000000	9,621400
2475,000000	9,610700
2474,000000	9,641100
2473,000000	9,595900
2472,000000	9,696400
2471,000000	9,666700
2470,000000	9,723000
2469,000000	9,711100
2468,000000	9,745700
2467,000000	9,754300
2466,000000	9,741800
2465,000000	9,798000
2464,000000	9,822500
2463,000000	9,871600
2462,000000	9,893200
2461,000000	9,933000
2460,000000	9,919300
2459,000000	10,018800
2458,000000	10,045900
2457,000000	10,137300
2456,000000	10,156300
2455,000000	10,257800
2454,000000	10,334300
2453,000000	10,401300
2452,000000	10,475300
2451,000000	10,531400
2450,000000	10,618200
2449,000000	10,676500
2448,000000	10,768000
2447,000000	10,865500
2446,000000	10,944700
2445,000000	11,015700
2444,000000	11,085100
2443,000000	11,182500
2442,000000	11,269800
2441,000000	11,338800
2440,000000	11,417300
2439,000000	11,497500
2438,000000	11,584900
2437,000000	11,663900
2436,000000	11,753800
2435,000000	11,821900
2434,000000	11,888000
2433,000000	11,972200
2432,000000	12,044600
2431,000000	12,108000
2430,000000	12,166200
2429,000000	12,200000
2428,000000	12,284000
2427,000000	12,354800
2426,000000	12,425100
2425,000000	12,462200
2424,000000	12,529000
2423,000000	12,579300
2422,000000	12,639500
2421,000000	12,696700
2420,000000	12,755500
2419,000000	12,805500
2418,000000	12,858100
2417,000000	12,887700
2416,000000	12,933900
2415,000000	12,969800
2414,000000	13,030300
2413,000000	13,087300
2412,000000	13,131800
2411,000000	13,163800
2410,000000	13,195200
2409,000000	13,239100
2408,000000	13,289500
2407,000000	13,330700
2406,000000	13,348900
2405,000000	13,399100
2404,000000	13,439400
2403,000000	13,466400
2402,000000	13,505600
2401,000000	13,542500
2400,000000	13,573100
2399,000000	13,616100
2398,000000	13,660700
2397,000000	13,709100
2396,000000	13,732600
2395,000000	13,755600
2394,000000	13,792100
2393,000000	13,813700
2392,000000	13,816800
2391,000000	13,857100
2390,000000	13,904500
2389,000000	13,925700
2388,000000	13,948900
2387,000000	13,973400
2386,000000	13,987100
2385,000000	14,000200
2384,000000	14,013300
2383,000000	14,025500
2382,000000	14,027500
2381,000000	14,036800
2380,000000	14,049800
2379,000000	14,054300
2378,000000	14,047500
2377,000000	14,043100
2376,000000	14,043600
2375,000000	14,041100
2374,000000	14,031300
2373,000000	14,032000
2372,000000	14,025200
2371,000000	14,006400
2370,000000	13,992700
2369,000000	13,975300
2368,000000	13,958200
2367,000000	13,933300
2366,000000	13,917000
2365,000000	13,878400
2364,000000	13,825200
2363,000000	13,802000
2362,000000	13,768300
2361,000000	13,719900
2360,000000	13,693600
2359,000000	13,653900
2358,000000	13,598700
2357,000000	13,550400
2356,000000	13,514400
2355,000000	13,474100
2354,000000	13,451200
2353,000000	13,437300
2352,000000	13,404200
2351,000000	13,387500
2350,000000	13,389000
2349,000000	13,401900
2348,000000	13,409300
2347,000000	13,412900
2346,000000	13,421600
2345,000000	13,447300
2344,000000	13,499200
2343,000000	13,539000
2342,000000	13,567900
2341,000000	13,613700
2340,000000	13,640900
2339,000000	13,675000
2338,000000	13,711200
2337,000000	13,731500
2336,000000	13,749600
2335,000000	13,765500
2334,000000	13,758300
2333,000000	13,771300
2332,000000	13,782100
2331,000000	13,767800
2330,000000	13,744700
2329,000000	13,699700
2328,000000	13,670600
2327,000000	13,636800
2326,000000	13,589000
2325,000000	13,533800
2324,000000	13,468400
2323,000000	13,403800
2322,000000	13,341900
2321,000000	13,256500
2320,000000	13,151500
2319,000000	13,051400
2318,000000	12,949500
2317,000000	12,824300
2316,000000	12,729400
2315,000000	12,632600
2314,000000	12,517700
2313,000000	12,389900
2312,000000	12,272800
2311,000000	12,158200
2310,000000	12,075000
2309,000000	11,997800
2308,000000	11,900300
2307,000000	11,842700
2306,000000	11,793500
2305,000000	11,758000
2304,000000	11,740200
2303,000000	11,741000
2302,000000	11,756200
2301,000000	11,792700
2300,000000	11,847900
2299,000000	11,902800
2298,000000	11,985400
2297,000000	12,070200
2296,000000	12,153800
2295,000000	12,247600
2294,000000	12,320400
2293,000000	12,397300
2292,000000	12,494400
2291,000000	12,555600
2290,000000	12,631300
2289,000000	12,675800
2288,000000	12,724300
2287,000000	12,761100
2286,000000	12,782700
2285,000000	12,784000
2284,000000	12,772400
2283,000000	12,763400
2282,000000	12,746400
2281,000000	12,709000
2280,000000	12,681400
2279,000000	12,620600
2278,000000	12,577600
2277,000000	12,541900
2276,000000	12,496700
2275,000000	12,450200
2274,000000	12,404300
2273,000000	12,366000
2272,000000	12,343500
2271,000000	12,320500
2270,000000	12,309600
2269,000000	12,312100
2268,000000	12,354800
2267,000000	12,388000
2266,000000	12,457700
2265,000000	12,527900
2264,000000	12,647600
2263,000000	12,772700
2262,000000	12,905600
2261,000000	13,087500
2260,000000	13,280300
2259,000000	13,493700
2258,000000	13,713200
2257,000000	13,946400
2256,000000	14,160000
2255,000000	14,421900
2254,000000	14,677800
2253,000000	14,885100
2252,000000	15,130500
2251,000000	15,365100
2250,000000	15,580400
2249,000000	15,818500
2248,000000	16,014200
2247,000000	16,190600
2246,000000	16,362200
2245,000000	16,513100
2244,000000	16,661900
2243,000000	16,798200
2242,000000	16,913300
2241,000000	17,040300
2240,000000	17,134700
2239,000000	17,228100
2238,000000	17,307500
2237,000000	17,386100
2236,000000	17,457800
2235,000000	17,511600
2234,000000	17,571100
2233,000000	17,614200
2232,000000	17,634100
2231,000000	17,678600
2230,000000	17,710300
2229,000000	17,706700
2228,000000	17,736600
2227,000000	17,727600
2226,000000	17,715100
2225,000000	17,711400
2224,000000	17,715300
2223,000000	17,677700
2222,000000	17,659000
2221,000000	17,624500
2220,000000	17,577600
2219,000000	17,551100
2218,000000	17,522700
2217,000000	17,475600
2216,000000	17,431300
2215,000000	17,387200
2214,000000	17,343600
2213,000000	17,299500
2212,000000	17,254300
2211,000000	17,214500
2210,000000	17,180300
2209,000000	17,142900
2208,000000	17,108700
2207,000000	17,073000
2206,000000	17,045300
2205,000000	17,004500
2204,000000	16,983700
2203,000000	16,946900
2202,000000	16,928400
2201,000000	16,900100
2200,000000	16,869200
2199,000000	16,876500
2198,000000	16,832900
2197,000000	16,810900
2196,000000	16,776600
2195,000000	16,771600
2194,000000	16,741300
2193,000000	16,744600
2192,000000	16,732400
2191,000000	16,715300
2190,000000	16,705300
2189,000000	16,668700
2188,000000	16,678700
2187,000000	16,642800
2186,000000	16,612500
2185,000000	16,622500
2184,000000	16,594100
2183,000000	16,557600
2182,000000	16,541700
2181,000000	16,522300
2180,000000	16,511800
2179,000000	16,499800
2178,000000	16,490000
2177,000000	16,479400
2176,000000	16,461900
2175,000000	16,438100
2174,000000	16,439400
2173,000000	16,446700
2172,000000	16,438400
2171,000000	16,443800
2170,000000	16,460400
2169,000000	16,466000
2168,000000	16,462300
2167,000000	16,489900
2166,000000	16,492900
2165,000000	16,507100
2164,000000	16,524200
2163,000000	16,565200
2162,000000	16,599200
2161,000000	16,607000
2160,000000	16,638200
2159,000000	16,675800
2158,000000	16,703100
2157,000000	16,729200
2156,000000	16,771700
2155,000000	16,817700
2154,000000	16,862600
2153,000000	16,921200
2152,000000	16,970200
2151,000000	17,006200
2150,000000	17,057000
2149,000000	17,092500
2148,000000	17,141900
2147,000000	17,192400
2146,000000	17,225600
2145,000000	17,258300
2144,000000	17,298000
2143,000000	17,331000
2142,000000	17,378900
2141,000000	17,415300
2140,000000	17,455600
2139,000000	17,485100
2138,000000	17,518900
2137,000000	17,551200
2136,000000	17,560700
2135,000000	17,585900
2134,000000	17,609700
2133,000000	17,628500
2132,000000	17,649100
2131,000000	17,654600
2130,000000	17,665900
2129,000000	17,672800
2128,000000	17,673100
2127,000000	17,664600
2126,000000	17,674500
2125,000000	17,670600
2124,000000	17,657700
2123,000000	17,643400
2122,000000	17,625900
2121,000000	17,622700
2120,000000	17,613600
2119,000000	17,592800
2118,000000	17,562600
2117,000000	17,536200
2116,000000	17,517400
2115,000000	17,487500
2114,000000	17,448000
2113,000000	17,422100
2112,000000	17,401100
2111,000000	17,370700
2110,000000	17,330800
2109,000000	17,290100
2108,000000	17,266900
2107,000000	17,244600
2106,000000	17,212900
2105,000000	17,180300
2104,000000	17,138000
2103,000000	17,099800
2102,000000	17,074300
2101,000000	17,046800
2100,000000	16,998100
2099,000000	16,955500
2098,000000	16,931400
2097,000000	16,906200
2096,000000	16,878800
2095,000000	16,854400
2094,000000	16,824400
2093,000000	16,796200
2092,000000	16,755700
2091,000000	16,727700
2090,000000	16,711800
2089,000000	16,680000
2088,000000	16,649100
2087,000000	16,618600
2086,000000	16,594000
2085,000000	16,555700
2084,000000	16,515500
2083,000000	16,481500
2082,000000	16,446600
2081,000000	16,411400
2080,000000	16,355900
2079,000000	16,309000
2078,000000	16,258900
2077,000000	16,208800
2076,000000	16,172000
2075,000000	16,114500
2074,000000	16,048300
2073,000000	15,984900
2072,000000	15,907700
2071,000000	15,841800
2070,000000	15,788100
2069,000000	15,718200
2068,000000	15,654300
2067,000000	15,583100
2066,000000	15,511300
2065,000000	15,442000
2064,000000	15,356500
2063,000000	15,289800
2062,000000	15,218400
2061,000000	15,131800
2060,000000	15,084700
2059,000000	15,039000
2058,000000	14,979900
2057,000000	14,925900
2056,000000	14,892100
2055,000000	14,860600
2054,000000	14,822600
2053,000000	14,800900
2052,000000	14,798900
2051,000000	14,803800
2050,000000	14,808700
2049,000000	14,839600
2048,000000	14,876400
2047,000000	14,902800
2046,000000	14,947100
2045,000000	14,989600
2044,000000	15,047300
2043,000000	15,112000
2042,000000	15,187000
2041,000000	15,264800
2040,000000	15,317700
2039,000000	15,380700
2038,000000	15,446300
2037,000000	15,499000
2036,000000	15,538200
2035,000000	15,574700
2034,000000	15,637000
2033,000000	15,675000
2032,000000	15,710500
2031,000000	15,751600
2030,000000	15,763000
2029,000000	15,806200
2028,000000	15,835300
2027,000000	15,836600
2026,000000	15,857100
2025,000000	15,849600
2024,000000	15,854300
2023,000000	15,854900
2022,000000	15,870700
2021,000000	15,868900
2020,000000	15,852500
2019,000000	15,852800
2018,000000	15,838300
2017,000000	15,817800
2016,000000	15,813700
2015,000000	15,791600
2014,000000	15,745400
2013,000000	15,723700
2012,000000	15,706500
2011,000000	15,670300
2010,000000	15,646400
2009,000000	15,620100
2008,000000	15,572400
2007,000000	15,538300
2006,000000	15,483900
2005,000000	15,444900
2004,000000	15,398800
2003,000000	15,331300
2002,000000	15,266400
2001,000000	15,226100
2000,000000	15,173800
1999,000000	15,104600
1998,000000	15,040400
1997,000000	14,967500
1996,000000	14,905000
1995,000000	14,823500
1994,000000	14,775200
1993,000000	14,685700
1992,000000	14,610000
1991,000000	14,537300
1990,000000	14,443400
1989,000000	14,377100
1988,000000	14,277900
1987,000000	14,185700
1986,000000	14,111200
1985,000000	14,031500
1984,000000	13,949100
1983,000000	13,868300
1982,000000	13,775700
1981,000000	13,708400
1980,000000	13,608900
1979,000000	13,506800
1978,000000	13,409600
1977,000000	13,336000
1976,000000	13,232300
1975,000000	13,149400
1974,000000	13,067200
1973,000000	12,997500
1972,000000	12,910600
1971,000000	12,829500
1970,000000	12,746600
1969,000000	12,658100
1968,000000	12,559000
1967,000000	12,493700
1966,000000	12,414400
1965,000000	12,344600
1964,000000	12,275900
1963,000000	12,207500
1962,000000	12,103800
1961,000000	12,073000
1960,000000	11,978700
1959,000000	11,906300
1958,000000	11,826500
1957,000000	11,764900
1956,000000	11,718000
1955,000000	11,636600
1954,000000	11,564900
1953,000000	11,495200
1952,000000	11,434200
1951,000000	11,355100
1950,000000	11,317600
1949,000000	11,266100
1948,000000	11,198100
1947,000000	11,167400
1946,000000	11,131600
1945,000000	11,063000
1944,000000	11,032900
1943,000000	10,996500
1942,000000	10,949200
1941,000000	10,939300
1940,000000	10,923100
1939,000000	10,893400
1938,000000	10,867400
1937,000000	10,873700
1936,000000	10,822600
1935,000000	10,839100
1934,000000	10,827500
1933,000000	10,875700
1932,000000	10,933100
1931,000000	10,948300
1930,000000	10,994100
1929,000000	11,022800
1928,000000	11,064700
1927,000000	11,111000
1926,000000	11,177200
1925,000000	11,238700
1924,000000	11,324600
1923,000000	11,434300
1922,000000	11,525400
1921,000000	11,609200
1920,000000	11,736800
1919,000000	11,842600
1918,000000	11,931500
1917,000000	12,099600
1916,000000	12,250600
1915,000000	12,427200
1914,000000	12,571900
1913,000000	12,754000
1912,000000	12,912500
1911,000000	13,082600
1910,000000	13,267100
1909,000000	13,495800
1908,000000	13,730200
1907,000000	13,965400
1906,000000	14,209500
1905,000000	14,475700
1904,000000	14,713200
1903,000000	14,982900
1902,000000	15,257200
1901,000000	15,563700
1900,000000	15,860700
1899,000000	16,232000
1898,000000	16,588000
1897,000000	16,914600
1896,000000	17,291600
1895,000000	17,671600
1894,000000	18,047100
1893,000000	18,463900
1892,000000	18,877600
1891,000000	19,377500
1890,000000	19,834300
1889,000000	20,297000
1888,000000	20,775200
1887,000000	21,297300
1886,000000	21,833700
1885,000000	22,354600
1884,000000	22,890700
1883,000000	23,458900
1882,000000	24,020800
1881,000000	24,543300
1880,000000	25,097000
1879,000000	25,603600
1878,000000	26,086600
1877,000000	26,588300
1876,000000	27,048400
1875,000000	27,499400
1874,000000	27,941100
1873,000000	28,353800
1872,000000	28,764100
1871,000000	29,127500
1870,000000	29,480900
1869,000000	29,784900
1868,000000	30,103400
1867,000000	30,389900
1866,000000	30,610800
1865,000000	30,813200
1864,000000	31,030800
1863,000000	31,205100
1862,000000	31,379900
1861,000000	31,560100
1860,000000	31,746000
1859,000000	31,904200
1858,000000	32,030900
1857,000000	32,136200
1856,000000	32,238400
1855,000000	32,330200
1854,000000	32,416800
1853,000000	32,489000
1852,000000	32,538100
1851,000000	32,595800
1850,000000	32,649400
1849,000000	32,714900
1848,000000	32,750000
1847,000000	32,772200
1846,000000	32,766900
1845,000000	32,750600
1844,000000	32,755800
1843,000000	32,761700
1842,000000	32,794800
1841,000000	32,829100
1840,000000	32,818500
1839,000000	32,817400
1838,000000	32,800100
1837,000000	32,793500
1836,000000	32,763100
1835,000000	32,729200
1834,000000	32,704300
1833,000000	32,670400
1832,000000	32,644000
1831,000000	32,626600
1830,000000	32,616400
1829,000000	32,574300
1828,000000	32,524700
1827,000000	32,464600
1826,000000	32,420200
1825,000000	32,404400
1824,000000	32,362800
1823,000000	32,335900
1822,000000	32,356800
1821,000000	32,366200
1820,000000	32,330400
1819,000000	32,277200
1818,000000	32,231200
1817,000000	32,204600
1816,000000	32,206500
1815,000000	32,208100
1814,000000	32,186100
1813,000000	32,177200
1812,000000	32,164400
1811,000000	32,141400
1810,000000	32,118900
1809,000000	32,082000
1808,000000	32,056000
1807,000000	32,019200
1806,000000	31,991000
1805,000000	31,952600
1804,000000	31,910600
1803,000000	31,875500
1802,000000	31,831200
1801,000000	31,806500
1800,000000	31,759900
1799,000000	31,706100
1798,000000	31,669300
1797,000000	31,629900
1796,000000	31,604400
1795,000000	31,579800
1794,000000	31,544800
1793,000000	31,502200
1792,000000	31,462100
1791,000000	31,428000
1790,000000	31,392700
1789,000000	31,360600
1788,000000	31,337200
1787,000000	31,306200
1786,000000	31,277600
1785,000000	31,243500
1784,000000	31,196400
1783,000000	31,147300
1782,000000	31,108000
1781,000000	31,067200
1780,000000	31,010700
1779,000000	30,961300
1778,000000	30,904400
1777,000000	30,851800
1776,000000	30,799400
1775,000000	30,746100
1774,000000	30,694400
1773,000000	30,626500
1772,000000	30,561400
1771,000000	30,490600
1770,000000	30,421000
1769,000000	30,339800
1768,000000	30,251200
1767,000000	30,170700
1766,000000	30,095300
1765,000000	30,035500
1764,000000	29,986400
1763,000000	29,954000
1762,000000	29,951400
1761,000000	29,963700
1760,000000	29,984800
1759,000000	30,037400
1758,000000	30,081000
1757,000000	30,156100
1756,000000	30,230300
1755,000000	30,288200
1754,000000	30,355600
1753,000000	30,406000
1752,000000	30,442100
1751,000000	30,492400
1750,000000	30,519800
1749,000000	30,515600
1748,000000	30,515400
1747,000000	30,505500
1746,000000	30,494400
1745,000000	30,458400
1744,000000	30,410200
1743,000000	30,331200
1742,000000	30,225100
1741,000000	30,129900
1740,000000	30,000300
1739,000000	29,859500
1738,000000	29,725100
1737,000000	29,574100
1736,000000	29,435600
1735,000000	29,294100
1734,000000	29,193400
1733,000000	29,117500
1732,000000	29,061400
1731,000000	29,041700
1730,000000	29,053600
1729,000000	29,084800
1728,000000	29,149000
1727,000000	29,230500
1726,000000	29,316600
1725,000000	29,396900
1724,000000	29,473800
1723,000000	29,549100
1722,000000	29,605000
1721,000000	29,697900
1720,000000	29,771100
1719,000000	29,859300
1718,000000	29,956100
1717,000000	30,062300
1716,000000	30,159800
1715,000000	30,246600
1714,000000	30,380700
1713,000000	30,498200
1712,000000	30,596600
1711,000000	30,692200
1710,000000	30,784000
1709,000000	30,849900
1708,000000	30,917800
1707,000000	30,954700
1706,000000	30,974400
1705,000000	30,982700
1704,000000	30,971000
1703,000000	30,956000
1702,000000	30,915900
1701,000000	30,875900
1700,000000	30,817600
1699,000000	30,751300
1698,000000	30,664400
1697,000000	30,582500
1696,000000	30,496900
1695,000000	30,452700
1694,000000	30,435500
1693,000000	30,432000
1692,000000	30,477500
1691,000000	30,572400
1690,000000	30,680900
1689,000000	30,755700
1688,000000	30,868500
1687,000000	30,979600
1686,000000	31,071800
1685,000000	31,140600
1684,000000	31,238800
1683,000000	31,355000
1682,000000	31,509400
1681,000000	31,710600
1680,000000	31,956400
1679,000000	32,283700
1678,000000	32,610800
1677,000000	32,976300
1676,000000	33,302400
1675,000000	33,648400
1674,000000	33,936800
1673,000000	34,193600
1672,000000	34,427500
1671,000000	34,641000
1670,000000	34,811500
1669,000000	34,973300
1668,000000	35,122800
1667,000000	35,226100
1666,000000	35,332800
1665,000000	35,438000
1664,000000	35,526500
1663,000000	35,603100
1662,000000	35,699500
1661,000000	35,730000
1660,000000	35,783400
1659,000000	35,833400
1658,000000	35,882900
1657,000000	35,923400
1656,000000	35,935600
1655,000000	35,972000
1654,000000	35,956000
1653,000000	35,970100
1652,000000	35,961100
1651,000000	35,949500
1650,000000	35,939900
1649,000000	35,941200
1648,000000	35,908700
1647,000000	35,887700
1646,000000	35,853900
1645,000000	35,820000
1644,000000	35,765400
1643,000000	35,750500
1642,000000	35,708200
1641,000000	35,670900
1640,000000	35,625900
1639,000000	35,596400
1638,000000	35,534600
1637,000000	35,522900
1636,000000	35,450500
1635,000000	35,393600
1634,000000	35,359300
1633,000000	35,303200
1632,000000	35,238100
1631,000000	35,176200
1630,000000	35,118600
1629,000000	35,050600
1628,000000	34,986000
1627,000000	34,914000
1626,000000	34,853100
1625,000000	34,796500
1624,000000	34,726200
1623,000000	34,638000
1622,000000	34,589600
1621,000000	34,533400
1620,000000	34,454700
1619,000000	34,404700
1618,000000	34,342900
1617,000000	34,282500
1616,000000	34,220600
1615,000000	34,145000
1614,000000	34,088300
1613,000000	34,019300
1612,000000	33,983000
1611,000000	33,920800
1610,000000	33,849700
1609,000000	33,799600
1608,000000	33,727200
1607,000000	33,681100
1606,000000	33,608900
1605,000000	33,553500
1604,000000	33,488400
1603,000000	33,417600
1602,000000	33,348600
1601,000000	33,286500
1600,000000	33,216500
1599,000000	33,167500
1598,000000	33,092900
1597,000000	33,013100
1596,000000	32,966900
1595,000000	32,900000
1594,000000	32,823400
1593,000000	32,776500
1592,000000	32,735700
1591,000000	32,672100
1590,000000	32,637300
1589,000000	32,561900
1588,000000	32,503100
1587,000000	32,452100
1586,000000	32,395100
1585,000000	32,349200
1584,000000	32,300900
1583,000000	32,250500
1582,000000	32,200400
1581,000000	32,149500
1580,000000	32,099700
1579,000000	32,063600
1578,000000	32,023700
1577,000000	31,979500
1576,000000	31,942800
1575,000000	31,900300
1574,000000	31,881700
1573,000000	31,857200
1572,000000	31,812300
1571,000000	31,788200
1570,000000	31,775500
1569,000000	31,736100
1568,000000	31,714800
1567,000000	31,705400
1566,000000	31,695400
1565,000000	31,680100
1564,000000	31,662000
1563,000000	31,639100
1562,000000	31,630000
1561,000000	31,594200
1560,000000	31,569900
1559,000000	31,550700
1558,000000	31,502700
1557,000000	31,469800
1556,000000	31,449000
1555,000000	31,398400
1554,000000	31,345800
1553,000000	31,304000
1552,000000	31,246000
1551,000000	31,193200
1550,000000	31,138200
1549,000000	31,064200
1548,000000	31,010800
1547,000000	30,955900
1546,000000	30,888100
1545,000000	30,833800
1544,000000	30,779700
1543,000000	30,726700
1542,000000	30,682900
1541,000000	30,622400
1540,000000	30,572600
1539,000000	30,518900
1538,000000	30,470400
1537,000000	30,416800
1536,000000	30,374400
1535,000000	30,332900
1534,000000	30,289600
1533,000000	30,238800
1532,000000	30,186800
1531,000000	30,129600
1530,000000	30,067500
1529,000000	30,012200
1528,000000	29,946800
1527,000000	29,884300
1526,000000	29,828600
1525,000000	29,761400
1524,000000	29,689500
1523,000000	29,628800
1522,000000	29,572700
1521,000000	29,505900
1520,000000	29,425600
1519,000000	29,352000
1518,000000	29,295200
1517,000000	29,232200
1516,000000	29,162500
1515,000000	29,083600
1514,000000	29,005500
1513,000000	28,926600
1512,000000	28,857200
1511,000000	28,780300
1510,000000	28,691800
1509,000000	28,620600
1508,000000	28,548500
1507,000000	28,475000
1506,000000	28,399200
1505,000000	28,322100
1504,000000	28,243700
1503,000000	28,174900
1502,000000	28,104800
1501,000000	28,024500
1500,000000	27,943100
1499,000000	27,870400
1498,000000	27,800300
1497,000000	27,741000
1496,000000	27,675600
1495,000000	27,619300
1494,000000	27,573500
1493,000000	27,512600
1492,000000	27,460800
1491,000000	27,418500
1490,000000	27,366500
1489,000000	27,300700
1488,000000	27,236400
1487,000000	27,184800
1486,000000	27,149400
1485,000000	27,106900
1484,000000	27,055000
1483,000000	27,001500
1482,000000	26,962200
1481,000000	26,936500
1480,000000	26,893100
1479,000000	26,843300
1478,000000	26,818100
1477,000000	26,802300
1476,000000	26,765700
1475,000000	26,724500
1474,000000	26,709000
1473,000000	26,713100
1472,000000	26,711600
1471,000000	26,697900
1470,000000	26,684900
1469,000000	26,670200
1468,000000	26,654400
1467,000000	26,644800
1466,000000	26,652900
1465,000000	26,654400
1464,000000	26,641500
1463,000000	26,655700
1462,000000	26,659300
1461,000000	26,679000
1460,000000	26,694900
1459,000000	26,712800
1458,000000	26,747000
1457,000000	26,788300
1456,000000	26,829200
1455,000000	26,867400
1454,000000	26,907900
1453,000000	26,930800
1452,000000	27,006600
1451,000000	27,081500
1450,000000	27,148800
1449,000000	27,192400
1448,000000	27,229000
1447,000000	27,299900
1446,000000	27,392900
1445,000000	27,464300
1444,000000	27,505600
1443,000000	27,586600
1442,000000	27,670400
1441,000000	27,746800
1440,000000	27,838800
1439,000000	27,946600
1438,000000	28,031700
1437,000000	28,122300
1436,000000	28,212900
1435,000000	28,329900
1434,000000	28,449900
1433,000000	28,579400
1432,000000	28,688400
1431,000000	28,804800
1430,000000	28,919000
1429,000000	29,059800
1428,000000	29,226600
1427,000000	29,371700
1426,000000	29,523800
1425,000000	29,708300
1424,000000	29,905600
1423,000000	30,100000
1422,000000	30,283100
1421,000000	30,479400
1420,000000	30,704300
1419,000000	30,969500
1418,000000	31,192500
1417,000000	31,422100
1416,000000	31,626200
1415,000000	31,912000
1414,000000	32,203000
1413,000000	32,468000
1412,000000	32,782500
1411,000000	33,044100
1410,000000	33,400500
1409,000000	33,756100
1408,000000	34,111600
1407,000000	34,476800
1406,000000	34,828000
1405,000000	35,207900
1404,000000	35,593400
1403,000000	35,955900
1402,000000	36,341100
1401,000000	36,746600
1400,000000	37,226200
1399,000000	37,603400
1398,000000	37,922300
1397,000000	38,249500
1396,000000	38,637200
1395,000000	39,041100
1394,000000	39,440300
1393,000000	39,756300
1392,000000	40,093200
1391,000000	40,491500
1390,000000	40,887200
1389,000000	41,259900
1388,000000	41,695700
1387,000000	42,211200
1386,000000	42,645300
1385,000000	43,092900
1384,000000	43,576200
1383,000000	44,028100
1382,000000	44,532800
1381,000000	44,952500
1380,000000	45,320200
1379,000000	45,570600
1378,000000	45,818100
1377,000000	46,035400
1376,000000	46,244500
1375,000000	46,426400
1374,000000	46,614200
1373,000000	46,815000
1372,000000	47,062400
1371,000000	47,303400
1370,000000	47,565100
1369,000000	47,781400
1368,000000	47,986100
1367,000000	48,204800
1366,000000	48,392100
1365,000000	48,529200
1364,000000	48,722300
1363,000000	48,875700
1362,000000	49,013700
1361,000000	49,151900
1360,000000	49,273900
1359,000000	49,280100
1358,000000	49,386500
1357,000000	49,474200
1356,000000	49,590800
1355,000000	49,756200
1354,000000	49,920500
1353,000000	50,156900
1352,000000	50,333400
1351,000000	50,651200
1350,000000	50,935300
1349,000000	51,212700
1348,000000	51,464200
1347,000000	51,737900
1346,000000	51,990500
1345,000000	52,217700
1344,000000	52,470200
1343,000000	52,713900
1342,000000	52,932600
1341,000000	53,155800
1340,000000	53,405900
1339,000000	53,640800
1338,000000	53,854300
1337,000000	54,085700
1336,000000	54,330300
1335,000000	54,535800
1334,000000	54,725100
1333,000000	54,943700
1332,000000	55,148200
1331,000000	55,361300
1330,000000	55,555100
1329,000000	55,743300
1328,000000	55,945800
1327,000000	56,134800
1326,000000	56,301100
1325,000000	56,463500
1324,000000	56,646800
1323,000000	56,797500
1322,000000	56,962100
1321,000000	57,122100
1320,000000	57,279300
1319,000000	57,428400
1318,000000	57,570800
1317,000000	57,696400
1316,000000	57,832600
1315,000000	57,959400
1314,000000	58,085100
1313,000000	58,212400
1312,000000	58,331800
1311,000000	58,441300
1310,000000	58,538500
1309,000000	58,633600
1308,000000	58,720700
1307,000000	58,818800
1306,000000	58,909700
1305,000000	58,983600
1304,000000	59,051300
1303,000000	59,107400
1302,000000	59,173300
1301,000000	59,239000
1300,000000	59,294400
1299,000000	59,346700
1298,000000	59,378100
1297,000000	59,412200
1296,000000	59,457600
1295,000000	59,476000
1294,000000	59,507400
1293,000000	59,534100
1292,000000	59,552300
1291,000000	59,569300
1290,000000	59,567100
1289,000000	59,564100
1288,000000	59,574700
1287,000000	59,565500
1286,000000	59,571800
1285,000000	59,552000
1284,000000	59,530100
1283,000000	59,511900
1282,000000	59,483400
1281,000000	59,448200
1280,000000	59,431400
1279,000000	59,407000
1278,000000	59,377500
1277,000000	59,353200
1276,000000	59,331400
1275,000000	59,313300
1274,000000	59,298300
1273,000000	59,288900
1272,000000	59,250200
1271,000000	59,242300
1270,000000	59,239000
1269,000000	59,218500
1268,000000	59,208800
1267,000000	59,202600
1266,000000	59,184300
1265,000000	59,162400
1264,000000	59,151700
1263,000000	59,141100
1262,000000	59,126400
1261,000000	59,106800
1260,000000	59,092000
1259,000000	59,072000
1258,000000	59,056900
1257,000000	59,035300
1256,000000	59,007700
1255,000000	58,982800
1254,000000	58,962700
1253,000000	58,931000
1252,000000	58,894500
1251,000000	58,844600
1250,000000	58,796100
1249,000000	58,765500
1248,000000	58,702800
1247,000000	58,642600
1246,000000	58,587900
1245,000000	58,524700
1244,000000	58,456400
1243,000000	58,380300
1242,000000	58,306500
1241,000000	58,229100
1240,000000	58,161900
1239,000000	58,089500
1238,000000	58,003000
1237,000000	57,924100
1236,000000	57,847800
1235,000000	57,772600
1234,000000	57,692800
1233,000000	57,598500
1232,000000	57,493900
1231,000000	57,394700
1230,000000	57,296800
1229,000000	57,200100
1228,000000	57,095300
1227,000000	56,984000
1226,000000	56,874900
1225,000000	56,770400
1224,000000	56,665000
1223,000000	56,546200
1222,000000	56,418900
1221,000000	56,300000
1220,000000	56,181700
1219,000000	56,061700
1218,000000	55,947700
1217,000000	55,838300
1216,000000	55,743700
1215,000000	55,625600
1214,000000	55,515100
1213,000000	55,420700
1212,000000	55,332900
1211,000000	55,240600
1210,000000	55,145000
1209,000000	55,068200
1208,000000	54,985600
1207,000000	54,885700
1206,000000	54,813500
1205,000000	54,763900
1204,000000	54,697500
1203,000000	54,640100
1202,000000	54,601300
1201,000000	54,559500
1200,000000	54,519700
1199,000000	54,482600
1198,000000	54,430000
1197,000000	54,377500
1196,000000	54,298600
1195,000000	54,212800
1194,000000	54,101800
1193,000000	53,957500
1192,000000	53,786100
1191,000000	53,598900
1190,000000	53,392100
1189,000000	53,170500
1188,000000	52,983600
1187,000000	52,826200
1186,000000	52,726000
1185,000000	52,668800
1184,000000	52,682600
1183,000000	52,770900
1182,000000	52,922900
1181,000000	53,133300
1180,000000	53,390000
1179,000000	53,664000
1178,000000	53,940400
1177,000000	54,224300
1176,000000	54,475700
1175,000000	54,704500
1174,000000	54,909600
1173,000000	55,102600
1172,000000	55,302900
1171,000000	55,504100
1170,000000	55,701600
1169,000000	55,897000
1168,000000	56,111500
1167,000000	56,310000
1166,000000	56,527100
1165,000000	56,756300
1164,000000	57,004600
1163,000000	57,251700
1162,000000	57,486900
1161,000000	57,742500
1160,000000	57,988000
1159,000000	58,227900
1158,000000	58,466400
1157,000000	58,717800
1156,000000	58,952900
1155,000000	59,189700
1154,000000	59,385100
1153,000000	59,567000
1152,000000	59,738800
1151,000000	59,884600
1150,000000	60,009300
1149,000000	60,129900
1148,000000	60,247700
1147,000000	60,386700
1146,000000	60,525100
1145,000000	60,683800
1144,000000	60,872600
1143,000000	61,093700
1142,000000	61,301600
1141,000000	61,567200
1140,000000	61,847500
1139,000000	62,127600
1138,000000	62,443000
1137,000000	62,748600
1136,000000	63,103600
1135,000000	63,441500
1134,000000	63,817100
1133,000000	64,147400
1132,000000	64,419800
1131,000000	64,695900
1130,000000	64,948300
1129,000000	65,193300
1128,000000	65,397000
1127,000000	65,571800
1126,000000	65,714500
1125,000000	65,839600
1124,000000	65,937900
1123,000000	66,029700
1122,000000	66,112000
1121,000000	66,165100
1120,000000	66,202700
1119,000000	66,226900
1118,000000	66,261200
1117,000000	66,301800
1116,000000	66,312700
1115,000000	66,319100
1114,000000	66,321700
1113,000000	66,315000
1112,000000	66,309000
1111,000000	66,315700
1110,000000	66,305700
1109,000000	66,302700
1108,000000	66,298100
1107,000000	66,284200
1106,000000	66,287200
1105,000000	66,268500
1104,000000	66,257300
1103,000000	66,241700
1102,000000	66,234400
1101,000000	66,223900
1100,000000	66,197700
1099,000000	66,197500
1098,000000	66,167800
1097,000000	66,152400
1096,000000	66,106100
1095,000000	66,097600
1094,000000	66,080400
1093,000000	66,044200
1092,000000	65,993000
1091,000000	65,969300
1090,000000	65,924800
1089,000000	65,896900
1088,000000	65,849900
1087,000000	65,793900
1086,000000	65,744500
1085,000000	65,712900
1084,000000	65,679700
1083,000000	65,626500
1082,000000	65,562200
1081,000000	65,555400
1080,000000	65,496500
1079,000000	65,444600
1078,000000	65,373700
1077,000000	65,368300
1076,000000	65,296100
1075,000000	65,254200
1074,000000	65,210800
1073,000000	65,150200
1072,000000	65,112300
1071,000000	65,059900
1070,000000	65,020900
1069,000000	64,959700
1068,000000	64,911300
1067,000000	64,873200
1066,000000	64,818800
1065,000000	64,772700
1064,000000	64,712200
1063,000000	64,664300
1062,000000	64,627400
1061,000000	64,543100
1060,000000	64,482000
1059,000000	64,451300
1058,000000	64,382800
1057,000000	64,328200
1056,000000	64,270600
1055,000000	64,216600
1054,000000	64,158500
1053,000000	64,081500
1052,000000	64,016600
1051,000000	63,969800
1050,000000	63,900600
1049,000000	63,836100
1048,000000	63,765400
1047,000000	63,712400
1046,000000	63,648500
1045,000000	63,577500
1044,000000	63,520100
1043,000000	63,467700
1042,000000	63,388200
1041,000000	63,333800
1040,000000	63,251200
1039,000000	63,192200
1038,000000	63,126600
1037,000000	63,040100
1036,000000	62,967800
1035,000000	62,897900
1034,000000	62,814700
1033,000000	62,745500
1032,000000	62,651700
1031,000000	62,573700
1030,000000	62,469000
1029,000000	62,385400
1028,000000	62,304600
1027,000000	62,214000
1026,000000	62,112900
1025,000000	62,022000
1024,000000	61,935700
1023,000000	61,840700
1022,000000	61,759900
1021,000000	61,668600
1020,000000	61,567600
1019,000000	61,495500
1018,000000	61,405700
1017,000000	61,318500
1016,000000	61,244000
1015,000000	61,188500
1014,000000	61,117400
1013,000000	61,057700
1012,000000	60,992100
1011,000000	60,943200
1010,000000	60,880100
1009,000000	60,840500
1008,000000	60,825300
1007,000000	60,790900
1006,000000	60,743300
1005,000000	60,720700
1004,000000	60,704200
1003,000000	60,687000
1002,000000	60,664800
1001,000000	60,644200
1000,000000	60,627400
999,000000	60,621800
998,000000	60,616900
997,000000	60,593800
996,000000	60,579500
995,000000	60,588000
994,000000	60,601100
993,000000	60,601700
992,000000	60,608400
991,000000	60,614500
990,000000	60,607400
989,000000	60,622600
988,000000	60,633100
987,000000	60,647600
986,000000	60,648300
985,000000	60,657800
984,000000	60,687700
983,000000	60,713300
982,000000	60,725000
981,000000	60,735600
980,000000	60,767900
979,000000	60,790000
978,000000	60,804200
977,000000	60,827600
976,000000	60,865600
975,000000	60,900700
974,000000	60,923100
973,000000	60,964800
972,000000	60,992000
971,000000	61,025100
970,000000	61,053300
969,000000	61,104400
968,000000	61,148000
967,000000	61,178500
966,000000	61,213000
965,000000	61,253800
964,000000	61,298400
963,000000	61,350100
962,000000	61,392400
961,000000	61,442000
960,000000	61,507600
959,000000	61,581400
958,000000	61,653800
957,000000	61,713100
956,000000	61,788300
955,000000	61,880200
954,000000	61,975600
953,000000	62,075900
952,000000	62,178900
951,000000	62,302100
950,000000	62,422300
949,000000	62,525700
948,000000	62,648000
947,000000	62,768600
946,000000	62,865400
945,000000	62,972900
944,000000	63,080500
943,000000	63,157800
942,000000	63,241300
941,000000	63,356700
940,000000	63,442500
939,000000	63,514800
938,000000	63,605400
937,000000	63,704600
936,000000	63,815200
935,000000	63,920200
934,000000	64,039100
933,000000	64,164600
932,000000	64,281800
931,000000	64,417200
930,000000	64,545500
929,000000	64,653600
928,000000	64,793800
927,000000	64,936000
926,000000	65,053300
925,000000	65,179500
924,000000	65,306000
923,000000	65,418800
922,000000	65,528600
921,000000	65,624000
920,000000	65,715800
919,000000	65,826900
918,000000	65,936200
917,000000	66,039900
916,000000	66,138800
915,000000	66,261900
914,000000	66,380800
913,000000	66,473300
912,000000	66,596300
911,000000	66,727400
910,000000	66,871000
909,000000	67,009400
908,000000	67,151400
907,000000	67,286900
906,000000	67,415800
905,000000	67,552300
904,000000	67,679600
903,000000	67,803600
902,000000	67,929300
901,000000	68,039100
900,000000	68,166300
899,000000	68,281700
898,000000	68,403500
897,000000	68,529800
896,000000	68,663000
895,000000	68,797600
894,000000	68,947200
893,000000	69,093200
892,000000	69,263300
891,000000	69,424500
890,000000	69,606200
889,000000	69,783200
888,000000	69,957900
887,000000	70,134700
886,000000	70,314800
885,000000	70,501900
884,000000	70,682200
883,000000	70,845700
882,000000	71,036600
881,000000	71,206400
880,000000	71,351500
879,000000	71,501000
878,000000	71,652600
877,000000	71,751700
876,000000	71,828600
875,000000	71,866300
874,000000	71,864500
873,000000	71,867100
872,000000	71,850700
871,000000	71,881400
870,000000	72,003200
869,000000	72,187600
868,000000	72,347000
867,000000	72,517400
866,000000	72,639700
865,000000	72,753800
864,000000	72,864400
863,000000	72,967800
862,000000	73,068700
861,000000	73,157700
860,000000	73,249900
859,000000	73,324500
858,000000	73,395200
857,000000	73,126200
856,000000	73,457400
855,000000	73,074600
854,000000	72,575100
853,000000	72,973200
852,000000	72,989600
851,000000	72,769900
850,000000	72,698200
849,000000	72,913400
848,000000	73,208200
847,000000	73,612900
846,000000	73,011500
845,000000	73,222100
844,000000	72,817700
843,000000	73,510600
842,000000	73,107200
841,000000	73,484500
840,000000	73,338900
839,000000	73,365800
838,000000	73,568500
837,000000	73,697900
836,000000	73,800000
835,000000	74,057400
834,000000	74,152800
833,000000	74,148100
832,000000	74,532300
831,000000	74,877100
830,000000	75,032300
829,000000	75,623200
828,000000	75,766100
827,000000	75,930400
826,000000	76,402000
825,000000	76,590500
824,000000	77,013600
823,000000	77,210800
822,000000	77,500000
821,000000	77,829200
820,000000	78,075000
819,000000	78,446900
818,000000	78,708100
817,000000	78,769100
816,000000	79,075500
815,000000	79,282200
814,000000	79,301900
813,000000	79,475200
812,000000	79,773500
811,000000	80,070000
810,000000	80,242600
809,000000	80,606700
808,000000	80,704800
807,000000	81,100800
806,000000	81,289600
805,000000	81,687400
804,000000	82,040500
803,000000	82,100500
802,000000	82,347100
801,000000	82,650300
800,000000	82,915600
799,000000	83,288300
798,000000	83,561100
797,000000	83,644700
796,000000	84,051100
795,000000	84,381300
794,000000	84,584300
793,000000	84,966800
792,000000	85,257500
791,000000	85,533400
790,000000	85,758800
789,000000	86,237200
788,000000	86,353900
787,000000	86,794500
786,000000	86,963400
785,000000	87,472700
784,000000	87,596300
783,000000	87,768900
782,000000	87,925400
781,000000	87,984600
780,000000	87,976500
779,000000	88,050200
778,000000	88,319700
777,000000	88,366000
776,000000	88,360600
775,000000	88,577400
774,000000	88,740000
773,000000	88,682700
772,000000	88,803400
771,000000	88,970000
770,000000	89,035000
769,000000	89,014000
768,000000	89,317300
767,000000	89,323800
766,000000	89,425600
765,000000	89,647700
764,000000	89,792600
763,000000	89,817200
762,000000	90,008400
761,000000	90,059500
760,000000	90,234800
759,000000	90,353400
758,000000	90,200000
757,000000	90,291200
756,000000	90,354600
755,000000	90,447100
754,000000	90,461700
753,000000	90,636300
752,000000	90,602200
751,000000	90,631800
750,000000	90,775300
749,000000	90,740100
748,000000	90,841000
747,000000	90,760000
746,000000	90,771400
745,000000	90,933900
744,000000	90,791000
743,000000	90,768100
742,000000	90,841500
741,000000	90,728900
740,000000	90,489300
739,000000	90,392400
738,000000	90,243000
737,000000	90,052100
736,000000	89,801800
735,000000	89,496000
734,000000	89,339900
733,000000	89,055700
732,000000	88,869800
731,000000	88,568400
730,000000	88,384700
729,000000	88,183500
728,000000	87,894300
727,000000	87,725700
726,000000	87,570600
725,000000	87,508700
724,000000	87,277900
723,000000	87,090800
722,000000	87,020100
721,000000	86,927600
720,000000	86,875300
719,000000	86,741900
718,000000	86,662400
717,000000	86,459300
716,000000	86,302800
715,000000	86,237300
714,000000	86,057300
713,000000	85,830500
712,000000	85,696800
711,000000	85,509200
710,000000	85,190900
709,000000	84,944700
708,000000	84,718500
707,000000	84,492700
706,000000	84,211100
705,000000	84,048500
704,000000	83,782800
703,000000	83,549600
702,000000	83,292700
701,000000	83,076400
700,000000	82,891500
699,000000	82,686900
698,000000	82,415000
697,000000	82,130700
696,000000	81,825600
695,000000	81,585800
694,000000	81,324600
693,000000	81,023100
692,000000	80,588200
691,000000	80,211500
690,000000	79,797700
689,000000	79,258000
688,000000	78,701800
687,000000	78,168000
686,000000	77,573700
685,000000	76,954000
684,000000	76,291400
683,000000	75,660100
682,000000	74,994000
681,000000	74,337000
680,000000	73,754100
679,000000	73,103200
678,000000	72,454200
677,000000	71,850600
676,000000	71,248600
675,000000	70,718500
674,000000	70,159000
673,000000	69,598000
672,000000	68,988100
671,000000	68,350000
670,000000	67,691600
669,000000	66,995100
668,000000	66,233600
667,000000	65,457600
666,000000	64,569100
665,000000	63,567200
664,000000	62,563400
663,000000	61,502100
662,000000	60,390500
661,000000	59,266700
660,000000	58,142900
659,000000	57,093200
658,000000	56,145300
657,000000	55,239300
656,000000	54,441600
655,000000	53,834100
654,000000	53,364600
653,000000	52,989900
652,000000	52,775200
651,000000	52,746500
650,000000	52,893100
649,000000	53,141400
648,000000	53,500500
647,000000	53,942800
646,000000	54,475500
645,000000	55,086300
644,000000	55,693100
643,000000	56,410700
642,000000	57,178600
641,000000	57,914500
640,000000	58,675200
639,000000	59,489400
638,000000	60,330200
637,000000	61,164300
636,000000	62,042300
635,000000	63,000300
634,000000	64,043200
633,000000	65,072800
632,000000	66,123500
631,000000	67,236400
630,000000	68,411700
629,000000	69,615600
628,000000	70,806200
627,000000	71,972200
626,000000	73,100900
625,000000	74,229300
624,000000	75,287300
623,000000	76,283600
622,000000	77,257800
621,000000	78,158300
620,000000	78,982400
619,000000	79,692700
618,000000	80,373500
617,000000	81,013900
616,000000	81,555700
615,000000	82,076200
614,000000	82,571300
613,000000	83,019600
612,000000	83,438100
611,000000	83,809500
610,000000	84,170400
609,000000	84,505000
608,000000	84,868400
607,000000	85,155300
606,000000	85,458000
605,000000	85,815100
604,000000	86,148300
603,000000	86,425900
602,000000	86,708300
601,000000	87,061200
600,000000	87,340600
599,000000	87,592000
598,000000	87,858400
597,000000	88,071600
596,000000	88,250400
595,000000	88,403300
594,000000	88,579200
593,000000	88,689400
592,000000	88,732000
591,000000	88,830100
590,000000	88,853800
589,000000	88,846300
588,000000	88,790100
587,000000	88,751600
586,000000	88,696900
585,000000	88,590700
584,000000	88,473000
583,000000	88,381000
582,000000	88,239000
581,000000	88,060000
580,000000	87,874500
579,000000	87,705900
578,000000	87,546200
577,000000	87,383600
576,000000	87,170300
575,000000	86,977900
574,000000	86,771600
573,000000	86,542500
572,000000	86,364700
571,000000	86,128600
570,000000	85,901900
569,000000	85,693000
568,000000	85,382800
567,000000	85,102000
566,000000	84,784800
565,000000	84,450900
564,000000	84,098900
563,000000	83,737700
562,000000	83,324300
561,000000	82,928900
560,000000	82,538700
559,000000	82,048800
558,000000	81,569500
557,000000	81,107000
556,000000	80,648800
555,000000	80,127600
554,000000	79,544000
553,000000	78,933600
552,000000	78,311000
551,000000	77,678000
550,000000	76,972100
549,000000	76,151400
548,000000	75,345000
547,000000	74,472400
546,000000	73,488000
545,000000	72,451400
544,000000	71,347900
543,000000	70,141700
542,000000	68,904200
541,000000	67,615900
540,000000	66,259600
539,000000	64,892600
538,000000	63,487900
537,000000	62,074300
536,000000	60,614300
535,000000	59,178000
534,000000	57,752500
533,000000	56,288700
532,000000	54,882200
531,000000	53,496400
530,000000	52,121400
529,000000	50,851300
528,000000	49,583900
527,000000	48,339500
526,000000	47,195000
525,000000	46,040200
524,000000	44,940600
523,000000	43,883000
522,000000	42,889100
521,000000	41,976700
520,000000	41,113900
519,000000	40,338300
518,000000	39,605100
517,000000	38,935700
516,000000	38,329200
515,000000	37,751400
514,000000	37,202800
513,000000	36,692100
512,000000	36,229600
511,000000	35,776900
510,000000	35,363600
509,000000	34,898300
508,000000	34,506600
507,000000	34,051300
506,000000	33,629500
505,000000	33,199700
504,000000	32,773900
503,000000	32,297100
502,000000	31,839800
501,000000	31,373500
500,000000	30,871000
499,000000	30,392800
498,000000	29,933900
497,000000	29,429000
496,000000	28,905600
495,000000	28,411400
494,000000	27,891700
493,000000	27,375300
492,000000	26,896700
491,000000	26,395500
490,000000	25,910700
489,000000	25,473000
488,000000	25,053700
487,000000	24,672400
486,000000	24,325600
485,000000	23,990900
484,000000	23,714900
483,000000	23,447100
482,000000	23,245900
481,000000	23,068300
480,000000	22,947500
479,000000	22,882800
478,000000	22,862900
477,000000	22,879800
476,000000	22,919700
475,000000	22,999100
474,000000	23,129400
473,000000	23,231300
472,000000	23,350800
471,000000	23,501900
470,000000	23,686600
469,000000	23,868700
468,000000	23,989700
467,000000	24,160200
466,000000	24,332100
465,000000	24,508400
464,000000	24,636200
463,000000	24,783100
462,000000	24,914200
461,000000	25,034500
460,000000	25,153600
459,000000	25,216200
458,000000	25,276500
457,000000	25,326700
456,000000	25,414900
455,000000	25,403100
454,000000	25,402000
453,000000	25,368500
452,000000	25,294500
451,000000	25,228100
450,000000	25,165400
449,000000	25,090600
448,000000	24,986600
447,000000	24,842800
446,000000	24,692500
445,000000	24,535600
444,000000	24,348100
443,000000	24,125000
442,000000	23,962900
441,000000	23,718800
440,000000	23,513200
439,000000	23,270500
438,000000	22,974800
437,000000	22,686900
436,000000	22,384200
435,000000	22,110600
434,000000	21,770100
433,000000	21,446100
432,000000	21,114500
431,000000	20,755400
430,000000	20,435400
429,000000	20,064700
428,000000	19,684500
427,000000	19,284700
426,000000	18,917800
425,000000	18,532800
424,000000	18,148100
423,000000	17,757500
422,000000	17,319100
421,000000	16,913200
420,000000	16,502800
419,000000	16,112900
418,000000	15,689800
417,000000	15,268700
416,000000	14,898300
415,000000	14,494700
414,000000	14,100400
413,000000	13,713000
412,000000	13,322700
411,000000	12,957900
410,000000	12,610400
409,000000	12,261000
408,000000	11,954400
407,000000	11,629300
406,000000	11,310100
405,000000	11,004600
404,000000	10,752200
403,000000	10,489000
402,000000	10,244900
401,000000	9,978800
400,000000	9,759100
399,000000	9,536900
398,000000	9,348600
397,000000	9,176400
396,000000	8,990000
395,000000	8,830700
394,000000	8,676700
393,000000	8,535300
392,000000	8,403400
391,000000	8,270900
390,000000	8,146300
389,000000	8,037300
388,000000	7,937300
387,000000	7,840200
386,000000	7,726100
385,000000	7,647600
384,000000	7,560300
383,000000	7,463400
382,000000	7,411900
381,000000	7,334100
380,000000	7,277700
379,000000	7,246800
378,000000	7,164800
377,000000	7,103400
376,000000	7,033200
375,000000	6,814500
374,000000	6,652500
373,000000	6,785900
372,000000	6,700500
371,000000	6,693800
370,000000	6,690000
369,000000	6,679000
368,000000	6,773200
367,000000	6,721100
366,000000	6,646900
365,000000	6,535900
364,000000	6,606100
363,000000	6,642000
362,000000	6,547000
361,000000	6,422200
360,000000	6,208300
359,000000	6,278500
358,000000	6,381600
357,000000	6,529500
356,000000	6,487500
355,000000	6,448000
354,000000	6,389500
353,000000	6,312800
352,000000	6,408900
351,000000	6,361900
350,000000	6,326500
349,000000	6,163400
348,000000	5,950900
347,000000	6,058800
346,000000	6,138200
345,000000	6,086700
344,000000	5,998300
343,000000	6,117900
342,000000	6,178500
341,000000	6,131600
340,000000	6,053700
339,000000	5,851900
338,000000	5,937200
337,000000	5,998200
336,000000	6,174000
335,000000	6,272600
334,000000	6,132300
333,000000	6,128600
332,000000	6,128900
331,000000	6,123400
330,000000	6,215800
329,000000	6,040600
328,000000	5,937700
327,000000	6,193500
326,000000	6,379700
325,000000	6,554100
324,000000	6,464300
323,000000	5,840800
322,000000	5,761100
321,000000	5,987600
320,000000	6,454200
319,000000	6,618800
318,000000	6,452200
317,000000	6,531300
316,000000	6,187600
315,000000	5,816000
314,000000	5,793900
313,000000	5,815600
312,000000	5,819600
311,000000	5,823600
310,000000	5,805400
309,000000	5,777300
308,000000	5,808200
307,000000	5,794800
306,000000	5,811400
305,000000	5,846300
304,000000	5,857700
303,000000	5,884200
302,000000	5,831500
301,000000	5,835500
300,000000	5,826600
299,000000	5,872000
298,000000	5,854200
297,000000	5,803400
296,000000	5,834700
295,000000	5,855700
294,000000	5,823700
293,000000	5,837800
292,000000	5,825500
291,000000	5,854700
290,000000	5,865400
289,000000	5,878600
288,000000	5,905100
287,000000	5,876800
286,000000	5,891000
285,000000	5,914400
284,000000	5,925600
283,000000	5,900500
282,000000	5,898400
281,000000	5,893800
280,000000	5,909200
279,000000	5,897000
278,000000	5,905200
277,000000	5,904500
276,000000	5,944300
275,000000	5,957400
274,000000	5,974100
273,000000	5,999100
272,000000	6,020900
271,000000	6,022700
270,000000	6,039800
269,000000	6,050600
268,000000	6,034400
267,000000	6,049900
266,000000	6,045400
265,000000	6,094600
264,000000	6,133800
263,000000	6,164000
262,000000	6,200500
261,000000	6,226800
260,000000	6,205600
259,000000	6,261200
258,000000	6,291800
257,000000	6,316800
256,000000	6,330800
255,000000	6,299000
254,000000	6,326700
253,000000	6,346800
252,000000	6,370200
251,000000	6,315700
250,000000	6,320300
