PE UV       SUBTECH     SPECTRUM    ASCII       PEDS        4.00        
   -1
CICIMAUCR0260-1.Sample.ASC
24/07/01
10:53:39.00
24/07/01
10:53:39.00
Vinicio Soto Monge
C. resplendens. Sex F. Dorsal.
250,000000
1
Lambda 1050
1050L1511233
PerkinElmer UV WinLab 6.3.2.0749 / 2.02.05 Lambda 900 UV/VIS/NIR, Aug  7 2015 09:38:08

0
0
3350/servo 860,8/2
0
0
UV/VIS
1
1
1
DoubleDePol,CommonBeamDepol,RBeamAtt,SBeamAtt,60mm sphere, WB InGaAs Detector
0
0
0
0
Program
Program
3350/servo 860,8/2
3350/0,2 860,8/0,2
3350/0,2 860,8/0,2
0
15.00
 
 
 
0
 
860,8
319,2
860,8
Front
100
on
S:100 R:100
0
0
0
0
 
0
 
 
 
0
 
 
0
0
0
0
0
 
 
 
 
0
0


0
0
#HDR
-1
-1
#GR
nm
%R
1.0
0.0
2500,000000
-1,000000
2251
8
92,306800
5,246900
#DATA
2500,000000	7,999500
2499,000000	8,035600
2498,000000	7,878700
2497,000000	7,963100
2496,000000	7,859400
2495,000000	7,869600
2494,000000	7,868600
2493,000000	7,864300
2492,000000	7,775500
2491,000000	7,847200
2490,000000	7,785600
2489,000000	7,777000
2488,000000	7,925200
2487,000000	7,869700
2486,000000	7,837300
2485,000000	7,827900
2484,000000	7,864200
2483,000000	7,805800
2482,000000	7,782900
2481,000000	7,821900
2480,000000	7,773100
2479,000000	7,809100
2478,000000	7,811400
2477,000000	7,805400
2476,000000	7,843500
2475,000000	7,803900
2474,000000	7,823100
2473,000000	7,853600
2472,000000	7,833800
2471,000000	7,845300
2470,000000	7,902100
2469,000000	7,893100
2468,000000	7,921500
2467,000000	7,906600
2466,000000	7,901800
2465,000000	7,970600
2464,000000	8,007300
2463,000000	8,018100
2462,000000	7,990100
2461,000000	8,044100
2460,000000	8,084200
2459,000000	8,130400
2458,000000	8,130800
2457,000000	8,156600
2456,000000	8,231100
2455,000000	8,288800
2454,000000	8,325900
2453,000000	8,368100
2452,000000	8,434900
2451,000000	8,488600
2450,000000	8,548500
2449,000000	8,586200
2448,000000	8,636400
2447,000000	8,714600
2446,000000	8,756500
2445,000000	8,811300
2444,000000	8,856700
2443,000000	8,907400
2442,000000	9,002000
2441,000000	9,061400
2440,000000	9,126300
2439,000000	9,189500
2438,000000	9,246900
2437,000000	9,296200
2436,000000	9,357700
2435,000000	9,382200
2434,000000	9,442800
2433,000000	9,498700
2432,000000	9,549000
2431,000000	9,599800
2430,000000	9,668400
2429,000000	9,721300
2428,000000	9,778100
2427,000000	9,805200
2426,000000	9,840200
2425,000000	9,899500
2424,000000	9,948300
2423,000000	10,003500
2422,000000	10,044200
2421,000000	10,075400
2420,000000	10,111500
2419,000000	10,160800
2418,000000	10,198600
2417,000000	10,231800
2416,000000	10,286400
2415,000000	10,314700
2414,000000	10,344400
2413,000000	10,367900
2412,000000	10,408100
2411,000000	10,430200
2410,000000	10,465300
2409,000000	10,490500
2408,000000	10,520000
2407,000000	10,564900
2406,000000	10,585200
2405,000000	10,611900
2404,000000	10,647700
2403,000000	10,664300
2402,000000	10,672100
2401,000000	10,713500
2400,000000	10,748100
2399,000000	10,763300
2398,000000	10,786100
2397,000000	10,807000
2396,000000	10,845900
2395,000000	10,869400
2394,000000	10,889900
2393,000000	10,908300
2392,000000	10,927000
2391,000000	10,952500
2390,000000	10,977900
2389,000000	10,985600
2388,000000	10,997500
2387,000000	11,023500
2386,000000	11,038700
2385,000000	11,048500
2384,000000	11,071700
2383,000000	11,072100
2382,000000	11,068600
2381,000000	11,073500
2380,000000	11,082000
2379,000000	11,090700
2378,000000	11,082900
2377,000000	11,072800
2376,000000	11,088300
2375,000000	11,082700
2374,000000	11,072100
2373,000000	11,074600
2372,000000	11,068600
2371,000000	11,063200
2370,000000	11,057700
2369,000000	11,044400
2368,000000	11,026800
2367,000000	11,018900
2366,000000	11,000900
2365,000000	10,982400
2364,000000	10,954600
2363,000000	10,927500
2362,000000	10,926100
2361,000000	10,909800
2360,000000	10,877800
2359,000000	10,847200
2358,000000	10,814300
2357,000000	10,797800
2356,000000	10,776800
2355,000000	10,758000
2354,000000	10,742900
2353,000000	10,735700
2352,000000	10,733500
2351,000000	10,720600
2350,000000	10,718400
2349,000000	10,738400
2348,000000	10,751600
2347,000000	10,763800
2346,000000	10,785600
2345,000000	10,804600
2344,000000	10,835900
2343,000000	10,855700
2342,000000	10,878200
2341,000000	10,904100
2340,000000	10,932600
2339,000000	10,950300
2338,000000	10,974600
2337,000000	10,987500
2336,000000	10,989500
2335,000000	11,018900
2334,000000	11,025700
2333,000000	11,021400
2332,000000	11,005700
2331,000000	11,002500
2330,000000	11,004300
2329,000000	10,974400
2328,000000	10,964700
2327,000000	10,955600
2326,000000	10,918900
2325,000000	10,891000
2324,000000	10,862500
2323,000000	10,817200
2322,000000	10,784700
2321,000000	10,737800
2320,000000	10,682500
2319,000000	10,616700
2318,000000	10,562600
2317,000000	10,504700
2316,000000	10,441600
2315,000000	10,372400
2314,000000	10,289700
2313,000000	10,232300
2312,000000	10,153900
2311,000000	10,085000
2310,000000	10,030500
2309,000000	9,975100
2308,000000	9,923300
2307,000000	9,887100
2306,000000	9,867000
2305,000000	9,847200
2304,000000	9,850400
2303,000000	9,852200
2302,000000	9,868900
2301,000000	9,906400
2300,000000	9,935500
2299,000000	9,987400
2298,000000	10,041400
2297,000000	10,092000
2296,000000	10,159300
2295,000000	10,216000
2294,000000	10,283300
2293,000000	10,355800
2292,000000	10,406600
2291,000000	10,455200
2290,000000	10,493600
2289,000000	10,520600
2288,000000	10,550300
2287,000000	10,567300
2286,000000	10,588200
2285,000000	10,584000
2284,000000	10,573000
2283,000000	10,571200
2282,000000	10,571700
2281,000000	10,533100
2280,000000	10,517200
2279,000000	10,467900
2278,000000	10,439200
2277,000000	10,426700
2276,000000	10,378600
2275,000000	10,338000
2274,000000	10,298300
2273,000000	10,272200
2272,000000	10,240900
2271,000000	10,227100
2270,000000	10,214900
2269,000000	10,224500
2268,000000	10,248200
2267,000000	10,293900
2266,000000	10,330200
2265,000000	10,402700
2264,000000	10,454000
2263,000000	10,567200
2262,000000	10,680500
2261,000000	10,812600
2260,000000	10,937900
2259,000000	11,097400
2258,000000	11,270100
2257,000000	11,442200
2256,000000	11,593100
2255,000000	11,771600
2254,000000	11,951500
2253,000000	12,147800
2252,000000	12,314600
2251,000000	12,478800
2250,000000	12,646300
2249,000000	12,796700
2248,000000	12,941900
2247,000000	13,083800
2246,000000	13,214200
2245,000000	13,358000
2244,000000	13,450400
2243,000000	13,564800
2242,000000	13,650900
2241,000000	13,723100
2240,000000	13,802000
2239,000000	13,895500
2238,000000	13,963500
2237,000000	14,012400
2236,000000	14,041800
2235,000000	14,120200
2234,000000	14,146000
2233,000000	14,167600
2232,000000	14,202100
2231,000000	14,229500
2230,000000	14,228400
2229,000000	14,247300
2228,000000	14,260100
2227,000000	14,242700
2226,000000	14,233300
2225,000000	14,238600
2224,000000	14,214700
2223,000000	14,180000
2222,000000	14,170400
2221,000000	14,169800
2220,000000	14,118000
2219,000000	14,087500
2218,000000	14,058900
2217,000000	14,032500
2216,000000	13,993600
2215,000000	13,960000
2214,000000	13,919300
2213,000000	13,874500
2212,000000	13,862600
2211,000000	13,803800
2210,000000	13,782300
2209,000000	13,771100
2208,000000	13,762100
2207,000000	13,724700
2206,000000	13,683700
2205,000000	13,675300
2204,000000	13,644800
2203,000000	13,613800
2202,000000	13,590500
2201,000000	13,595600
2200,000000	13,570400
2199,000000	13,543600
2198,000000	13,542800
2197,000000	13,512000
2196,000000	13,518000
2195,000000	13,525200
2194,000000	13,494300
2193,000000	13,489500
2192,000000	13,479800
2191,000000	13,469400
2190,000000	13,459600
2189,000000	13,431400
2188,000000	13,430700
2187,000000	13,434700
2186,000000	13,404600
2185,000000	13,396700
2184,000000	13,398700
2183,000000	13,389000
2182,000000	13,355400
2181,000000	13,352000
2180,000000	13,326400
2179,000000	13,327100
2178,000000	13,302200
2177,000000	13,305700
2176,000000	13,329000
2175,000000	13,312900
2174,000000	13,286600
2173,000000	13,295300
2172,000000	13,313200
2171,000000	13,311900
2170,000000	13,308800
2169,000000	13,327100
2168,000000	13,328600
2167,000000	13,355100
2166,000000	13,369500
2165,000000	13,382300
2164,000000	13,390900
2163,000000	13,427500
2162,000000	13,443700
2161,000000	13,472500
2160,000000	13,490200
2159,000000	13,524400
2158,000000	13,560500
2157,000000	13,604900
2156,000000	13,621700
2155,000000	13,660500
2154,000000	13,702500
2153,000000	13,734700
2152,000000	13,778000
2151,000000	13,834700
2150,000000	13,877400
2149,000000	13,923600
2148,000000	13,960400
2147,000000	14,013400
2146,000000	14,052900
2145,000000	14,104400
2144,000000	14,144800
2143,000000	14,168700
2142,000000	14,212400
2141,000000	14,249500
2140,000000	14,268600
2139,000000	14,319900
2138,000000	14,349400
2137,000000	14,377200
2136,000000	14,413100
2135,000000	14,442000
2134,000000	14,457300
2133,000000	14,493900
2132,000000	14,521300
2131,000000	14,523900
2130,000000	14,543500
2129,000000	14,554000
2128,000000	14,562300
2127,000000	14,569200
2126,000000	14,586400
2125,000000	14,599700
2124,000000	14,599200
2123,000000	14,591200
2122,000000	14,569200
2121,000000	14,565200
2120,000000	14,565700
2119,000000	14,562500
2118,000000	14,560800
2117,000000	14,547300
2116,000000	14,515100
2115,000000	14,508700
2114,000000	14,507900
2113,000000	14,489300
2112,000000	14,464600
2111,000000	14,439400
2110,000000	14,413800
2109,000000	14,396000
2108,000000	14,362000
2107,000000	14,337300
2106,000000	14,333500
2105,000000	14,304200
2104,000000	14,268700
2103,000000	14,252800
2102,000000	14,239600
2101,000000	14,215800
2100,000000	14,175900
2099,000000	14,152400
2098,000000	14,128100
2097,000000	14,111400
2096,000000	14,094700
2095,000000	14,067300
2094,000000	14,046400
2093,000000	14,028500
2092,000000	14,009000
2091,000000	13,976700
2090,000000	13,962100
2089,000000	13,952700
2088,000000	13,936600
2087,000000	13,911700
2086,000000	13,883700
2085,000000	13,867400
2084,000000	13,847200
2083,000000	13,812100
2082,000000	13,793300
2081,000000	13,766000
2080,000000	13,714900
2079,000000	13,680200
2078,000000	13,651700
2077,000000	13,613000
2076,000000	13,564000
2075,000000	13,516600
2074,000000	13,471100
2073,000000	13,411100
2072,000000	13,368500
2071,000000	13,330400
2070,000000	13,266500
2069,000000	13,205600
2068,000000	13,157300
2067,000000	13,101100
2066,000000	13,028600
2065,000000	12,967700
2064,000000	12,926500
2063,000000	12,871800
2062,000000	12,806200
2061,000000	12,753300
2060,000000	12,717400
2059,000000	12,675700
2058,000000	12,626500
2057,000000	12,594500
2056,000000	12,571800
2055,000000	12,553200
2054,000000	12,531300
2053,000000	12,518700
2052,000000	12,523800
2051,000000	12,525100
2050,000000	12,543000
2049,000000	12,572900
2048,000000	12,604400
2047,000000	12,629400
2046,000000	12,676100
2045,000000	12,730700
2044,000000	12,771700
2043,000000	12,817500
2042,000000	12,864400
2041,000000	12,919300
2040,000000	12,956200
2039,000000	12,992900
2038,000000	13,032400
2037,000000	13,068800
2036,000000	13,105100
2035,000000	13,136200
2034,000000	13,169200
2033,000000	13,202500
2032,000000	13,213500
2031,000000	13,224700
2030,000000	13,241000
2029,000000	13,237700
2028,000000	13,263100
2027,000000	13,262800
2026,000000	13,262600
2025,000000	13,275900
2024,000000	13,275200
2023,000000	13,252600
2022,000000	13,255800
2021,000000	13,249200
2020,000000	13,235000
2019,000000	13,221700
2018,000000	13,213100
2017,000000	13,193700
2016,000000	13,170200
2015,000000	13,167700
2014,000000	13,145500
2013,000000	13,111300
2012,000000	13,088300
2011,000000	13,054200
2010,000000	13,030600
2009,000000	12,994400
2008,000000	12,962100
2007,000000	12,921200
2006,000000	12,878800
2005,000000	12,829100
2004,000000	12,796600
2003,000000	12,746400
2002,000000	12,698100
2001,000000	12,655400
2000,000000	12,583100
1999,000000	12,529800
1998,000000	12,477800
1997,000000	12,435700
1996,000000	12,375000
1995,000000	12,315900
1994,000000	12,238300
1993,000000	12,172200
1992,000000	12,117400
1991,000000	12,061900
1990,000000	11,982200
1989,000000	11,908300
1988,000000	11,858800
1987,000000	11,770900
1986,000000	11,699200
1985,000000	11,647900
1984,000000	11,561000
1983,000000	11,498700
1982,000000	11,433000
1981,000000	11,352100
1980,000000	11,271800
1979,000000	11,213900
1978,000000	11,148600
1977,000000	11,068000
1976,000000	11,002800
1975,000000	10,929600
1974,000000	10,863400
1973,000000	10,801000
1972,000000	10,733200
1971,000000	10,654100
1970,000000	10,587600
1969,000000	10,536500
1968,000000	10,457300
1967,000000	10,388300
1966,000000	10,343900
1965,000000	10,294200
1964,000000	10,225300
1963,000000	10,158200
1962,000000	10,090200
1961,000000	10,048300
1960,000000	9,983700
1959,000000	9,923300
1958,000000	9,851200
1957,000000	9,800400
1956,000000	9,758300
1955,000000	9,706500
1954,000000	9,612800
1953,000000	9,596600
1952,000000	9,514200
1951,000000	9,502700
1950,000000	9,444100
1949,000000	9,373300
1948,000000	9,339700
1947,000000	9,295400
1946,000000	9,293600
1945,000000	9,249900
1944,000000	9,212400
1943,000000	9,172500
1942,000000	9,141400
1941,000000	9,126500
1940,000000	9,121000
1939,000000	9,096000
1938,000000	9,104600
1937,000000	9,116500
1936,000000	9,102100
1935,000000	9,093600
1934,000000	9,104200
1933,000000	9,121100
1932,000000	9,149300
1931,000000	9,180400
1930,000000	9,211800
1929,000000	9,251900
1928,000000	9,307900
1927,000000	9,366500
1926,000000	9,409200
1925,000000	9,497300
1924,000000	9,576200
1923,000000	9,635700
1922,000000	9,717900
1921,000000	9,842500
1920,000000	9,935700
1919,000000	10,064500
1918,000000	10,158900
1917,000000	10,275200
1916,000000	10,379900
1915,000000	10,492000
1914,000000	10,622100
1913,000000	10,819400
1912,000000	10,994000
1911,000000	11,142300
1910,000000	11,301300
1909,000000	11,448800
1908,000000	11,594700
1907,000000	11,755300
1906,000000	11,956600
1905,000000	12,224300
1904,000000	12,467800
1903,000000	12,677600
1902,000000	12,898300
1901,000000	13,152700
1900,000000	13,402600
1899,000000	13,687200
1898,000000	14,003200
1897,000000	14,291600
1896,000000	14,589600
1895,000000	14,844300
1894,000000	15,108900
1893,000000	15,411300
1892,000000	15,735400
1891,000000	16,148300
1890,000000	16,551400
1889,000000	16,892800
1888,000000	17,270700
1887,000000	17,651200
1886,000000	18,031900
1885,000000	18,445300
1884,000000	18,862200
1883,000000	19,301700
1882,000000	19,751600
1881,000000	20,135600
1880,000000	20,543700
1879,000000	20,910400
1878,000000	21,294000
1877,000000	21,687700
1876,000000	22,036200
1875,000000	22,394100
1874,000000	22,767000
1873,000000	23,114500
1872,000000	23,473800
1871,000000	23,776000
1870,000000	24,067900
1869,000000	24,340800
1868,000000	24,608800
1867,000000	24,802200
1866,000000	24,971400
1865,000000	25,093700
1864,000000	25,229900
1863,000000	25,359200
1862,000000	25,494300
1861,000000	25,651200
1860,000000	25,791500
1859,000000	25,925300
1858,000000	26,071000
1857,000000	26,170100
1856,000000	26,242000
1855,000000	26,297500
1854,000000	26,372700
1853,000000	26,411300
1852,000000	26,456000
1851,000000	26,495800
1850,000000	26,518700
1849,000000	26,554300
1848,000000	26,597600
1847,000000	26,654800
1846,000000	26,660100
1845,000000	26,633700
1844,000000	26,611900
1843,000000	26,573800
1842,000000	26,591000
1841,000000	26,621200
1840,000000	26,645500
1839,000000	26,647400
1838,000000	26,635000
1837,000000	26,619100
1836,000000	26,597800
1835,000000	26,568100
1834,000000	26,534600
1833,000000	26,486400
1832,000000	26,431100
1831,000000	26,404300
1830,000000	26,389500
1829,000000	26,360800
1828,000000	26,319100
1827,000000	26,273100
1826,000000	26,237000
1825,000000	26,195200
1824,000000	26,153800
1823,000000	26,119500
1822,000000	26,107900
1821,000000	26,125100
1820,000000	26,113800
1819,000000	26,103300
1818,000000	26,065100
1817,000000	26,021500
1816,000000	26,004900
1815,000000	25,990400
1814,000000	25,965400
1813,000000	25,960100
1812,000000	25,942300
1811,000000	25,923500
1810,000000	25,906500
1809,000000	25,870600
1808,000000	25,839400
1807,000000	25,814000
1806,000000	25,792600
1805,000000	25,769400
1804,000000	25,733900
1803,000000	25,705600
1802,000000	25,687300
1801,000000	25,660600
1800,000000	25,612800
1799,000000	25,567800
1798,000000	25,534400
1797,000000	25,497900
1796,000000	25,473900
1795,000000	25,447300
1794,000000	25,415000
1793,000000	25,392700
1792,000000	25,363300
1791,000000	25,350100
1790,000000	25,323300
1789,000000	25,276000
1788,000000	25,251300
1787,000000	25,226700
1786,000000	25,205000
1785,000000	25,180000
1784,000000	25,143200
1783,000000	25,103200
1782,000000	25,079700
1781,000000	25,044500
1780,000000	25,000800
1779,000000	24,972400
1778,000000	24,943400
1777,000000	24,909700
1776,000000	24,868000
1775,000000	24,814600
1774,000000	24,768000
1773,000000	24,725600
1772,000000	24,680200
1771,000000	24,629900
1770,000000	24,580700
1769,000000	24,520500
1768,000000	24,466200
1767,000000	24,423800
1766,000000	24,369700
1765,000000	24,326500
1764,000000	24,303500
1763,000000	24,283400
1762,000000	24,280900
1761,000000	24,287200
1760,000000	24,302900
1759,000000	24,336700
1758,000000	24,374800
1757,000000	24,411900
1756,000000	24,466100
1755,000000	24,519500
1754,000000	24,550900
1753,000000	24,596100
1752,000000	24,620800
1751,000000	24,633000
1750,000000	24,638500
1749,000000	24,647700
1748,000000	24,658000
1747,000000	24,641400
1746,000000	24,605100
1745,000000	24,577900
1744,000000	24,517300
1743,000000	24,438800
1742,000000	24,370400
1741,000000	24,293800
1740,000000	24,186200
1739,000000	24,087300
1738,000000	23,978400
1737,000000	23,874200
1736,000000	23,757900
1735,000000	23,688100
1734,000000	23,623100
1733,000000	23,559200
1732,000000	23,535800
1731,000000	23,531700
1730,000000	23,545400
1729,000000	23,578200
1728,000000	23,626500
1727,000000	23,667100
1726,000000	23,709400
1725,000000	23,760300
1724,000000	23,787000
1723,000000	23,834100
1722,000000	23,884400
1721,000000	23,918700
1720,000000	23,974100
1719,000000	24,032300
1718,000000	24,084600
1717,000000	24,153500
1716,000000	24,240500
1715,000000	24,312100
1714,000000	24,392600
1713,000000	24,467600
1712,000000	24,534400
1711,000000	24,596900
1710,000000	24,647400
1709,000000	24,694400
1708,000000	24,721000
1707,000000	24,733100
1706,000000	24,732800
1705,000000	24,699200
1704,000000	24,681700
1703,000000	24,661300
1702,000000	24,624700
1701,000000	24,556300
1700,000000	24,483900
1699,000000	24,402800
1698,000000	24,346400
1697,000000	24,262600
1696,000000	24,171600
1695,000000	24,143800
1694,000000	24,120800
1693,000000	24,119800
1692,000000	24,140000
1691,000000	24,181500
1690,000000	24,251100
1689,000000	24,344400
1688,000000	24,425300
1687,000000	24,494900
1686,000000	24,561700
1685,000000	24,614600
1684,000000	24,708200
1683,000000	24,813800
1682,000000	24,936500
1681,000000	25,111300
1680,000000	25,321500
1679,000000	25,573700
1678,000000	25,864900
1677,000000	26,151900
1676,000000	26,420000
1675,000000	26,710400
1674,000000	26,934700
1673,000000	27,130000
1672,000000	27,333900
1671,000000	27,488000
1670,000000	27,643300
1669,000000	27,792800
1668,000000	27,913100
1667,000000	27,994900
1666,000000	28,060500
1665,000000	28,174000
1664,000000	28,242800
1663,000000	28,298700
1662,000000	28,353500
1661,000000	28,410100
1660,000000	28,422500
1659,000000	28,499300
1658,000000	28,532000
1657,000000	28,550900
1656,000000	28,561700
1655,000000	28,547200
1654,000000	28,569400
1653,000000	28,590500
1652,000000	28,586600
1651,000000	28,576300
1650,000000	28,566600
1649,000000	28,556500
1648,000000	28,520200
1647,000000	28,511700
1646,000000	28,493300
1645,000000	28,449300
1644,000000	28,422700
1643,000000	28,393800
1642,000000	28,360900
1641,000000	28,337100
1640,000000	28,301100
1639,000000	28,270200
1638,000000	28,235600
1637,000000	28,193800
1636,000000	28,167000
1635,000000	28,109100
1634,000000	28,059600
1633,000000	28,037300
1632,000000	27,983300
1631,000000	27,928100
1630,000000	27,891900
1629,000000	27,832300
1628,000000	27,773500
1627,000000	27,725900
1626,000000	27,673700
1625,000000	27,599600
1624,000000	27,553100
1623,000000	27,504300
1622,000000	27,455800
1621,000000	27,401900
1620,000000	27,365800
1619,000000	27,296600
1618,000000	27,243400
1617,000000	27,203800
1616,000000	27,160900
1615,000000	27,105100
1614,000000	27,051100
1613,000000	26,996700
1612,000000	26,952000
1611,000000	26,903400
1610,000000	26,847700
1609,000000	26,801600
1608,000000	26,741800
1607,000000	26,687600
1606,000000	26,632800
1605,000000	26,580200
1604,000000	26,540100
1603,000000	26,475100
1602,000000	26,417900
1601,000000	26,361200
1600,000000	26,307300
1599,000000	26,253200
1598,000000	26,198700
1597,000000	26,134800
1596,000000	26,076300
1595,000000	26,036400
1594,000000	25,978900
1593,000000	25,931600
1592,000000	25,893100
1591,000000	25,842100
1590,000000	25,799300
1589,000000	25,754800
1588,000000	25,708100
1587,000000	25,664300
1586,000000	25,604600
1585,000000	25,561000
1584,000000	25,525200
1583,000000	25,479300
1582,000000	25,440600
1581,000000	25,400400
1580,000000	25,352700
1579,000000	25,335600
1578,000000	25,300400
1577,000000	25,266700
1576,000000	25,244700
1575,000000	25,224200
1574,000000	25,192800
1573,000000	25,182600
1572,000000	25,158000
1571,000000	25,142500
1570,000000	25,114200
1569,000000	25,095000
1568,000000	25,092400
1567,000000	25,084300
1566,000000	25,068200
1565,000000	25,048900
1564,000000	25,039700
1563,000000	25,024500
1562,000000	25,010600
1561,000000	24,989900
1560,000000	24,977400
1559,000000	24,957900
1558,000000	24,933800
1557,000000	24,901100
1556,000000	24,881800
1555,000000	24,861900
1554,000000	24,823600
1553,000000	24,794100
1552,000000	24,751700
1551,000000	24,715200
1550,000000	24,670100
1549,000000	24,624200
1548,000000	24,593700
1547,000000	24,540300
1546,000000	24,506600
1545,000000	24,479400
1544,000000	24,438800
1543,000000	24,399100
1542,000000	24,367200
1541,000000	24,342200
1540,000000	24,317900
1539,000000	24,289000
1538,000000	24,263300
1537,000000	24,236700
1536,000000	24,205200
1535,000000	24,166400
1534,000000	24,121700
1533,000000	24,088600
1532,000000	24,052300
1531,000000	24,008600
1530,000000	23,963500
1529,000000	23,944000
1528,000000	23,910400
1527,000000	23,856500
1526,000000	23,795500
1525,000000	23,751800
1524,000000	23,708400
1523,000000	23,653900
1522,000000	23,612200
1521,000000	23,565100
1520,000000	23,510800
1519,000000	23,456400
1518,000000	23,386700
1517,000000	23,335700
1516,000000	23,292000
1515,000000	23,224200
1514,000000	23,172900
1513,000000	23,119100
1512,000000	23,046000
1511,000000	22,992300
1510,000000	22,941000
1509,000000	22,879000
1508,000000	22,815300
1507,000000	22,744200
1506,000000	22,675700
1505,000000	22,618900
1504,000000	22,564700
1503,000000	22,501100
1502,000000	22,429900
1501,000000	22,370200
1500,000000	22,312600
1499,000000	22,257400
1498,000000	22,196600
1497,000000	22,142300
1496,000000	22,095200
1495,000000	22,051300
1494,000000	22,002800
1493,000000	21,956600
1492,000000	21,904000
1491,000000	21,857700
1490,000000	21,822500
1489,000000	21,772000
1488,000000	21,719400
1487,000000	21,689200
1486,000000	21,648800
1485,000000	21,613600
1484,000000	21,576400
1483,000000	21,537700
1482,000000	21,497900
1481,000000	21,471600
1480,000000	21,445300
1479,000000	21,414000
1478,000000	21,396100
1477,000000	21,369700
1476,000000	21,340600
1475,000000	21,332300
1474,000000	21,327500
1473,000000	21,322000
1472,000000	21,328000
1471,000000	21,321900
1470,000000	21,311500
1469,000000	21,298200
1468,000000	21,285400
1467,000000	21,297800
1466,000000	21,303000
1465,000000	21,308000
1464,000000	21,312100
1463,000000	21,320600
1462,000000	21,332300
1461,000000	21,355500
1460,000000	21,388400
1459,000000	21,413400
1458,000000	21,445600
1457,000000	21,473000
1456,000000	21,511700
1455,000000	21,561700
1454,000000	21,611800
1453,000000	21,648800
1452,000000	21,694700
1451,000000	21,764200
1450,000000	21,833000
1449,000000	21,866400
1448,000000	21,907600
1447,000000	21,967200
1446,000000	22,052700
1445,000000	22,131500
1444,000000	22,171000
1443,000000	22,227100
1442,000000	22,305700
1441,000000	22,389300
1440,000000	22,450700
1439,000000	22,517800
1438,000000	22,607100
1437,000000	22,694100
1436,000000	22,786700
1435,000000	22,860000
1434,000000	22,958800
1433,000000	23,069200
1432,000000	23,161000
1431,000000	23,271900
1430,000000	23,363700
1429,000000	23,487000
1428,000000	23,614400
1427,000000	23,732700
1426,000000	23,848300
1425,000000	23,992300
1424,000000	24,145900
1423,000000	24,304400
1422,000000	24,457400
1421,000000	24,611800
1420,000000	24,804100
1419,000000	24,998200
1418,000000	25,173500
1417,000000	25,338600
1416,000000	25,516600
1415,000000	25,736300
1414,000000	25,984300
1413,000000	26,225300
1412,000000	26,437800
1411,000000	26,652500
1410,000000	26,913600
1409,000000	27,215200
1408,000000	27,479600
1407,000000	27,800900
1406,000000	28,056400
1405,000000	28,369100
1404,000000	28,667300
1403,000000	29,017300
1402,000000	29,303400
1401,000000	29,630500
1400,000000	30,016100
1399,000000	30,359600
1398,000000	30,603100
1397,000000	30,865600
1396,000000	31,194000
1395,000000	31,617300
1394,000000	31,963100
1393,000000	32,213000
1392,000000	32,554500
1391,000000	32,886600
1390,000000	33,239500
1389,000000	33,553100
1388,000000	34,004900
1387,000000	34,415900
1386,000000	34,802400
1385,000000	35,239600
1384,000000	35,688600
1383,000000	36,121000
1382,000000	36,553600
1381,000000	36,962700
1380,000000	37,312300
1379,000000	37,538000
1378,000000	37,766200
1377,000000	37,933700
1376,000000	38,135100
1375,000000	38,320600
1374,000000	38,481400
1373,000000	38,705100
1372,000000	38,926100
1371,000000	39,179500
1370,000000	39,412400
1369,000000	39,627400
1368,000000	39,879000
1367,000000	40,059000
1366,000000	40,230700
1365,000000	40,388100
1364,000000	40,566000
1363,000000	40,689400
1362,000000	40,872600
1361,000000	40,994400
1360,000000	41,120900
1359,000000	41,120600
1358,000000	41,227800
1357,000000	41,316100
1356,000000	41,421900
1355,000000	41,589300
1354,000000	41,771300
1353,000000	42,013100
1352,000000	42,226400
1351,000000	42,485000
1350,000000	42,758800
1349,000000	43,048700
1348,000000	43,313000
1347,000000	43,568700
1346,000000	43,804200
1345,000000	44,018300
1344,000000	44,276400
1343,000000	44,517300
1342,000000	44,730300
1341,000000	44,940200
1340,000000	45,190700
1339,000000	45,419300
1338,000000	45,626400
1337,000000	45,866500
1336,000000	46,072100
1335,000000	46,274800
1334,000000	46,494100
1333,000000	46,699000
1332,000000	46,901100
1331,000000	47,106600
1330,000000	47,315900
1329,000000	47,502000
1328,000000	47,690600
1327,000000	47,872700
1326,000000	48,040800
1325,000000	48,216800
1324,000000	48,385200
1323,000000	48,545900
1322,000000	48,695700
1321,000000	48,847800
1320,000000	49,009100
1319,000000	49,167400
1318,000000	49,301200
1317,000000	49,453500
1316,000000	49,566400
1315,000000	49,694200
1314,000000	49,834900
1313,000000	49,958500
1312,000000	50,067600
1311,000000	50,173600
1310,000000	50,280600
1309,000000	50,385200
1308,000000	50,481700
1307,000000	50,574800
1306,000000	50,653400
1305,000000	50,731400
1304,000000	50,810900
1303,000000	50,885100
1302,000000	50,948900
1301,000000	51,011600
1300,000000	51,066500
1299,000000	51,134800
1298,000000	51,186600
1297,000000	51,226300
1296,000000	51,266100
1295,000000	51,307600
1294,000000	51,349600
1293,000000	51,373300
1292,000000	51,396400
1291,000000	51,424700
1290,000000	51,444100
1289,000000	51,451200
1288,000000	51,460200
1287,000000	51,453700
1286,000000	51,452400
1285,000000	51,457000
1284,000000	51,443100
1283,000000	51,417600
1282,000000	51,401300
1281,000000	51,385400
1280,000000	51,363500
1279,000000	51,343300
1278,000000	51,324300
1277,000000	51,306300
1276,000000	51,296100
1275,000000	51,271900
1274,000000	51,246000
1273,000000	51,237100
1272,000000	51,224800
1271,000000	51,207300
1270,000000	51,201000
1269,000000	51,195900
1268,000000	51,178100
1267,000000	51,151000
1266,000000	51,132900
1265,000000	51,107300
1264,000000	51,095600
1263,000000	51,074400
1262,000000	51,053100
1261,000000	51,033200
1260,000000	50,996200
1259,000000	50,974000
1258,000000	50,944900
1257,000000	50,909800
1256,000000	50,877400
1255,000000	50,838200
1254,000000	50,806100
1253,000000	50,781300
1252,000000	50,738000
1251,000000	50,698200
1250,000000	50,656800
1249,000000	50,597200
1248,000000	50,540600
1247,000000	50,484300
1246,000000	50,426700
1245,000000	50,372800
1244,000000	50,292200
1243,000000	50,209700
1242,000000	50,151000
1241,000000	50,084100
1240,000000	50,002200
1239,000000	49,922300
1238,000000	49,861100
1237,000000	49,781300
1236,000000	49,706000
1235,000000	49,631700
1234,000000	49,546500
1233,000000	49,478900
1232,000000	49,388200
1231,000000	49,299100
1230,000000	49,218000
1229,000000	49,122700
1228,000000	49,033500
1227,000000	48,940200
1226,000000	48,842100
1225,000000	48,743700
1224,000000	48,643400
1223,000000	48,529700
1222,000000	48,430200
1221,000000	48,337900
1220,000000	48,236700
1219,000000	48,140000
1218,000000	48,044400
1217,000000	47,950200
1216,000000	47,848000
1215,000000	47,745400
1214,000000	47,660500
1213,000000	47,578700
1212,000000	47,491600
1211,000000	47,412600
1210,000000	47,335700
1209,000000	47,252700
1208,000000	47,169100
1207,000000	47,100100
1206,000000	47,024900
1205,000000	46,960100
1204,000000	46,905400
1203,000000	46,839400
1202,000000	46,798600
1201,000000	46,763600
1200,000000	46,731100
1199,000000	46,682800
1198,000000	46,622100
1197,000000	46,547300
1196,000000	46,462000
1195,000000	46,362800
1194,000000	46,235500
1193,000000	46,073100
1192,000000	45,899200
1191,000000	45,699600
1190,000000	45,465600
1189,000000	45,231000
1188,000000	45,025800
1187,000000	44,859300
1186,000000	44,759600
1185,000000	44,717900
1184,000000	44,718800
1183,000000	44,806700
1182,000000	44,963800
1181,000000	45,194600
1180,000000	45,449500
1179,000000	45,729400
1178,000000	46,009200
1177,000000	46,254000
1176,000000	46,508000
1175,000000	46,733900
1174,000000	46,932700
1173,000000	47,123600
1172,000000	47,313100
1171,000000	47,513100
1170,000000	47,711300
1169,000000	47,924500
1168,000000	48,137000
1167,000000	48,357800
1166,000000	48,581700
1165,000000	48,821400
1164,000000	49,067400
1163,000000	49,318500
1162,000000	49,561000
1161,000000	49,815600
1160,000000	50,086400
1159,000000	50,342200
1158,000000	50,587200
1157,000000	50,844900
1156,000000	51,100100
1155,000000	51,326100
1154,000000	51,530600
1153,000000	51,721300
1152,000000	51,908300
1151,000000	52,062700
1150,000000	52,188100
1149,000000	52,324000
1148,000000	52,453600
1147,000000	52,588800
1146,000000	52,745700
1145,000000	52,924500
1144,000000	53,125600
1143,000000	53,344800
1142,000000	53,600200
1141,000000	53,877900
1140,000000	54,179400
1139,000000	54,480000
1138,000000	54,789500
1137,000000	55,107800
1136,000000	55,463100
1135,000000	55,830100
1134,000000	56,200900
1133,000000	56,535100
1132,000000	56,804700
1131,000000	57,081300
1130,000000	57,330700
1129,000000	57,561700
1128,000000	57,750200
1127,000000	57,924600
1126,000000	58,072900
1125,000000	58,198300
1124,000000	58,285000
1123,000000	58,379600
1122,000000	58,437400
1121,000000	58,500500
1120,000000	58,539200
1119,000000	58,568400
1118,000000	58,605000
1117,000000	58,617700
1116,000000	58,644800
1115,000000	58,645100
1114,000000	58,639900
1113,000000	58,657100
1112,000000	58,663000
1111,000000	58,649300
1110,000000	58,652500
1109,000000	58,637000
1108,000000	58,652000
1107,000000	58,654700
1106,000000	58,656900
1105,000000	58,657500
1104,000000	58,662700
1103,000000	58,653000
1102,000000	58,653400
1101,000000	58,651300
1100,000000	58,643200
1099,000000	58,646400
1098,000000	58,655200
1097,000000	58,637800
1096,000000	58,632000
1095,000000	58,638900
1094,000000	58,629600
1093,000000	58,623100
1092,000000	58,607100
1091,000000	58,600100
1090,000000	58,592700
1089,000000	58,590500
1088,000000	58,562900
1087,000000	58,535600
1086,000000	58,547500
1085,000000	58,539300
1084,000000	58,522100
1083,000000	58,503300
1082,000000	58,496000
1081,000000	58,492200
1080,000000	58,468400
1079,000000	58,458900
1078,000000	58,433500
1077,000000	58,426400
1076,000000	58,413400
1075,000000	58,407800
1074,000000	58,365400
1073,000000	58,356500
1072,000000	58,354000
1071,000000	58,346900
1070,000000	58,327800
1069,000000	58,290500
1068,000000	58,271800
1067,000000	58,258200
1066,000000	58,250100
1065,000000	58,217300
1064,000000	58,184400
1063,000000	58,176100
1062,000000	58,139200
1061,000000	58,111100
1060,000000	58,084300
1059,000000	58,065900
1058,000000	58,058200
1057,000000	57,997700
1056,000000	57,973000
1055,000000	57,935200
1054,000000	57,906100
1053,000000	57,867200
1052,000000	57,829000
1051,000000	57,818200
1050,000000	57,783600
1049,000000	57,753900
1048,000000	57,719200
1047,000000	57,707500
1046,000000	57,657900
1045,000000	57,642500
1044,000000	57,621400
1043,000000	57,590700
1042,000000	57,556700
1041,000000	57,529400
1040,000000	57,512400
1039,000000	57,496900
1038,000000	57,466800
1037,000000	57,427700
1036,000000	57,424400
1035,000000	57,394800
1034,000000	57,371500
1033,000000	57,365700
1032,000000	57,336800
1031,000000	57,315900
1030,000000	57,299100
1029,000000	57,270700
1028,000000	57,262300
1027,000000	57,255000
1026,000000	57,225000
1025,000000	57,219700
1024,000000	57,194200
1023,000000	57,173000
1022,000000	57,170000
1021,000000	57,153000
1020,000000	57,134000
1019,000000	57,136000
1018,000000	57,125400
1017,000000	57,133600
1016,000000	57,135600
1015,000000	57,143700
1014,000000	57,172000
1013,000000	57,195100
1012,000000	57,207600
1011,000000	57,254400
1010,000000	57,299200
1009,000000	57,340700
1008,000000	57,401000
1007,000000	57,453200
1006,000000	57,516800
1005,000000	57,582400
1004,000000	57,647800
1003,000000	57,722900
1002,000000	57,801800
1001,000000	57,861000
1000,000000	57,932200
999,000000	58,020100
998,000000	58,102600
997,000000	58,172600
996,000000	58,235500
995,000000	58,325800
994,000000	58,415800
993,000000	58,489900
992,000000	58,586400
991,000000	58,660500
990,000000	58,751100
989,000000	58,841100
988,000000	58,923700
987,000000	59,022500
986,000000	59,107300
985,000000	59,192800
984,000000	59,279500
983,000000	59,380000
982,000000	59,467700
981,000000	59,575200
980,000000	59,653800
979,000000	59,752900
978,000000	59,846800
977,000000	59,925400
976,000000	60,014900
975,000000	60,098900
974,000000	60,174000
973,000000	60,258000
972,000000	60,353100
971,000000	60,433200
970,000000	60,517300
969,000000	60,613900
968,000000	60,692200
967,000000	60,807800
966,000000	60,928300
965,000000	61,027900
964,000000	61,155700
963,000000	61,289000
962,000000	61,415100
961,000000	61,569200
960,000000	61,728900
959,000000	61,890000
958,000000	62,055700
957,000000	62,222800
956,000000	62,398000
955,000000	62,585400
954,000000	62,755300
953,000000	62,931400
952,000000	63,133800
951,000000	63,335700
950,000000	63,525400
949,000000	63,713500
948,000000	63,908800
947,000000	64,102900
946,000000	64,282700
945,000000	64,479200
944,000000	64,684600
943,000000	64,862500
942,000000	65,040200
941,000000	65,229200
940,000000	65,417000
939,000000	65,604900
938,000000	65,784300
937,000000	65,954600
936,000000	66,127100
935,000000	66,311400
934,000000	66,475700
933,000000	66,624500
932,000000	66,789700
931,000000	66,943000
930,000000	67,088700
929,000000	67,207500
928,000000	67,326300
927,000000	67,446300
926,000000	67,570100
925,000000	67,692500
924,000000	67,789500
923,000000	67,900000
922,000000	68,021300
921,000000	68,126400
920,000000	68,228500
919,000000	68,357900
918,000000	68,476800
917,000000	68,580200
916,000000	68,688700
915,000000	68,820600
914,000000	68,953300
913,000000	69,077300
912,000000	69,222100
911,000000	69,356200
910,000000	69,490400
909,000000	69,639900
908,000000	69,803600
907,000000	69,963200
906,000000	70,149500
905,000000	70,333300
904,000000	70,533200
903,000000	70,745000
902,000000	70,959700
901,000000	71,195100
900,000000	71,440300
899,000000	71,681300
898,000000	71,930800
897,000000	72,187500
896,000000	72,437200
895,000000	72,714300
894,000000	72,976400
893,000000	73,245700
892,000000	73,488900
891,000000	73,754900
890,000000	73,987700
889,000000	74,204200
888,000000	74,425400
887,000000	74,650400
886,000000	74,865300
885,000000	75,056000
884,000000	75,247800
883,000000	75,424700
882,000000	75,594500
881,000000	75,760300
880,000000	75,928400
879,000000	76,075400
878,000000	76,204700
877,000000	76,336200
876,000000	76,447900
875,000000	76,543900
874,000000	76,619100
873,000000	76,709300
872,000000	76,734100
871,000000	76,754300
870,000000	76,831900
869,000000	76,994300
868,000000	77,170100
867,000000	77,397400
866,000000	77,602200
865,000000	77,787900
864,000000	77,998300
863,000000	78,208400
862,000000	78,417100
861,000000	78,615300
860,000000	78,843900
859,000000	79,031300
858,000000	79,248300
857,000000	81,276500
856,000000	81,601700
855,000000	81,714500
854,000000	82,196400
853,000000	82,633400
852,000000	82,890500
851,000000	82,945400
850,000000	83,782000
849,000000	83,582500
848,000000	83,892300
847,000000	84,399200
846,000000	84,913400
845,000000	84,831400
844,000000	85,480400
843,000000	85,592700
842,000000	85,962000
841,000000	86,386700
840,000000	86,884400
839,000000	87,149500
838,000000	87,346700
837,000000	87,663800
836,000000	88,111300
835,000000	88,523900
834,000000	88,794500
833,000000	89,135000
832,000000	89,514300
831,000000	89,535500
830,000000	90,046300
829,000000	90,169800
828,000000	90,082700
827,000000	90,460700
826,000000	90,788000
825,000000	91,059100
824,000000	91,183000
823,000000	91,497100
822,000000	91,381600
821,000000	91,756200
820,000000	91,722400
819,000000	91,856100
818,000000	91,889300
817,000000	92,091500
816,000000	91,833300
815,000000	92,110300
814,000000	92,161200
813,000000	92,306800
812,000000	92,303200
811,000000	92,193300
810,000000	92,075500
809,000000	92,108400
808,000000	91,938900
807,000000	91,842100
806,000000	91,863700
805,000000	91,792100
804,000000	91,848700
803,000000	91,573200
802,000000	91,644700
801,000000	91,500900
800,000000	91,286900
799,000000	91,212400
798,000000	91,146300
797,000000	91,014700
796,000000	91,002500
795,000000	90,808500
794,000000	90,745100
793,000000	90,836200
792,000000	90,857500
791,000000	90,646000
790,000000	90,640800
789,000000	90,492900
788,000000	90,217000
787,000000	90,534400
786,000000	90,334200
785,000000	90,444100
784,000000	90,383600
783,000000	90,260800
782,000000	90,288800
781,000000	90,166700
780,000000	90,201700
779,000000	90,233700
778,000000	90,105900
777,000000	90,097100
776,000000	90,149200
775,000000	90,040800
774,000000	90,103500
773,000000	89,963100
772,000000	90,037000
771,000000	90,111600
770,000000	89,940600
769,000000	90,045200
768,000000	89,998700
767,000000	89,840100
766,000000	89,859600
765,000000	89,928700
764,000000	89,752100
763,000000	89,666200
762,000000	89,637800
761,000000	89,504600
760,000000	89,420900
759,000000	89,361500
758,000000	89,129300
757,000000	89,018400
756,000000	88,822000
755,000000	88,676200
754,000000	88,476000
753,000000	88,215500
752,000000	87,923900
751,000000	87,640300
750,000000	87,450000
749,000000	87,212100
748,000000	86,928000
747,000000	86,665500
746,000000	86,246500
745,000000	86,024100
744,000000	85,491000
743,000000	85,174100
742,000000	84,781900
741,000000	84,344900
740,000000	83,859400
739,000000	83,366700
738,000000	82,860500
737,000000	82,328500
736,000000	81,804800
735,000000	81,270100
734,000000	80,802400
733,000000	80,226300
732,000000	79,577600
731,000000	79,127500
730,000000	78,458100
729,000000	77,875300
728,000000	77,319700
727,000000	76,659100
726,000000	76,048000
725,000000	75,453400
724,000000	74,792600
723,000000	74,230000
722,000000	73,688400
721,000000	73,108800
720,000000	72,603700
719,000000	72,079500
718,000000	71,568800
717,000000	71,177500
716,000000	70,778100
715,000000	70,426200
714,000000	70,056400
713,000000	69,727000
712,000000	69,573700
711,000000	69,339900
710,000000	69,247900
709,000000	69,186900
708,000000	69,193700
707,000000	69,234900
706,000000	69,343900
705,000000	69,381300
704,000000	69,550600
703,000000	69,632500
702,000000	69,830400
701,000000	70,034400
700,000000	70,247000
699,000000	70,464800
698,000000	70,698000
697,000000	70,892700
696,000000	71,115600
695,000000	71,336200
694,000000	71,574700
693,000000	71,727200
692,000000	71,880600
691,000000	72,082900
690,000000	72,307700
689,000000	72,512400
688,000000	72,709900
687,000000	72,802000
686,000000	72,908500
685,000000	72,989600
684,000000	73,070500
683,000000	73,084200
682,000000	73,110800
681,000000	73,024200
680,000000	72,901700
679,000000	72,819100
678,000000	72,643200
677,000000	72,455500
676,000000	72,276800
675,000000	72,093500
674,000000	71,867900
673,000000	71,655900
672,000000	71,381500
671,000000	71,102900
670,000000	70,784600
669,000000	70,445100
668,000000	70,060100
667,000000	69,636600
666,000000	69,124500
665,000000	68,561300
664,000000	67,905300
663,000000	67,189100
662,000000	66,404600
661,000000	65,613500
660,000000	64,811900
659,000000	63,910400
658,000000	62,962500
657,000000	62,015400
656,000000	61,066900
655,000000	60,113000
654,000000	59,120800
653,000000	58,170800
652,000000	57,256700
651,000000	56,361300
650,000000	55,553700
649,000000	54,802800
648,000000	54,116300
647,000000	53,546700
646,000000	53,045700
645,000000	52,663800
644,000000	52,440600
643,000000	52,308000
642,000000	52,318900
641,000000	52,534100
640,000000	52,901200
639,000000	53,413100
638,000000	54,105800
637,000000	54,958100
636,000000	55,979900
635,000000	57,096000
634,000000	58,336300
633,000000	59,694000
632,000000	61,114900
631,000000	62,597200
630,000000	64,105700
629,000000	65,632600
628,000000	67,110900
627,000000	68,528900
626,000000	69,940600
625,000000	71,328100
624,000000	72,611900
623,000000	73,876400
622,000000	75,087100
621,000000	76,242000
620,000000	77,303800
619,000000	78,270500
618,000000	79,217700
617,000000	80,064900
616,000000	80,886300
615,000000	81,713100
614,000000	82,449400
613,000000	83,111900
612,000000	83,774300
611,000000	84,402400
610,000000	84,918900
609,000000	85,366900
608,000000	85,814900
607,000000	86,231600
606,000000	86,595400
605,000000	86,876900
604,000000	87,151800
603,000000	87,360800
602,000000	87,547000
601,000000	87,703700
600,000000	87,833200
599,000000	87,919400
598,000000	88,002200
597,000000	88,061200
596,000000	88,106000
595,000000	88,093000
594,000000	88,099400
593,000000	88,111800
592,000000	88,068600
591,000000	87,983300
590,000000	87,888200
589,000000	87,839800
588,000000	87,771900
587,000000	87,684900
586,000000	87,552400
585,000000	87,407100
584,000000	87,307100
583,000000	87,129200
582,000000	86,960400
581,000000	86,798200
580,000000	86,574900
579,000000	86,363800
578,000000	86,162700
577,000000	85,953600
576,000000	85,684300
575,000000	85,450200
574,000000	85,198600
573,000000	84,915800
572,000000	84,607800
571,000000	84,292500
570,000000	83,929300
569,000000	83,612700
568,000000	83,232600
567,000000	82,833100
566,000000	82,432500
565,000000	82,026900
564,000000	81,582100
563,000000	81,105700
562,000000	80,634200
561,000000	80,158300
560,000000	79,681300
559,000000	79,201000
558,000000	78,721700
557,000000	78,216700
556,000000	77,706200
555,000000	77,161800
554,000000	76,607600
553,000000	76,063400
552,000000	75,508700
551,000000	74,907600
550,000000	74,291100
549,000000	73,635400
548,000000	72,948600
547,000000	72,268700
546,000000	71,536500
545,000000	70,746100
544,000000	69,922600
543,000000	69,087300
542,000000	68,178300
541,000000	67,241300
540,000000	66,223600
539,000000	65,176700
538,000000	64,099600
537,000000	62,995600
536,000000	61,837900
535,000000	60,652300
534,000000	59,454400
533,000000	58,248300
532,000000	57,017600
531,000000	55,770100
530,000000	54,533100
529,000000	53,313200
528,000000	52,149300
527,000000	51,041400
526,000000	49,942900
525,000000	48,883700
524,000000	47,873100
523,000000	46,884300
522,000000	45,950600
521,000000	45,116800
520,000000	44,278200
519,000000	43,550600
518,000000	42,845200
517,000000	42,163900
516,000000	41,539900
515,000000	40,935200
514,000000	40,347400
513,000000	39,813100
512,000000	39,284800
511,000000	38,781400
510,000000	38,280000
509,000000	37,782900
508,000000	37,255700
507,000000	36,781500
506,000000	36,234600
505,000000	35,715600
504,000000	35,211700
503,000000	34,672700
502,000000	34,137300
501,000000	33,569400
500,000000	33,010500
499,000000	32,507900
498,000000	31,985100
497,000000	31,437200
496,000000	30,914400
495,000000	30,465200
494,000000	29,976000
493,000000	29,547800
492,000000	29,142300
491,000000	28,805200
490,000000	28,492800
489,000000	28,226000
488,000000	28,012900
487,000000	27,834800
486,000000	27,739500
485,000000	27,633600
484,000000	27,557900
483,000000	27,575100
482,000000	27,605000
481,000000	27,566600
480,000000	27,588500
479,000000	27,635800
478,000000	27,696500
477,000000	27,719400
476,000000	27,801300
475,000000	27,864700
474,000000	27,902000
473,000000	27,934300
472,000000	27,956200
471,000000	27,985800
470,000000	27,999100
469,000000	27,985400
468,000000	27,979200
467,000000	27,915800
466,000000	27,885000
465,000000	27,869600
464,000000	27,756700
463,000000	27,694100
462,000000	27,597700
461,000000	27,502100
460,000000	27,381400
459,000000	27,262500
458,000000	27,187700
457,000000	27,059000
456,000000	26,882800
455,000000	26,706700
454,000000	26,570800
453,000000	26,409900
452,000000	26,240600
451,000000	26,016800
450,000000	25,834800
449,000000	25,600100
448,000000	25,369200
447,000000	25,117600
446,000000	24,893300
445,000000	24,607100
444,000000	24,359800
443,000000	24,035900
442,000000	23,741100
441,000000	23,391700
440,000000	23,031700
439,000000	22,683200
438,000000	22,292700
437,000000	21,938900
436,000000	21,517400
435,000000	21,085700
434,000000	20,645100
433,000000	20,185700
432,000000	19,734300
431,000000	19,245600
430,000000	18,771600
429,000000	18,247200
428,000000	17,749200
427,000000	17,256000
426,000000	16,721500
425,000000	16,219400
424,000000	15,695700
423,000000	15,194600
422,000000	14,685800
421,000000	14,145300
420,000000	13,672700
419,000000	13,213300
418,000000	12,788800
417,000000	12,317100
416,000000	11,915300
415,000000	11,524600
414,000000	11,127400
413,000000	10,778300
412,000000	10,437700
411,000000	10,101400
410,000000	9,829200
409,000000	9,558400
408,000000	9,297900
407,000000	9,077600
406,000000	8,854700
405,000000	8,656100
404,000000	8,475200
403,000000	8,320600
402,000000	8,186200
401,000000	8,038800
400,000000	7,916000
399,000000	7,806600
398,000000	7,697200
397,000000	7,608500
396,000000	7,542200
395,000000	7,449300
394,000000	7,356800
393,000000	7,289100
392,000000	7,218100
391,000000	7,157100
390,000000	7,091900
389,000000	7,040000
388,000000	6,998000
387,000000	6,917400
386,000000	6,875900
385,000000	6,854500
384,000000	6,788300
383,000000	6,739500
382,000000	6,703800
381,000000	6,657800
380,000000	6,622800
379,000000	6,583800
378,000000	6,517700
377,000000	6,467900
376,000000	6,465700
375,000000	6,403600
374,000000	6,379100
373,000000	6,459900
372,000000	6,307900
371,000000	6,318600
370,000000	6,273200
369,000000	6,237500
368,000000	6,187000
367,000000	6,179400
366,000000	6,181300
365,000000	6,106900
364,000000	6,092800
363,000000	6,027000
362,000000	5,979600
361,000000	5,988900
360,000000	5,948700
359,000000	5,830300
358,000000	5,912600
357,000000	5,909100
356,000000	5,814300
355,000000	5,794400
354,000000	5,734800
353,000000	5,729000
352,000000	5,718900
351,000000	5,676200
350,000000	5,624200
349,000000	5,690500
348,000000	5,632500
347,000000	5,631400
346,000000	5,621300
345,000000	5,659500
344,000000	5,784900
343,000000	5,660900
342,000000	5,428300
341,000000	5,602500
340,000000	5,627000
339,000000	5,568600
338,000000	5,630600
337,000000	5,653800
336,000000	5,739600
335,000000	5,660300
334,000000	5,430700
333,000000	5,497100
332,000000	5,667700
331,000000	5,588600
330,000000	5,530400
329,000000	5,588800
328,000000	5,618900
327,000000	5,701900
326,000000	5,707400
325,000000	5,541800
324,000000	5,510200
323,000000	5,512300
322,000000	5,246900
321,000000	5,583500
320,000000	5,925100
319,000000	5,803200
318,000000	5,802900
317,000000	5,650400
316,000000	5,542700
315,000000	5,527800
314,000000	5,478000
313,000000	5,480200
312,000000	5,491300
311,000000	5,523500
310,000000	5,524100
309,000000	5,530800
308,000000	5,549200
307,000000	5,520100
306,000000	5,513300
305,000000	5,485500
304,000000	5,524000
303,000000	5,565700
302,000000	5,530800
301,000000	5,526000
300,000000	5,514200
299,000000	5,519200
298,000000	5,561100
297,000000	5,561800
296,000000	5,568000
295,000000	5,599500
294,000000	5,590000
293,000000	5,596900
292,000000	5,586700
291,000000	5,591200
290,000000	5,576800
289,000000	5,585600
288,000000	5,577400
287,000000	5,589000
286,000000	5,607600
285,000000	5,619800
284,000000	5,653700
283,000000	5,638700
282,000000	5,623500
281,000000	5,618900
280,000000	5,644900
279,000000	5,647200
278,000000	5,679000
277,000000	5,689200
276,000000	5,684600
275,000000	5,706200
274,000000	5,718200
273,000000	5,725000
272,000000	5,740900
271,000000	5,741300
270,000000	5,769200
269,000000	5,795000
268,000000	5,805600
267,000000	5,799000
266,000000	5,828300
265,000000	5,872700
264,000000	5,918500
263,000000	5,935100
262,000000	5,932100
261,000000	5,967100
260,000000	5,999900
259,000000	5,963800
258,000000	6,005600
257,000000	6,011900
256,000000	6,025900
255,000000	6,059800
254,000000	6,084400
253,000000	6,047700
252,000000	6,075700
251,000000	6,108500
250,000000	6,086800
