PE UV       SUBTECH     SPECTRUM    ASCII       PEDS        4.00        
   -1
CICIMAUCR0204-3.Sample.ASC
24/05/31
16:34:21.00
24/05/31
16:34:21.00
Vinicio Soto Monge
C. cupreomarginata. Sex M. Dorsal
250,000000
1
Lambda 1050
1050L1511233
PerkinElmer UV WinLab 6.3.2.0749 / 2.02.05 Lambda 900 UV/VIS/NIR, Aug  7 2015 09:38:08

0
0
3350/servo 860,8/2
0
0
UV/VIS
1
1
1
DoubleDePol,CommonBeamDepol,RBeamAtt,SBeamAtt,60mm sphere, WB InGaAs Detector
0
0
0
0
Program
Program
3350/servo 860,8/2
3350/0,2 860,8/0,2
3350/0,2 860,8/0,2
0
15.00
 
 
 
0
 
860,8
319,2
860,8
Front
100
on
S:100 R:100
0
0
0
0
 
0
 
 
 
0
 
 
0
0
0
0
0
 
 
 
 
0
0


0
0
#HDR
-1
-1
#GR
nm
%R
1.0
0.0
2500,000000
-1,000000
2251
8
68,833200
5,187100
#DATA
2500,000000	11,757100
2499,000000	11,777900
2498,000000	11,853000
2497,000000	11,738600
2496,000000	11,736300
2495,000000	11,734200
2494,000000	11,622100
2493,000000	11,727600
2492,000000	11,566500
2491,000000	11,594600
2490,000000	11,599700
2489,000000	11,607300
2488,000000	11,568000
2487,000000	11,619300
2486,000000	11,615000
2485,000000	11,507900
2484,000000	11,571000
2483,000000	11,603700
2482,000000	11,610500
2481,000000	11,527300
2480,000000	11,586100
2479,000000	11,653200
2478,000000	11,603200
2477,000000	11,615900
2476,000000	11,570800
2475,000000	11,671600
2474,000000	11,653400
2473,000000	11,670600
2472,000000	11,654000
2471,000000	11,694900
2470,000000	11,684300
2469,000000	11,690800
2468,000000	11,687400
2467,000000	11,723800
2466,000000	11,735400
2465,000000	11,763800
2464,000000	11,779900
2463,000000	11,857700
2462,000000	11,878100
2461,000000	11,906600
2460,000000	11,973600
2459,000000	12,040100
2458,000000	12,127000
2457,000000	12,167600
2456,000000	12,271100
2455,000000	12,361300
2454,000000	12,399100
2453,000000	12,493700
2452,000000	12,586400
2451,000000	12,695400
2450,000000	12,779400
2449,000000	12,857700
2448,000000	12,958600
2447,000000	13,063100
2446,000000	13,182400
2445,000000	13,263500
2444,000000	13,343400
2443,000000	13,469200
2442,000000	13,546800
2441,000000	13,660400
2440,000000	13,746600
2439,000000	13,833300
2438,000000	13,949300
2437,000000	14,029200
2436,000000	14,117400
2435,000000	14,197700
2434,000000	14,266000
2433,000000	14,335600
2432,000000	14,416400
2431,000000	14,491600
2430,000000	14,567500
2429,000000	14,623300
2428,000000	14,681700
2427,000000	14,759600
2426,000000	14,816700
2425,000000	14,869100
2424,000000	14,935600
2423,000000	14,975200
2422,000000	15,022000
2421,000000	15,064800
2420,000000	15,123400
2419,000000	15,168100
2418,000000	15,220400
2417,000000	15,257000
2416,000000	15,299100
2415,000000	15,343600
2414,000000	15,387800
2413,000000	15,411800
2412,000000	15,453900
2411,000000	15,486300
2410,000000	15,536700
2409,000000	15,564300
2408,000000	15,590900
2407,000000	15,634800
2406,000000	15,669900
2405,000000	15,702700
2404,000000	15,732900
2403,000000	15,769700
2402,000000	15,809600
2401,000000	15,839400
2400,000000	15,870700
2399,000000	15,907200
2398,000000	15,956400
2397,000000	16,018200
2396,000000	16,048400
2395,000000	16,070900
2394,000000	16,084700
2393,000000	16,112800
2392,000000	16,147400
2391,000000	16,184600
2390,000000	16,208800
2389,000000	16,231100
2388,000000	16,245600
2387,000000	16,268600
2386,000000	16,280900
2385,000000	16,290600
2384,000000	16,299200
2383,000000	16,305700
2382,000000	16,312200
2381,000000	16,309300
2380,000000	16,311400
2379,000000	16,295500
2378,000000	16,281200
2377,000000	16,276400
2376,000000	16,262300
2375,000000	16,246000
2374,000000	16,228000
2373,000000	16,206300
2372,000000	16,166300
2371,000000	16,139000
2370,000000	16,113000
2369,000000	16,067100
2368,000000	16,033600
2367,000000	16,004300
2366,000000	15,952200
2365,000000	15,900300
2364,000000	15,844200
2363,000000	15,770900
2362,000000	15,704200
2361,000000	15,636200
2360,000000	15,570300
2359,000000	15,500700
2358,000000	15,432300
2357,000000	15,388900
2356,000000	15,332700
2355,000000	15,276800
2354,000000	15,242500
2353,000000	15,210000
2352,000000	15,191300
2351,000000	15,183600
2350,000000	15,190700
2349,000000	15,199100
2348,000000	15,211600
2347,000000	15,239500
2346,000000	15,285700
2345,000000	15,350700
2344,000000	15,399000
2343,000000	15,426700
2342,000000	15,469200
2341,000000	15,520200
2340,000000	15,552900
2339,000000	15,583400
2338,000000	15,615900
2337,000000	15,627800
2336,000000	15,636900
2335,000000	15,635100
2334,000000	15,629500
2333,000000	15,599400
2332,000000	15,563300
2331,000000	15,513000
2330,000000	15,466800
2329,000000	15,416000
2328,000000	15,345600
2327,000000	15,277500
2326,000000	15,207500
2325,000000	15,127100
2324,000000	15,022600
2323,000000	14,918000
2322,000000	14,814300
2321,000000	14,696900
2320,000000	14,574200
2319,000000	14,440600
2318,000000	14,294700
2317,000000	14,147500
2316,000000	14,006100
2315,000000	13,860700
2314,000000	13,719800
2313,000000	13,560500
2312,000000	13,419800
2311,000000	13,297200
2310,000000	13,185600
2309,000000	13,084400
2308,000000	13,028400
2307,000000	12,959600
2306,000000	12,922700
2305,000000	12,920800
2304,000000	12,915900
2303,000000	12,941100
2302,000000	13,015700
2301,000000	13,074000
2300,000000	13,150100
2299,000000	13,249400
2298,000000	13,359300
2297,000000	13,470300
2296,000000	13,574800
2295,000000	13,692800
2294,000000	13,782200
2293,000000	13,878000
2292,000000	13,956000
2291,000000	14,020500
2290,000000	14,086300
2289,000000	14,124400
2288,000000	14,139300
2287,000000	14,149200
2286,000000	14,139200
2285,000000	14,137500
2284,000000	14,075000
2283,000000	14,037600
2282,000000	13,999700
2281,000000	13,940400
2280,000000	13,872300
2279,000000	13,802600
2278,000000	13,743000
2277,000000	13,677200
2276,000000	13,613400
2275,000000	13,573900
2274,000000	13,527700
2273,000000	13,490400
2272,000000	13,433700
2271,000000	13,442400
2270,000000	13,462800
2269,000000	13,511400
2268,000000	13,536300
2267,000000	13,624100
2266,000000	13,696800
2265,000000	13,824200
2264,000000	13,987100
2263,000000	14,166100
2262,000000	14,368800
2261,000000	14,591100
2260,000000	14,823200
2259,000000	15,103800
2258,000000	15,354700
2257,000000	15,628300
2256,000000	15,907900
2255,000000	16,196500
2254,000000	16,474900
2253,000000	16,743500
2252,000000	17,006300
2251,000000	17,289500
2250,000000	17,523000
2249,000000	17,746700
2248,000000	17,961000
2247,000000	18,165100
2246,000000	18,365600
2245,000000	18,520700
2244,000000	18,690300
2243,000000	18,839900
2242,000000	18,987700
2241,000000	19,103800
2240,000000	19,209600
2239,000000	19,317500
2238,000000	19,428700
2237,000000	19,523800
2236,000000	19,601000
2235,000000	19,663000
2234,000000	19,720400
2233,000000	19,780500
2232,000000	19,823300
2231,000000	19,847300
2230,000000	19,896700
2229,000000	19,928300
2228,000000	19,941800
2227,000000	19,958000
2226,000000	19,964100
2225,000000	19,958600
2224,000000	19,921500
2223,000000	19,918400
2222,000000	19,894900
2221,000000	19,877200
2220,000000	19,848900
2219,000000	19,834900
2218,000000	19,807400
2217,000000	19,746700
2216,000000	19,719400
2215,000000	19,666700
2214,000000	19,647000
2213,000000	19,607900
2212,000000	19,579300
2211,000000	19,538500
2210,000000	19,496800
2209,000000	19,472500
2208,000000	19,449000
2207,000000	19,422200
2206,000000	19,402300
2205,000000	19,378800
2204,000000	19,362900
2203,000000	19,317500
2202,000000	19,288600
2201,000000	19,271700
2200,000000	19,262400
2199,000000	19,260800
2198,000000	19,237400
2197,000000	19,218500
2196,000000	19,214100
2195,000000	19,216700
2194,000000	19,185400
2193,000000	19,185100
2192,000000	19,142300
2191,000000	19,150800
2190,000000	19,129300
2189,000000	19,133100
2188,000000	19,103000
2187,000000	19,077900
2186,000000	19,073100
2185,000000	19,057900
2184,000000	19,047400
2183,000000	19,030400
2182,000000	19,015300
2181,000000	18,995100
2180,000000	18,988000
2179,000000	18,971700
2178,000000	18,976800
2177,000000	18,942500
2176,000000	18,936900
2175,000000	18,940600
2174,000000	18,930600
2173,000000	18,927500
2172,000000	18,936200
2171,000000	18,956600
2170,000000	18,959800
2169,000000	18,964500
2168,000000	18,966800
2167,000000	18,984600
2166,000000	19,006600
2165,000000	19,039200
2164,000000	19,049100
2163,000000	19,080700
2162,000000	19,113000
2161,000000	19,142100
2160,000000	19,155400
2159,000000	19,211800
2158,000000	19,255800
2157,000000	19,294700
2156,000000	19,330700
2155,000000	19,375300
2154,000000	19,441000
2153,000000	19,498500
2152,000000	19,554100
2151,000000	19,579500
2150,000000	19,633700
2149,000000	19,688900
2148,000000	19,732400
2147,000000	19,808300
2146,000000	19,842700
2145,000000	19,889900
2144,000000	19,947200
2143,000000	19,992000
2142,000000	20,013900
2141,000000	20,072000
2140,000000	20,113300
2139,000000	20,145200
2138,000000	20,204100
2137,000000	20,234900
2136,000000	20,241800
2135,000000	20,267600
2134,000000	20,314300
2133,000000	20,351200
2132,000000	20,360200
2131,000000	20,374500
2130,000000	20,384500
2129,000000	20,412200
2128,000000	20,431900
2127,000000	20,432000
2126,000000	20,432500
2125,000000	20,431500
2124,000000	20,424000
2123,000000	20,409100
2122,000000	20,413900
2121,000000	20,418100
2120,000000	20,399000
2119,000000	20,370100
2118,000000	20,352700
2117,000000	20,339000
2116,000000	20,315300
2115,000000	20,302100
2114,000000	20,264300
2113,000000	20,230100
2112,000000	20,220300
2111,000000	20,179400
2110,000000	20,152400
2109,000000	20,131800
2108,000000	20,088900
2107,000000	20,054300
2106,000000	20,021400
2105,000000	19,975000
2104,000000	19,949000
2103,000000	19,926200
2102,000000	19,879700
2101,000000	19,841900
2100,000000	19,811900
2099,000000	19,783200
2098,000000	19,741600
2097,000000	19,708800
2096,000000	19,685800
2095,000000	19,646400
2094,000000	19,607200
2093,000000	19,582200
2092,000000	19,551400
2091,000000	19,524600
2090,000000	19,509700
2089,000000	19,482600
2088,000000	19,443200
2087,000000	19,416100
2086,000000	19,398100
2085,000000	19,368300
2084,000000	19,336800
2083,000000	19,296000
2082,000000	19,254900
2081,000000	19,222400
2080,000000	19,177600
2079,000000	19,136600
2078,000000	19,093600
2077,000000	19,035000
2076,000000	18,982200
2075,000000	18,927600
2074,000000	18,875300
2073,000000	18,826500
2072,000000	18,773000
2071,000000	18,706300
2070,000000	18,643700
2069,000000	18,597900
2068,000000	18,540400
2067,000000	18,470900
2066,000000	18,416400
2065,000000	18,359700
2064,000000	18,287900
2063,000000	18,230100
2062,000000	18,198800
2061,000000	18,154700
2060,000000	18,093300
2059,000000	18,060500
2058,000000	18,034100
2057,000000	18,005700
2056,000000	17,987100
2055,000000	17,983200
2054,000000	17,996700
2053,000000	18,005600
2052,000000	18,030200
2051,000000	18,062800
2050,000000	18,111400
2049,000000	18,152500
2048,000000	18,226200
2047,000000	18,297900
2046,000000	18,379500
2045,000000	18,454600
2044,000000	18,534400
2043,000000	18,629900
2042,000000	18,728700
2041,000000	18,817200
2040,000000	18,901400
2039,000000	18,989000
2038,000000	19,066900
2037,000000	19,163600
2036,000000	19,241900
2035,000000	19,300300
2034,000000	19,370100
2033,000000	19,434900
2032,000000	19,480800
2031,000000	19,537900
2030,000000	19,591500
2029,000000	19,630700
2028,000000	19,668100
2027,000000	19,713900
2026,000000	19,737700
2025,000000	19,773200
2024,000000	19,801900
2023,000000	19,825800
2022,000000	19,843100
2021,000000	19,869000
2020,000000	19,898600
2019,000000	19,911300
2018,000000	19,926700
2017,000000	19,931600
2016,000000	19,923200
2015,000000	19,919800
2014,000000	19,911300
2013,000000	19,906800
2012,000000	19,897500
2011,000000	19,876800
2010,000000	19,856900
2009,000000	19,827400
2008,000000	19,807200
2007,000000	19,781400
2006,000000	19,723600
2005,000000	19,692600
2004,000000	19,652900
2003,000000	19,604500
2002,000000	19,553000
2001,000000	19,509300
2000,000000	19,458400
1999,000000	19,385500
1998,000000	19,315100
1997,000000	19,249400
1996,000000	19,193900
1995,000000	19,104900
1994,000000	19,037100
1993,000000	18,948400
1992,000000	18,860600
1991,000000	18,791700
1990,000000	18,719000
1989,000000	18,628900
1988,000000	18,528900
1987,000000	18,443900
1986,000000	18,354200
1985,000000	18,262600
1984,000000	18,174600
1983,000000	18,084000
1982,000000	17,984300
1981,000000	17,887300
1980,000000	17,780300
1979,000000	17,696200
1978,000000	17,596200
1977,000000	17,499900
1976,000000	17,410300
1975,000000	17,303700
1974,000000	17,225600
1973,000000	17,134500
1972,000000	17,033200
1971,000000	16,959300
1970,000000	16,846000
1969,000000	16,758500
1968,000000	16,692600
1967,000000	16,595400
1966,000000	16,499700
1965,000000	16,430700
1964,000000	16,339200
1963,000000	16,249900
1962,000000	16,157000
1961,000000	16,091500
1960,000000	15,994900
1959,000000	15,927400
1958,000000	15,836400
1957,000000	15,755300
1956,000000	15,676600
1955,000000	15,596800
1954,000000	15,510400
1953,000000	15,461700
1952,000000	15,401400
1951,000000	15,315100
1950,000000	15,245300
1949,000000	15,163400
1948,000000	15,131800
1947,000000	15,068100
1946,000000	15,018100
1945,000000	14,947800
1944,000000	14,907100
1943,000000	14,876200
1942,000000	14,827600
1941,000000	14,790400
1940,000000	14,773700
1939,000000	14,774900
1938,000000	14,750300
1937,000000	14,774900
1936,000000	14,764200
1935,000000	14,759600
1934,000000	14,785700
1933,000000	14,805900
1932,000000	14,864900
1931,000000	14,877200
1930,000000	14,937200
1929,000000	15,032900
1928,000000	15,096200
1927,000000	15,203600
1926,000000	15,314200
1925,000000	15,403600
1924,000000	15,502900
1923,000000	15,614200
1922,000000	15,714200
1921,000000	15,888300
1920,000000	16,093600
1919,000000	16,259100
1918,000000	16,414700
1917,000000	16,570000
1916,000000	16,735200
1915,000000	16,864100
1914,000000	17,042600
1913,000000	17,301500
1912,000000	17,537800
1911,000000	17,784500
1910,000000	17,975800
1909,000000	18,194600
1908,000000	18,375600
1907,000000	18,591200
1906,000000	18,851500
1905,000000	19,154500
1904,000000	19,473000
1903,000000	19,780700
1902,000000	20,042400
1901,000000	20,306200
1900,000000	20,617400
1899,000000	20,953400
1898,000000	21,303800
1897,000000	21,606600
1896,000000	21,937400
1895,000000	22,210200
1894,000000	22,470500
1893,000000	22,765900
1892,000000	23,102400
1891,000000	23,516800
1890,000000	23,920300
1889,000000	24,271200
1888,000000	24,625000
1887,000000	25,003400
1886,000000	25,377100
1885,000000	25,791100
1884,000000	26,214700
1883,000000	26,689400
1882,000000	27,123100
1881,000000	27,586300
1880,000000	28,035500
1879,000000	28,410900
1878,000000	28,816700
1877,000000	29,254300
1876,000000	29,633900
1875,000000	29,970800
1874,000000	30,347300
1873,000000	30,701400
1872,000000	31,031800
1871,000000	31,330000
1870,000000	31,625600
1869,000000	31,873900
1868,000000	32,124500
1867,000000	32,303900
1866,000000	32,446700
1865,000000	32,556800
1864,000000	32,686000
1863,000000	32,782500
1862,000000	32,857500
1861,000000	32,977900
1860,000000	33,088900
1859,000000	33,187000
1858,000000	33,260100
1857,000000	33,339500
1856,000000	33,378600
1855,000000	33,402700
1854,000000	33,446700
1853,000000	33,483500
1852,000000	33,472400
1851,000000	33,462800
1850,000000	33,477500
1849,000000	33,481500
1848,000000	33,484100
1847,000000	33,509500
1846,000000	33,477500
1845,000000	33,416700
1844,000000	33,391000
1843,000000	33,357000
1842,000000	33,352400
1841,000000	33,387400
1840,000000	33,376900
1839,000000	33,360600
1838,000000	33,324400
1837,000000	33,278600
1836,000000	33,240700
1835,000000	33,236900
1834,000000	33,193900
1833,000000	33,119300
1832,000000	33,047800
1831,000000	33,002300
1830,000000	32,967600
1829,000000	32,922900
1828,000000	32,867900
1827,000000	32,814200
1826,000000	32,765500
1825,000000	32,713200
1824,000000	32,654600
1823,000000	32,614900
1822,000000	32,592400
1821,000000	32,591000
1820,000000	32,578100
1819,000000	32,556900
1818,000000	32,531500
1817,000000	32,485200
1816,000000	32,456000
1815,000000	32,453100
1814,000000	32,445500
1813,000000	32,440200
1812,000000	32,414000
1811,000000	32,394800
1810,000000	32,382400
1809,000000	32,352100
1808,000000	32,324700
1807,000000	32,284800
1806,000000	32,245100
1805,000000	32,206600
1804,000000	32,166200
1803,000000	32,118500
1802,000000	32,079000
1801,000000	32,048200
1800,000000	32,012500
1799,000000	31,956400
1798,000000	31,909300
1797,000000	31,876300
1796,000000	31,826600
1795,000000	31,788200
1794,000000	31,763400
1793,000000	31,724800
1792,000000	31,694300
1791,000000	31,649500
1790,000000	31,579100
1789,000000	31,530500
1788,000000	31,489300
1787,000000	31,440300
1786,000000	31,401300
1785,000000	31,354200
1784,000000	31,299500
1783,000000	31,244800
1782,000000	31,180000
1781,000000	31,124000
1780,000000	31,068400
1779,000000	30,998900
1778,000000	30,954000
1777,000000	30,901400
1776,000000	30,817700
1775,000000	30,732000
1774,000000	30,648900
1773,000000	30,559300
1772,000000	30,467000
1771,000000	30,382100
1770,000000	30,292600
1769,000000	30,186200
1768,000000	30,087600
1767,000000	30,004300
1766,000000	29,934700
1765,000000	29,866500
1764,000000	29,810900
1763,000000	29,763700
1762,000000	29,745400
1761,000000	29,763000
1760,000000	29,793300
1759,000000	29,822800
1758,000000	29,859400
1757,000000	29,906500
1756,000000	29,973700
1755,000000	30,033700
1754,000000	30,063900
1753,000000	30,072000
1752,000000	30,085900
1751,000000	30,094100
1750,000000	30,084400
1749,000000	30,072900
1748,000000	30,038900
1747,000000	29,984000
1746,000000	29,931600
1745,000000	29,862000
1744,000000	29,777100
1743,000000	29,657800
1742,000000	29,536900
1741,000000	29,388700
1740,000000	29,220700
1739,000000	29,057600
1738,000000	28,883200
1737,000000	28,713400
1736,000000	28,585800
1735,000000	28,472400
1734,000000	28,392300
1733,000000	28,335300
1732,000000	28,319400
1731,000000	28,352100
1730,000000	28,386500
1729,000000	28,447000
1728,000000	28,533700
1727,000000	28,624400
1726,000000	28,711400
1725,000000	28,789100
1724,000000	28,852700
1723,000000	28,907500
1722,000000	28,964700
1721,000000	28,998000
1720,000000	29,042900
1719,000000	29,099200
1718,000000	29,142000
1717,000000	29,198400
1716,000000	29,274000
1715,000000	29,367400
1714,000000	29,452600
1713,000000	29,552700
1712,000000	29,631300
1711,000000	29,680900
1710,000000	29,743500
1709,000000	29,778100
1708,000000	29,789700
1707,000000	29,812600
1706,000000	29,801200
1705,000000	29,797800
1704,000000	29,773300
1703,000000	29,734000
1702,000000	29,675900
1701,000000	29,603500
1700,000000	29,513000
1699,000000	29,406900
1698,000000	29,301200
1697,000000	29,198900
1696,000000	29,116500
1695,000000	29,087700
1694,000000	29,077300
1693,000000	29,124900
1692,000000	29,212000
1691,000000	29,319100
1690,000000	29,450500
1689,000000	29,564800
1688,000000	29,701100
1687,000000	29,757400
1686,000000	29,820600
1685,000000	29,895100
1684,000000	29,964500
1683,000000	30,072600
1682,000000	30,265700
1681,000000	30,520800
1680,000000	30,869700
1679,000000	31,257600
1678,000000	31,687600
1677,000000	32,107300
1676,000000	32,516800
1675,000000	32,877900
1674,000000	33,185500
1673,000000	33,487000
1672,000000	33,728700
1671,000000	33,939900
1670,000000	34,119600
1669,000000	34,309700
1668,000000	34,455200
1667,000000	34,592500
1666,000000	34,709400
1665,000000	34,803500
1664,000000	34,916400
1663,000000	34,993000
1662,000000	35,078200
1661,000000	35,159900
1660,000000	35,229800
1659,000000	35,267800
1658,000000	35,320100
1657,000000	35,373100
1656,000000	35,393800
1655,000000	35,440100
1654,000000	35,449800
1653,000000	35,465000
1652,000000	35,487100
1651,000000	35,480500
1650,000000	35,474600
1649,000000	35,458400
1648,000000	35,469100
1647,000000	35,430400
1646,000000	35,418000
1645,000000	35,388800
1644,000000	35,366400
1643,000000	35,320800
1642,000000	35,298800
1641,000000	35,268500
1640,000000	35,232200
1639,000000	35,198100
1638,000000	35,164700
1637,000000	35,122900
1636,000000	35,085400
1635,000000	35,057300
1634,000000	35,009900
1633,000000	34,976800
1632,000000	34,927500
1631,000000	34,851500
1630,000000	34,816200
1629,000000	34,763700
1628,000000	34,683800
1627,000000	34,643100
1626,000000	34,579100
1625,000000	34,531000
1624,000000	34,463300
1623,000000	34,425500
1622,000000	34,367500
1621,000000	34,289000
1620,000000	34,241400
1619,000000	34,189300
1618,000000	34,140800
1617,000000	34,080700
1616,000000	34,035100
1615,000000	33,992400
1614,000000	33,932900
1613,000000	33,891000
1612,000000	33,822400
1611,000000	33,782800
1610,000000	33,718600
1609,000000	33,669500
1608,000000	33,623600
1607,000000	33,568400
1606,000000	33,522500
1605,000000	33,441900
1604,000000	33,405500
1603,000000	33,347700
1602,000000	33,284700
1601,000000	33,225900
1600,000000	33,163600
1599,000000	33,102400
1598,000000	33,048100
1597,000000	32,998000
1596,000000	32,934200
1595,000000	32,892200
1594,000000	32,844700
1593,000000	32,779700
1592,000000	32,722300
1591,000000	32,679200
1590,000000	32,635700
1589,000000	32,590700
1588,000000	32,552300
1587,000000	32,512500
1586,000000	32,461000
1585,000000	32,424700
1584,000000	32,372400
1583,000000	32,333000
1582,000000	32,302200
1581,000000	32,259000
1580,000000	32,231200
1579,000000	32,207700
1578,000000	32,161900
1577,000000	32,130600
1576,000000	32,126400
1575,000000	32,118100
1574,000000	32,097300
1573,000000	32,071100
1572,000000	32,052600
1571,000000	32,049400
1570,000000	32,047300
1569,000000	32,046200
1568,000000	32,049000
1567,000000	32,052100
1566,000000	32,051700
1565,000000	32,047300
1564,000000	32,047000
1563,000000	32,060000
1562,000000	32,054000
1561,000000	32,050600
1560,000000	32,052800
1559,000000	32,041900
1558,000000	32,025000
1557,000000	32,014600
1556,000000	32,010600
1555,000000	31,992600
1554,000000	31,975100
1553,000000	31,955300
1552,000000	31,928300
1551,000000	31,905900
1550,000000	31,884600
1549,000000	31,847700
1548,000000	31,818500
1547,000000	31,786800
1546,000000	31,763400
1545,000000	31,738600
1544,000000	31,707800
1543,000000	31,688200
1542,000000	31,666400
1541,000000	31,659600
1540,000000	31,651800
1539,000000	31,638100
1538,000000	31,606100
1537,000000	31,584300
1536,000000	31,578200
1535,000000	31,571400
1534,000000	31,540200
1533,000000	31,523100
1532,000000	31,520700
1531,000000	31,496500
1530,000000	31,473300
1529,000000	31,458800
1528,000000	31,426200
1527,000000	31,383700
1526,000000	31,359400
1525,000000	31,328100
1524,000000	31,298400
1523,000000	31,271800
1522,000000	31,242400
1521,000000	31,205400
1520,000000	31,164000
1519,000000	31,134900
1518,000000	31,098200
1517,000000	31,064500
1516,000000	31,030400
1515,000000	30,993800
1514,000000	30,954100
1513,000000	30,920800
1512,000000	30,880600
1511,000000	30,837000
1510,000000	30,798200
1509,000000	30,759600
1508,000000	30,714900
1507,000000	30,666600
1506,000000	30,633400
1505,000000	30,592900
1504,000000	30,545700
1503,000000	30,514700
1502,000000	30,482400
1501,000000	30,431900
1500,000000	30,383700
1499,000000	30,347400
1498,000000	30,323900
1497,000000	30,303100
1496,000000	30,275600
1495,000000	30,242700
1494,000000	30,222900
1493,000000	30,207500
1492,000000	30,197700
1491,000000	30,189400
1490,000000	30,169900
1489,000000	30,154900
1488,000000	30,156200
1487,000000	30,149900
1486,000000	30,129200
1485,000000	30,126200
1484,000000	30,118100
1483,000000	30,107700
1482,000000	30,116900
1481,000000	30,117200
1480,000000	30,112600
1479,000000	30,109200
1478,000000	30,106800
1477,000000	30,123000
1476,000000	30,122000
1475,000000	30,114600
1474,000000	30,142800
1473,000000	30,171600
1472,000000	30,197300
1471,000000	30,228400
1470,000000	30,239900
1469,000000	30,238700
1468,000000	30,254500
1467,000000	30,276000
1466,000000	30,302600
1465,000000	30,333000
1464,000000	30,353700
1463,000000	30,378800
1462,000000	30,412200
1461,000000	30,460100
1460,000000	30,502000
1459,000000	30,542000
1458,000000	30,589300
1457,000000	30,646100
1456,000000	30,711400
1455,000000	30,764800
1454,000000	30,832300
1453,000000	30,892100
1452,000000	30,988000
1451,000000	31,077600
1450,000000	31,144500
1449,000000	31,185400
1448,000000	31,243600
1447,000000	31,348200
1446,000000	31,436400
1445,000000	31,518400
1444,000000	31,596700
1443,000000	31,650600
1442,000000	31,750000
1441,000000	31,844000
1440,000000	31,919300
1439,000000	32,015900
1438,000000	32,109700
1437,000000	32,195600
1436,000000	32,272100
1435,000000	32,369800
1434,000000	32,475000
1433,000000	32,580400
1432,000000	32,693500
1431,000000	32,789600
1430,000000	32,899100
1429,000000	33,008600
1428,000000	33,147800
1427,000000	33,290600
1426,000000	33,425800
1425,000000	33,592400
1424,000000	33,746600
1423,000000	33,918100
1422,000000	34,074700
1421,000000	34,257900
1420,000000	34,436100
1419,000000	34,649800
1418,000000	34,824700
1417,000000	34,985000
1416,000000	35,180800
1415,000000	35,408800
1414,000000	35,667400
1413,000000	35,867700
1412,000000	36,091300
1411,000000	36,283500
1410,000000	36,544200
1409,000000	36,863800
1408,000000	37,141100
1407,000000	37,447400
1406,000000	37,724800
1405,000000	38,045400
1404,000000	38,340200
1403,000000	38,688500
1402,000000	38,980600
1401,000000	39,327200
1400,000000	39,672100
1399,000000	39,962200
1398,000000	40,163900
1397,000000	40,412800
1396,000000	40,690600
1395,000000	41,023100
1394,000000	41,236000
1393,000000	41,421300
1392,000000	41,634400
1391,000000	41,875400
1390,000000	42,125400
1389,000000	42,364400
1388,000000	42,689800
1387,000000	43,019400
1386,000000	43,342100
1385,000000	43,696300
1384,000000	44,118500
1383,000000	44,501700
1382,000000	44,920100
1381,000000	45,215000
1380,000000	45,503600
1379,000000	45,678300
1378,000000	45,860000
1377,000000	45,996300
1376,000000	46,168000
1375,000000	46,308300
1374,000000	46,475200
1373,000000	46,695200
1372,000000	46,964300
1371,000000	47,196300
1370,000000	47,431100
1369,000000	47,650500
1368,000000	47,877800
1367,000000	48,079300
1366,000000	48,275600
1365,000000	48,428000
1364,000000	48,612400
1363,000000	48,742300
1362,000000	48,917800
1361,000000	49,026400
1360,000000	49,117400
1359,000000	49,105700
1358,000000	49,210000
1357,000000	49,323300
1356,000000	49,432200
1355,000000	49,649800
1354,000000	49,883300
1353,000000	50,131900
1352,000000	50,388700
1351,000000	50,763700
1350,000000	51,080700
1349,000000	51,395100
1348,000000	51,694800
1347,000000	51,957300
1346,000000	52,206700
1345,000000	52,424300
1344,000000	52,692000
1343,000000	52,932200
1342,000000	53,144900
1341,000000	53,369600
1340,000000	53,610400
1339,000000	53,794200
1338,000000	54,023100
1337,000000	54,218200
1336,000000	54,422200
1335,000000	54,603500
1334,000000	54,783700
1333,000000	54,963600
1332,000000	55,148200
1331,000000	55,337400
1330,000000	55,501500
1329,000000	55,638000
1328,000000	55,792600
1327,000000	55,945100
1326,000000	56,074600
1325,000000	56,208000
1324,000000	56,350300
1323,000000	56,462200
1322,000000	56,560700
1321,000000	56,681200
1320,000000	56,783000
1319,000000	56,886300
1318,000000	56,989200
1317,000000	57,097000
1316,000000	57,182700
1315,000000	57,248300
1314,000000	57,343300
1313,000000	57,416700
1312,000000	57,494200
1311,000000	57,566800
1310,000000	57,634900
1309,000000	57,695400
1308,000000	57,745600
1307,000000	57,785600
1306,000000	57,844300
1305,000000	57,873900
1304,000000	57,901000
1303,000000	57,944900
1302,000000	57,962700
1301,000000	57,979200
1300,000000	57,981000
1299,000000	58,003300
1298,000000	58,030300
1297,000000	58,028300
1296,000000	58,025000
1295,000000	58,053400
1294,000000	58,051900
1293,000000	58,037000
1292,000000	58,021100
1291,000000	58,005200
1290,000000	57,983400
1289,000000	57,962700
1288,000000	57,959000
1287,000000	57,931300
1286,000000	57,893500
1285,000000	57,856500
1284,000000	57,812700
1283,000000	57,777100
1282,000000	57,752000
1281,000000	57,691500
1280,000000	57,646300
1279,000000	57,605600
1278,000000	57,562800
1277,000000	57,509000
1276,000000	57,470400
1275,000000	57,418800
1274,000000	57,388700
1273,000000	57,364900
1272,000000	57,330200
1271,000000	57,305200
1270,000000	57,281700
1269,000000	57,257000
1268,000000	57,231000
1267,000000	57,189800
1266,000000	57,167500
1265,000000	57,146800
1264,000000	57,123500
1263,000000	57,091700
1262,000000	57,064400
1261,000000	57,044600
1260,000000	57,019600
1259,000000	56,979800
1258,000000	56,942100
1257,000000	56,908700
1256,000000	56,878300
1255,000000	56,843800
1254,000000	56,788100
1253,000000	56,749400
1252,000000	56,717000
1251,000000	56,666300
1250,000000	56,626800
1249,000000	56,569200
1248,000000	56,500600
1247,000000	56,454200
1246,000000	56,387500
1245,000000	56,313900
1244,000000	56,254200
1243,000000	56,179800
1242,000000	56,095500
1241,000000	55,998200
1240,000000	55,918800
1239,000000	55,842900
1238,000000	55,749100
1237,000000	55,669200
1236,000000	55,577600
1235,000000	55,479400
1234,000000	55,387400
1233,000000	55,285900
1232,000000	55,180600
1231,000000	55,076500
1230,000000	54,964400
1229,000000	54,854600
1228,000000	54,748600
1227,000000	54,638200
1226,000000	54,519700
1225,000000	54,410000
1224,000000	54,291800
1223,000000	54,178400
1222,000000	54,069700
1221,000000	53,942000
1220,000000	53,826300
1219,000000	53,724100
1218,000000	53,607500
1217,000000	53,488800
1216,000000	53,382400
1215,000000	53,285800
1214,000000	53,195400
1213,000000	53,093400
1212,000000	53,008900
1211,000000	52,921400
1210,000000	52,834500
1209,000000	52,752000
1208,000000	52,679800
1207,000000	52,605200
1206,000000	52,531900
1205,000000	52,467800
1204,000000	52,417200
1203,000000	52,372800
1202,000000	52,336300
1201,000000	52,306700
1200,000000	52,267200
1199,000000	52,228600
1198,000000	52,173900
1197,000000	52,091100
1196,000000	51,988700
1195,000000	51,854300
1194,000000	51,682800
1193,000000	51,487300
1192,000000	51,244200
1191,000000	50,955100
1190,000000	50,662800
1189,000000	50,376800
1188,000000	50,126900
1187,000000	49,937400
1186,000000	49,816400
1185,000000	49,751700
1184,000000	49,784900
1183,000000	49,919900
1182,000000	50,122800
1181,000000	50,377500
1180,000000	50,679100
1179,000000	50,992500
1178,000000	51,300100
1177,000000	51,582600
1176,000000	51,825700
1175,000000	52,054400
1174,000000	52,253500
1173,000000	52,452900
1172,000000	52,639100
1171,000000	52,858700
1170,000000	53,083500
1169,000000	53,304700
1168,000000	53,520000
1167,000000	53,753200
1166,000000	53,976400
1165,000000	54,210800
1164,000000	54,451200
1163,000000	54,705800
1162,000000	54,960600
1161,000000	55,209600
1160,000000	55,463200
1159,000000	55,717900
1158,000000	55,963600
1157,000000	56,181800
1156,000000	56,390900
1155,000000	56,594500
1154,000000	56,775400
1153,000000	56,910400
1152,000000	57,042400
1151,000000	57,133700
1150,000000	57,195100
1149,000000	57,253100
1148,000000	57,328900
1147,000000	57,411900
1146,000000	57,498400
1145,000000	57,627700
1144,000000	57,786900
1143,000000	57,986300
1142,000000	58,222900
1141,000000	58,466300
1140,000000	58,718200
1139,000000	58,990400
1138,000000	59,266200
1137,000000	59,553700
1136,000000	59,846300
1135,000000	60,157400
1134,000000	60,461700
1133,000000	60,757600
1132,000000	60,991400
1131,000000	61,260200
1130,000000	61,480100
1129,000000	61,693000
1128,000000	61,872800
1127,000000	62,011200
1126,000000	62,138400
1125,000000	62,254200
1124,000000	62,345000
1123,000000	62,401400
1122,000000	62,493900
1121,000000	62,550800
1120,000000	62,583200
1119,000000	62,615700
1118,000000	62,663100
1117,000000	62,695800
1116,000000	62,710700
1115,000000	62,718500
1114,000000	62,722400
1113,000000	62,726000
1112,000000	62,738500
1111,000000	62,744700
1110,000000	62,745000
1109,000000	62,747300
1108,000000	62,755900
1107,000000	62,754900
1106,000000	62,756500
1105,000000	62,777100
1104,000000	62,765800
1103,000000	62,745500
1102,000000	62,739500
1101,000000	62,764700
1100,000000	62,746200
1099,000000	62,737500
1098,000000	62,737400
1097,000000	62,721700
1096,000000	62,744600
1095,000000	62,719900
1094,000000	62,695400
1093,000000	62,677600
1092,000000	62,666200
1091,000000	62,649900
1090,000000	62,637800
1089,000000	62,600800
1088,000000	62,574300
1087,000000	62,583400
1086,000000	62,544700
1085,000000	62,546800
1084,000000	62,487700
1083,000000	62,471800
1082,000000	62,453300
1081,000000	62,433200
1080,000000	62,395200
1079,000000	62,389000
1078,000000	62,360900
1077,000000	62,339600
1076,000000	62,329400
1075,000000	62,300400
1074,000000	62,288500
1073,000000	62,267000
1072,000000	62,262200
1071,000000	62,240900
1070,000000	62,227900
1069,000000	62,236800
1068,000000	62,209900
1067,000000	62,207900
1066,000000	62,169600
1065,000000	62,172300
1064,000000	62,166900
1063,000000	62,160200
1062,000000	62,158700
1061,000000	62,154500
1060,000000	62,147700
1059,000000	62,135100
1058,000000	62,131200
1057,000000	62,112400
1056,000000	62,130700
1055,000000	62,140300
1054,000000	62,120300
1053,000000	62,136400
1052,000000	62,131100
1051,000000	62,144500
1050,000000	62,138100
1049,000000	62,144100
1048,000000	62,148600
1047,000000	62,175200
1046,000000	62,193500
1045,000000	62,206500
1044,000000	62,223700
1043,000000	62,240000
1042,000000	62,252200
1041,000000	62,259300
1040,000000	62,294700
1039,000000	62,312900
1038,000000	62,336200
1037,000000	62,336600
1036,000000	62,371600
1035,000000	62,399300
1034,000000	62,397800
1033,000000	62,402600
1032,000000	62,429800
1031,000000	62,449800
1030,000000	62,447300
1029,000000	62,460200
1028,000000	62,488000
1027,000000	62,468300
1026,000000	62,492900
1025,000000	62,488700
1024,000000	62,502600
1023,000000	62,534800
1022,000000	62,539900
1021,000000	62,538700
1020,000000	62,569500
1019,000000	62,580900
1018,000000	62,583300
1017,000000	62,612700
1016,000000	62,634400
1015,000000	62,654600
1014,000000	62,687500
1013,000000	62,718200
1012,000000	62,768300
1011,000000	62,795500
1010,000000	62,836500
1009,000000	62,888500
1008,000000	62,937300
1007,000000	62,978900
1006,000000	63,030300
1005,000000	63,097500
1004,000000	63,160700
1003,000000	63,202200
1002,000000	63,258800
1001,000000	63,319500
1000,000000	63,367500
999,000000	63,434900
998,000000	63,490300
997,000000	63,550500
996,000000	63,609300
995,000000	63,675200
994,000000	63,739400
993,000000	63,803700
992,000000	63,857800
991,000000	63,925600
990,000000	64,005600
989,000000	64,068900
988,000000	64,132000
987,000000	64,222000
986,000000	64,310000
985,000000	64,381300
984,000000	64,452500
983,000000	64,529200
982,000000	64,619800
981,000000	64,718900
980,000000	64,796800
979,000000	64,879600
978,000000	64,944200
977,000000	65,023600
976,000000	65,129400
975,000000	65,194800
974,000000	65,263700
973,000000	65,371400
972,000000	65,467200
971,000000	65,539300
970,000000	65,600500
969,000000	65,663400
968,000000	65,748800
967,000000	65,851600
966,000000	65,927400
965,000000	65,996400
964,000000	66,067600
963,000000	66,147700
962,000000	66,228100
961,000000	66,307900
960,000000	66,396900
959,000000	66,478300
958,000000	66,547500
957,000000	66,623900
956,000000	66,701900
955,000000	66,770500
954,000000	66,840300
953,000000	66,916400
952,000000	66,970400
951,000000	67,029200
950,000000	67,104300
949,000000	67,161000
948,000000	67,214900
947,000000	67,279000
946,000000	67,313800
945,000000	67,352100
944,000000	67,402000
943,000000	67,465000
942,000000	67,511700
941,000000	67,538200
940,000000	67,597600
939,000000	67,633900
938,000000	67,658200
937,000000	67,704800
936,000000	67,740500
935,000000	67,798900
934,000000	67,848400
933,000000	67,869900
932,000000	67,918400
931,000000	67,956400
930,000000	68,006300
929,000000	68,032700
928,000000	68,045800
927,000000	68,082600
926,000000	68,099500
925,000000	68,127800
924,000000	68,166100
923,000000	68,193600
922,000000	68,220200
921,000000	68,261100
920,000000	68,274900
919,000000	68,285100
918,000000	68,310200
917,000000	68,332800
916,000000	68,339300
915,000000	68,347700
914,000000	68,354000
913,000000	68,383400
912,000000	68,389500
911,000000	68,387700
910,000000	68,393900
909,000000	68,402700
908,000000	68,397600
907,000000	68,402700
906,000000	68,412700
905,000000	68,432000
904,000000	68,440500
903,000000	68,449300
902,000000	68,456200
901,000000	68,466100
900,000000	68,474800
899,000000	68,482600
898,000000	68,489100
897,000000	68,508300
896,000000	68,518600
895,000000	68,524200
894,000000	68,526400
893,000000	68,532600
892,000000	68,524700
891,000000	68,530300
890,000000	68,524100
889,000000	68,518400
888,000000	68,495100
887,000000	68,473700
886,000000	68,459000
885,000000	68,446100
884,000000	68,428200
883,000000	68,399100
882,000000	68,365400
881,000000	68,335100
880,000000	68,306400
879,000000	68,279800
878,000000	68,245300
877,000000	68,158000
876,000000	68,063700
875,000000	67,941300
874,000000	67,814400
873,000000	67,713200
872,000000	67,551200
871,000000	67,439100
870,000000	67,418800
869,000000	67,425600
868,000000	67,473900
867,000000	67,480800
866,000000	67,475700
865,000000	67,494400
864,000000	67,504200
863,000000	67,521100
862,000000	67,516500
861,000000	67,542600
860,000000	67,536400
859,000000	67,543400
858,000000	67,546500
857,000000	67,930900
856,000000	68,629700
855,000000	68,720900
854,000000	68,833200
853,000000	68,409500
852,000000	68,548500
851,000000	68,291000
850,000000	68,420700
849,000000	68,324800
848,000000	68,164700
847,000000	68,197200
846,000000	68,363000
845,000000	68,076000
844,000000	68,105500
843,000000	67,909000
842,000000	67,752000
841,000000	67,645100
840,000000	67,569300
839,000000	67,647500
838,000000	67,458800
837,000000	67,449800
836,000000	67,275400
835,000000	67,383200
834,000000	67,048600
833,000000	67,047400
832,000000	66,876600
831,000000	66,926900
830,000000	66,700200
829,000000	66,563700
828,000000	66,583800
827,000000	66,646300
826,000000	66,498600
825,000000	66,158100
824,000000	66,013800
823,000000	66,225600
822,000000	66,297300
821,000000	66,020100
820,000000	65,855000
819,000000	65,732400
818,000000	65,456600
817,000000	65,601600
816,000000	65,532700
815,000000	65,439100
814,000000	65,322900
813,000000	65,280600
812,000000	65,071800
811,000000	64,940500
810,000000	64,795200
809,000000	64,821500
808,000000	64,723600
807,000000	64,628600
806,000000	64,631100
805,000000	64,544700
804,000000	64,411800
803,000000	64,423000
802,000000	64,251100
801,000000	64,084700
800,000000	63,885600
799,000000	63,859100
798,000000	63,848100
797,000000	63,594900
796,000000	63,454200
795,000000	63,464300
794,000000	63,387400
793,000000	63,066200
792,000000	63,046200
791,000000	63,055800
790,000000	62,977100
789,000000	62,602400
788,000000	62,739500
787,000000	62,737600
786,000000	62,491500
785,000000	62,358000
784,000000	62,331200
783,000000	62,165800
782,000000	61,987000
781,000000	61,757100
780,000000	61,779100
779,000000	61,626600
778,000000	61,482600
777,000000	61,323400
776,000000	61,078700
775,000000	60,999600
774,000000	60,974700
773,000000	60,757700
772,000000	60,621400
771,000000	60,562500
770,000000	60,478000
769,000000	60,192600
768,000000	60,146000
767,000000	59,956300
766,000000	59,825200
765,000000	59,667300
764,000000	59,516100
763,000000	59,382500
762,000000	59,197900
761,000000	59,147600
760,000000	58,857200
759,000000	58,876300
758,000000	58,698400
757,000000	58,552200
756,000000	58,458700
755,000000	58,291500
754,000000	58,265500
753,000000	58,184500
752,000000	58,134300
751,000000	58,077200
750,000000	57,884300
749,000000	57,809600
748,000000	57,684000
747,000000	57,633000
746,000000	57,627700
745,000000	57,526500
744,000000	57,553200
743,000000	57,401800
742,000000	57,225300
741,000000	57,199900
740,000000	57,156100
739,000000	57,003000
738,000000	57,002400
737,000000	56,860000
736,000000	56,801000
735,000000	56,650200
734,000000	56,591000
733,000000	56,452200
732,000000	56,375100
731,000000	56,265700
730,000000	56,117500
729,000000	56,022500
728,000000	56,016400
727,000000	55,809500
726,000000	55,657800
725,000000	55,582300
724,000000	55,377000
723,000000	55,252200
722,000000	55,151900
721,000000	55,016500
720,000000	54,877500
719,000000	54,773900
718,000000	54,632600
717,000000	54,494300
716,000000	54,339400
715,000000	54,179200
714,000000	53,935400
713,000000	53,719300
712,000000	53,558300
711,000000	53,339200
710,000000	53,104400
709,000000	52,875900
708,000000	52,661100
707,000000	52,428800
706,000000	52,222900
705,000000	51,984600
704,000000	51,788900
703,000000	51,574400
702,000000	51,362700
701,000000	51,176600
700,000000	50,943400
699,000000	50,731300
698,000000	50,524200
697,000000	50,282000
696,000000	50,112400
695,000000	49,898800
694,000000	49,660600
693,000000	49,455300
692,000000	49,279400
691,000000	49,104400
690,000000	48,855000
689,000000	48,705100
688,000000	48,526000
687,000000	48,395400
686,000000	48,230100
685,000000	48,091800
684,000000	47,970800
683,000000	47,882900
682,000000	47,825600
681,000000	47,796400
680,000000	47,788600
679,000000	47,742300
678,000000	47,756600
677,000000	47,752800
676,000000	47,763200
675,000000	47,814900
674,000000	47,846600
673,000000	47,897100
672,000000	47,940300
671,000000	48,004300
670,000000	48,020700
669,000000	47,982300
668,000000	47,987000
667,000000	48,016900
666,000000	48,036700
665,000000	48,055100
664,000000	48,055200
663,000000	48,068300
662,000000	48,112400
661,000000	48,129300
660,000000	48,185300
659,000000	48,275100
658,000000	48,332200
657,000000	48,334300
656,000000	48,322900
655,000000	48,311100
654,000000	48,227100
653,000000	48,074700
652,000000	47,929200
651,000000	47,719000
650,000000	47,453400
649,000000	47,178200
648,000000	46,849700
647,000000	46,439800
646,000000	46,060100
645,000000	45,716200
644,000000	45,339200
643,000000	44,962300
642,000000	44,648000
641,000000	44,387900
640,000000	44,163400
639,000000	43,959800
638,000000	43,805600
637,000000	43,714800
636,000000	43,694500
635,000000	43,724700
634,000000	43,798800
633,000000	43,934200
632,000000	44,129600
631,000000	44,373000
630,000000	44,669100
629,000000	45,063100
628,000000	45,526500
627,000000	46,008900
626,000000	46,542100
625,000000	47,135600
624,000000	47,801300
623,000000	48,481600
622,000000	49,146200
621,000000	49,871100
620,000000	50,611300
619,000000	51,358300
618,000000	52,074600
617,000000	52,767000
616,000000	53,451200
615,000000	54,118300
614,000000	54,784100
613,000000	55,446300
612,000000	56,043500
611,000000	56,626000
610,000000	57,136700
609,000000	57,603200
608,000000	58,025600
607,000000	58,404300
606,000000	58,788600
605,000000	59,135600
604,000000	59,467200
603,000000	59,793300
602,000000	60,090700
601,000000	60,364000
600,000000	60,676900
599,000000	60,935400
598,000000	61,171300
597,000000	61,345100
596,000000	61,484900
595,000000	61,658500
594,000000	61,790800
593,000000	61,848500
592,000000	61,941900
591,000000	62,038600
590,000000	62,162400
589,000000	62,221600
588,000000	62,293600
587,000000	62,400000
586,000000	62,529700
585,000000	62,682000
584,000000	62,793200
583,000000	62,986800
582,000000	63,243200
581,000000	63,484900
580,000000	63,723100
579,000000	63,955000
578,000000	64,185400
577,000000	64,380600
576,000000	64,551900
575,000000	64,659700
574,000000	64,765700
573,000000	64,795900
572,000000	64,821900
571,000000	64,816900
570,000000	64,758400
569,000000	64,686500
568,000000	64,622100
567,000000	64,611500
566,000000	64,557000
565,000000	64,550600
564,000000	64,558000
563,000000	64,591400
562,000000	64,611400
561,000000	64,641400
560,000000	64,656600
559,000000	64,692200
558,000000	64,709800
557,000000	64,636600
556,000000	64,535500
555,000000	64,374900
554,000000	64,134300
553,000000	63,853600
552,000000	63,540800
551,000000	63,148200
550,000000	62,725400
549,000000	62,293600
548,000000	61,816000
547,000000	61,286700
546,000000	60,771800
545,000000	60,198800
544,000000	59,581500
543,000000	58,885400
542,000000	58,148900
541,000000	57,351000
540,000000	56,489300
539,000000	55,570100
538,000000	54,649400
537,000000	53,697200
536,000000	52,719000
535,000000	51,715400
534,000000	50,644900
533,000000	49,623300
532,000000	48,595200
531,000000	47,591200
530,000000	46,616300
529,000000	45,649000
528,000000	44,700300
527,000000	43,817600
526,000000	42,966500
525,000000	42,144300
524,000000	41,366600
523,000000	40,608400
522,000000	39,938000
521,000000	39,253800
520,000000	38,619500
519,000000	38,050400
518,000000	37,490600
517,000000	36,960400
516,000000	36,439800
515,000000	35,947100
514,000000	35,435200
513,000000	34,969200
512,000000	34,499700
511,000000	33,990300
510,000000	33,529500
509,000000	33,034400
508,000000	32,569500
507,000000	32,066400
506,000000	31,593600
505,000000	31,100600
504,000000	30,576500
503,000000	30,035400
502,000000	29,519400
501,000000	28,970100
500,000000	28,437000
499,000000	27,896100
498,000000	27,394900
497,000000	26,876000
496,000000	26,456400
495,000000	25,945600
494,000000	25,513900
493,000000	25,092300
492,000000	24,697500
491,000000	24,347800
490,000000	24,054600
489,000000	23,760000
488,000000	23,492300
487,000000	23,296100
486,000000	23,079700
485,000000	22,918900
484,000000	22,732600
483,000000	22,590500
482,000000	22,466500
481,000000	22,325900
480,000000	22,194400
479,000000	22,106300
478,000000	21,973500
477,000000	21,891800
476,000000	21,789500
475,000000	21,668100
474,000000	21,541200
473,000000	21,446100
472,000000	21,332900
471,000000	21,227900
470,000000	21,075300
469,000000	20,968100
468,000000	20,846300
467,000000	20,719700
466,000000	20,606800
465,000000	20,486800
464,000000	20,353000
463,000000	20,172900
462,000000	20,058500
461,000000	19,920200
460,000000	19,764300
459,000000	19,605400
458,000000	19,490200
457,000000	19,302700
456,000000	19,160300
455,000000	18,984800
454,000000	18,815400
453,000000	18,640200
452,000000	18,480100
451,000000	18,282600
450,000000	18,070800
449,000000	17,870600
448,000000	17,671100
447,000000	17,437000
446,000000	17,205700
445,000000	16,974400
444,000000	16,715900
443,000000	16,458000
442,000000	16,194800
441,000000	15,931000
440,000000	15,639100
439,000000	15,345000
438,000000	15,079300
437,000000	14,756600
436,000000	14,492400
435,000000	14,183200
434,000000	13,866400
433,000000	13,553100
432,000000	13,256000
431,000000	12,931200
430,000000	12,613200
429,000000	12,290700
428,000000	11,967600
427,000000	11,668300
426,000000	11,348800
425,000000	11,049200
424,000000	10,713700
423,000000	10,406600
422,000000	10,136500
421,000000	9,845700
420,000000	9,559300
419,000000	9,312900
418,000000	9,066300
417,000000	8,830200
416,000000	8,595800
415,000000	8,369700
414,000000	8,146300
413,000000	7,963200
412,000000	7,768900
411,000000	7,599700
410,000000	7,431200
409,000000	7,265400
408,000000	7,142500
407,000000	7,008300
406,000000	6,901000
405,000000	6,812300
404,000000	6,705100
403,000000	6,603800
402,000000	6,546400
401,000000	6,465400
400,000000	6,390900
399,000000	6,309300
398,000000	6,249900
397,000000	6,181500
396,000000	6,141000
395,000000	6,099900
394,000000	6,052400
393,000000	6,007300
392,000000	5,989500
391,000000	5,942200
390,000000	5,902100
389,000000	5,874500
388,000000	5,861400
387,000000	5,838500
386,000000	5,820000
385,000000	5,783700
384,000000	5,747600
383,000000	5,742500
382,000000	5,736700
381,000000	5,706300
380,000000	5,681800
379,000000	5,658700
378,000000	5,658400
377,000000	5,642200
376,000000	5,625500
375,000000	5,674300
374,000000	5,735100
373,000000	5,640600
372,000000	5,629400
371,000000	5,620100
370,000000	5,581000
369,000000	5,550000
368,000000	5,537300
367,000000	5,552700
366,000000	5,551700
365,000000	5,611800
364,000000	5,491400
363,000000	5,431800
362,000000	5,525400
361,000000	5,450000
360,000000	5,435100
359,000000	5,447200
358,000000	5,423500
357,000000	5,455000
356,000000	5,451300
355,000000	5,405600
354,000000	5,406000
353,000000	5,426400
352,000000	5,405800
351,000000	5,401900
350,000000	5,420200
349,000000	5,369700
348,000000	5,290600
347,000000	5,330200
346,000000	5,363400
345,000000	5,380100
344,000000	5,352000
343,000000	5,277500
342,000000	5,302700
341,000000	5,395700
340,000000	5,414000
339,000000	5,394300
338,000000	5,318800
337,000000	5,345800
336,000000	5,382800
335,000000	5,364800
334,000000	5,340100
333,000000	5,302900
332,000000	5,371500
331,000000	5,388500
330,000000	5,301700
329,000000	5,286000
328,000000	5,345100
327,000000	5,309600
326,000000	5,187100
325,000000	5,195200
324,000000	5,335900
323,000000	5,456300
322,000000	5,387400
321,000000	5,348400
320,000000	5,370500
319,000000	5,328800
318,000000	5,371500
317,000000	5,310800
316,000000	5,243000
315,000000	5,279600
314,000000	5,321400
313,000000	5,301500
312,000000	5,287700
311,000000	5,285600
310,000000	5,291900
309,000000	5,313600
308,000000	5,337300
307,000000	5,297400
306,000000	5,313400
305,000000	5,305600
304,000000	5,277800
303,000000	5,293300
302,000000	5,324800
301,000000	5,337200
300,000000	5,342100
299,000000	5,354200
298,000000	5,338500
297,000000	5,313300
296,000000	5,331100
295,000000	5,346500
294,000000	5,357900
293,000000	5,358100
292,000000	5,373500
291,000000	5,367900
290,000000	5,374500
289,000000	5,382500
288,000000	5,389300
287,000000	5,387200
286,000000	5,406300
285,000000	5,412500
284,000000	5,424600
283,000000	5,429400
282,000000	5,422000
281,000000	5,415500
280,000000	5,473100
279,000000	5,469100
278,000000	5,480300
277,000000	5,505700
276,000000	5,506100
275,000000	5,471200
274,000000	5,495200
273,000000	5,526800
272,000000	5,538500
271,000000	5,526300
270,000000	5,563900
269,000000	5,585600
268,000000	5,563000
267,000000	5,611600
266,000000	5,625100
265,000000	5,655700
264,000000	5,675800
263,000000	5,694300
262,000000	5,722200
261,000000	5,733300
260,000000	5,763000
259,000000	5,775600
258,000000	5,768900
257,000000	5,775400
256,000000	5,792800
255,000000	5,805400
254,000000	5,785300
253,000000	5,812300
252,000000	5,814400
251,000000	5,819500
250,000000	5,822200
