PE UV       SUBTECH     SPECTRUM    ASCII       PEDS        4.00        
   -1
CICIMAUCR0252-1.Sample.ASC
24/06/24
16:27:38.00
24/06/24
16:27:38.00
Vinicio Soto Monge
C. resplendens. Sex F.Dorsal. 
250,000000
1
Lambda 1050
1050L1511233
PerkinElmer UV WinLab 6.3.2.0749 / 2.02.05 Lambda 900 UV/VIS/NIR, Aug  7 2015 09:38:08

0
0
3350/servo 860,8/2
0
0
UV/VIS
1
1
1
DoubleDePol,CommonBeamDepol,RBeamAtt,SBeamAtt,60mm sphere, WB InGaAs Detector
0
0
0
0
Program
Program
3350/servo 860,8/2
3350/0,2 860,8/0,2
3350/0,2 860,8/0,2
0
15.00
 
 
 
0
 
860,8
319,2
860,8
Front
100
on
S:100 R:100
0
0
0
0
 
0
 
 
 
0
 
 
0
0
0
0
0
 
 
 
 
0
0


0
0
#HDR
-1
-1
#GR
nm
%R
1.0
0.0
2500,000000
-1,000000
2251
8
89,699100
5,514600
#DATA
2500,000000	7,872300
2499,000000	7,935200
2498,000000	7,711400
2497,000000	7,696800
2496,000000	7,715700
2495,000000	7,665000
2494,000000	7,789900
2493,000000	7,764900
2492,000000	7,736200
2491,000000	7,864500
2490,000000	7,667400
2489,000000	7,755500
2488,000000	7,633000
2487,000000	7,762600
2486,000000	7,756500
2485,000000	7,661600
2484,000000	7,626900
2483,000000	7,666700
2482,000000	7,640000
2481,000000	7,689000
2480,000000	7,704700
2479,000000	7,691000
2478,000000	7,600900
2477,000000	7,709800
2476,000000	7,702200
2475,000000	7,650000
2474,000000	7,721900
2473,000000	7,654000
2472,000000	7,727600
2471,000000	7,753600
2470,000000	7,710200
2469,000000	7,696900
2468,000000	7,765300
2467,000000	7,748100
2466,000000	7,756900
2465,000000	7,809400
2464,000000	7,814900
2463,000000	7,820200
2462,000000	7,858000
2461,000000	7,905600
2460,000000	7,946100
2459,000000	7,991300
2458,000000	8,008200
2457,000000	8,060600
2456,000000	8,101500
2455,000000	8,144500
2454,000000	8,163400
2453,000000	8,220100
2452,000000	8,253600
2451,000000	8,333500
2450,000000	8,383000
2449,000000	8,434700
2448,000000	8,490900
2447,000000	8,524500
2446,000000	8,588900
2445,000000	8,650100
2444,000000	8,721600
2443,000000	8,744300
2442,000000	8,818900
2441,000000	8,886300
2440,000000	8,942900
2439,000000	9,007500
2438,000000	9,045800
2437,000000	9,094300
2436,000000	9,146900
2435,000000	9,210500
2434,000000	9,253900
2433,000000	9,305400
2432,000000	9,370700
2431,000000	9,401400
2430,000000	9,426600
2429,000000	9,489400
2428,000000	9,564900
2427,000000	9,603600
2426,000000	9,624500
2425,000000	9,678100
2424,000000	9,723600
2423,000000	9,751600
2422,000000	9,802300
2421,000000	9,846000
2420,000000	9,868600
2419,000000	9,907300
2418,000000	9,963900
2417,000000	9,990800
2416,000000	10,024000
2415,000000	10,051200
2414,000000	10,093300
2413,000000	10,121000
2412,000000	10,144700
2411,000000	10,176400
2410,000000	10,209700
2409,000000	10,227300
2408,000000	10,238700
2407,000000	10,275500
2406,000000	10,303800
2405,000000	10,324000
2404,000000	10,347800
2403,000000	10,373900
2402,000000	10,400300
2401,000000	10,429600
2400,000000	10,469300
2399,000000	10,517100
2398,000000	10,574100
2397,000000	10,612600
2396,000000	10,632900
2395,000000	10,660900
2394,000000	10,695900
2393,000000	10,718400
2392,000000	10,734400
2391,000000	10,750300
2390,000000	10,782700
2389,000000	10,809500
2388,000000	10,815700
2387,000000	10,842600
2386,000000	10,860100
2385,000000	10,870300
2384,000000	10,886300
2383,000000	10,894300
2382,000000	10,906600
2381,000000	10,916300
2380,000000	10,928500
2379,000000	10,931100
2378,000000	10,941800
2377,000000	10,950900
2376,000000	10,942900
2375,000000	10,946700
2374,000000	10,947100
2373,000000	10,942100
2372,000000	10,946000
2371,000000	10,927700
2370,000000	10,911600
2369,000000	10,926300
2368,000000	10,914200
2367,000000	10,900800
2366,000000	10,898100
2365,000000	10,898000
2364,000000	10,888200
2363,000000	10,864100
2362,000000	10,835300
2361,000000	10,807600
2360,000000	10,796200
2359,000000	10,788500
2358,000000	10,779400
2357,000000	10,763900
2356,000000	10,739400
2355,000000	10,732100
2354,000000	10,726700
2353,000000	10,712800
2352,000000	10,716500
2351,000000	10,723700
2350,000000	10,715400
2349,000000	10,713000
2348,000000	10,741500
2347,000000	10,767600
2346,000000	10,781200
2345,000000	10,806800
2344,000000	10,837700
2343,000000	10,843100
2342,000000	10,869700
2341,000000	10,924600
2340,000000	10,948600
2339,000000	10,976700
2338,000000	11,002100
2337,000000	11,036100
2336,000000	11,073900
2335,000000	11,099500
2334,000000	11,111500
2333,000000	11,108100
2332,000000	11,108800
2331,000000	11,122000
2330,000000	11,124200
2329,000000	11,130100
2328,000000	11,133200
2327,000000	11,109500
2326,000000	11,096500
2325,000000	11,076100
2324,000000	11,054400
2323,000000	11,039000
2322,000000	11,017800
2321,000000	10,981000
2320,000000	10,949800
2319,000000	10,882000
2318,000000	10,834400
2317,000000	10,779000
2316,000000	10,716100
2315,000000	10,668100
2314,000000	10,607700
2313,000000	10,541800
2312,000000	10,490900
2311,000000	10,430600
2310,000000	10,360900
2309,000000	10,325100
2308,000000	10,303600
2307,000000	10,260800
2306,000000	10,231400
2305,000000	10,227600
2304,000000	10,218100
2303,000000	10,246100
2302,000000	10,278400
2301,000000	10,302200
2300,000000	10,346100
2299,000000	10,408000
2298,000000	10,450700
2297,000000	10,498000
2296,000000	10,569400
2295,000000	10,629300
2294,000000	10,693100
2293,000000	10,753300
2292,000000	10,802300
2291,000000	10,864900
2290,000000	10,897000
2289,000000	10,965600
2288,000000	10,995400
2287,000000	11,023200
2286,000000	11,052800
2285,000000	11,054400
2284,000000	11,048500
2283,000000	11,073000
2282,000000	11,052000
2281,000000	11,038400
2280,000000	11,035000
2279,000000	11,016800
2278,000000	11,004300
2277,000000	10,969700
2276,000000	10,932800
2275,000000	10,935400
2274,000000	10,920700
2273,000000	10,895500
2272,000000	10,889900
2271,000000	10,873000
2270,000000	10,901100
2269,000000	10,922000
2268,000000	10,946100
2267,000000	10,980000
2266,000000	11,043700
2265,000000	11,120700
2264,000000	11,186600
2263,000000	11,271300
2262,000000	11,395100
2261,000000	11,533800
2260,000000	11,670800
2259,000000	11,794600
2258,000000	11,954700
2257,000000	12,156100
2256,000000	12,296700
2255,000000	12,478300
2254,000000	12,644500
2253,000000	12,810200
2252,000000	12,998400
2251,000000	13,167600
2250,000000	13,325300
2249,000000	13,475900
2248,000000	13,640400
2247,000000	13,772100
2246,000000	13,892400
2245,000000	14,002300
2244,000000	14,114800
2243,000000	14,221500
2242,000000	14,314900
2241,000000	14,393000
2240,000000	14,479800
2239,000000	14,576300
2238,000000	14,637800
2237,000000	14,687400
2236,000000	14,727300
2235,000000	14,773900
2234,000000	14,823100
2233,000000	14,859600
2232,000000	14,885000
2231,000000	14,916900
2230,000000	14,928600
2229,000000	14,926000
2228,000000	14,947900
2227,000000	14,954600
2226,000000	14,955000
2225,000000	14,927100
2224,000000	14,906900
2223,000000	14,905600
2222,000000	14,859200
2221,000000	14,831700
2220,000000	14,804200
2219,000000	14,755000
2218,000000	14,736200
2217,000000	14,706200
2216,000000	14,642300
2215,000000	14,632400
2214,000000	14,601700
2213,000000	14,576900
2212,000000	14,509200
2211,000000	14,481400
2210,000000	14,447300
2209,000000	14,413900
2208,000000	14,377100
2207,000000	14,367600
2206,000000	14,317800
2205,000000	14,319200
2204,000000	14,272000
2203,000000	14,260800
2202,000000	14,249600
2201,000000	14,207400
2200,000000	14,200200
2199,000000	14,175800
2198,000000	14,155700
2197,000000	14,124900
2196,000000	14,122200
2195,000000	14,123600
2194,000000	14,083000
2193,000000	14,082600
2192,000000	14,059900
2191,000000	14,042100
2190,000000	14,039600
2189,000000	14,025800
2188,000000	14,010800
2187,000000	14,008200
2186,000000	13,981100
2185,000000	13,949900
2184,000000	13,943900
2183,000000	13,905600
2182,000000	13,901800
2181,000000	13,881700
2180,000000	13,856400
2179,000000	13,823800
2178,000000	13,805400
2177,000000	13,794800
2176,000000	13,793500
2175,000000	13,798500
2174,000000	13,772400
2173,000000	13,753100
2172,000000	13,737400
2171,000000	13,731500
2170,000000	13,749600
2169,000000	13,749700
2168,000000	13,749100
2167,000000	13,747000
2166,000000	13,764800
2165,000000	13,781200
2164,000000	13,790200
2163,000000	13,787400
2162,000000	13,805500
2161,000000	13,833200
2160,000000	13,838400
2159,000000	13,893200
2158,000000	13,912800
2157,000000	13,930000
2156,000000	13,963700
2155,000000	13,999900
2154,000000	14,023000
2153,000000	14,068600
2152,000000	14,117800
2151,000000	14,144600
2150,000000	14,208800
2149,000000	14,251100
2148,000000	14,286200
2147,000000	14,324400
2146,000000	14,364000
2145,000000	14,417400
2144,000000	14,460400
2143,000000	14,495500
2142,000000	14,541400
2141,000000	14,574800
2140,000000	14,625700
2139,000000	14,661900
2138,000000	14,685200
2137,000000	14,729900
2136,000000	14,765300
2135,000000	14,787000
2134,000000	14,814600
2133,000000	14,848200
2132,000000	14,888900
2131,000000	14,909600
2130,000000	14,942300
2129,000000	14,971900
2128,000000	14,981000
2127,000000	14,997400
2126,000000	14,995000
2125,000000	15,014300
2124,000000	15,036600
2123,000000	15,058500
2122,000000	15,050600
2121,000000	15,053100
2120,000000	15,054200
2119,000000	15,066900
2118,000000	15,076300
2117,000000	15,067500
2116,000000	15,059300
2115,000000	15,067400
2114,000000	15,062800
2113,000000	15,050800
2112,000000	15,037200
2111,000000	15,017700
2110,000000	15,016000
2109,000000	14,999500
2108,000000	15,005900
2107,000000	14,993100
2106,000000	14,981200
2105,000000	14,971000
2104,000000	14,959000
2103,000000	14,940100
2102,000000	14,925600
2101,000000	14,905800
2100,000000	14,878100
2099,000000	14,871900
2098,000000	14,871100
2097,000000	14,848600
2096,000000	14,831400
2095,000000	14,813500
2094,000000	14,795500
2093,000000	14,794200
2092,000000	14,790100
2091,000000	14,775500
2090,000000	14,758100
2089,000000	14,749200
2088,000000	14,738000
2087,000000	14,718100
2086,000000	14,705000
2085,000000	14,698500
2084,000000	14,677600
2083,000000	14,649900
2082,000000	14,623900
2081,000000	14,602800
2080,000000	14,570300
2079,000000	14,540200
2078,000000	14,505800
2077,000000	14,473600
2076,000000	14,439500
2075,000000	14,390800
2074,000000	14,349200
2073,000000	14,300600
2072,000000	14,251700
2071,000000	14,205900
2070,000000	14,156600
2069,000000	14,102400
2068,000000	14,046700
2067,000000	13,999400
2066,000000	13,949600
2065,000000	13,894000
2064,000000	13,846700
2063,000000	13,797700
2062,000000	13,731000
2061,000000	13,685000
2060,000000	13,643800
2059,000000	13,604700
2058,000000	13,576300
2057,000000	13,546600
2056,000000	13,524400
2055,000000	13,503600
2054,000000	13,496900
2053,000000	13,499800
2052,000000	13,513200
2051,000000	13,539400
2050,000000	13,561600
2049,000000	13,597000
2048,000000	13,629300
2047,000000	13,669100
2046,000000	13,730600
2045,000000	13,772800
2044,000000	13,831500
2043,000000	13,889900
2042,000000	13,939500
2041,000000	14,017400
2040,000000	14,072600
2039,000000	14,110300
2038,000000	14,161100
2037,000000	14,206000
2036,000000	14,249300
2035,000000	14,303700
2034,000000	14,338900
2033,000000	14,362400
2032,000000	14,386100
2031,000000	14,421800
2030,000000	14,464200
2029,000000	14,471800
2028,000000	14,477400
2027,000000	14,488400
2026,000000	14,505400
2025,000000	14,512300
2024,000000	14,518800
2023,000000	14,526200
2022,000000	14,514000
2021,000000	14,514300
2020,000000	14,517400
2019,000000	14,516200
2018,000000	14,504600
2017,000000	14,495600
2016,000000	14,474800
2015,000000	14,462100
2014,000000	14,441900
2013,000000	14,428600
2012,000000	14,391900
2011,000000	14,373000
2010,000000	14,334800
2009,000000	14,312900
2008,000000	14,266500
2007,000000	14,233600
2006,000000	14,203000
2005,000000	14,165200
2004,000000	14,106600
2003,000000	14,044100
2002,000000	13,997000
2001,000000	13,947100
2000,000000	13,898800
1999,000000	13,836000
1998,000000	13,776100
1997,000000	13,706900
1996,000000	13,642200
1995,000000	13,590500
1994,000000	13,524000
1993,000000	13,463000
1992,000000	13,374000
1991,000000	13,302000
1990,000000	13,250400
1989,000000	13,172900
1988,000000	13,083200
1987,000000	13,016000
1986,000000	12,935200
1985,000000	12,870200
1984,000000	12,779800
1983,000000	12,708700
1982,000000	12,613500
1981,000000	12,548200
1980,000000	12,469100
1979,000000	12,388500
1978,000000	12,311200
1977,000000	12,248600
1976,000000	12,150800
1975,000000	12,085300
1974,000000	12,013500
1973,000000	11,927000
1972,000000	11,862500
1971,000000	11,796500
1970,000000	11,700900
1969,000000	11,640000
1968,000000	11,579000
1967,000000	11,506000
1966,000000	11,418400
1965,000000	11,378200
1964,000000	11,299600
1963,000000	11,211800
1962,000000	11,158200
1961,000000	11,088000
1960,000000	11,010900
1959,000000	10,969000
1958,000000	10,885200
1957,000000	10,835700
1956,000000	10,777200
1955,000000	10,705100
1954,000000	10,657700
1953,000000	10,595100
1952,000000	10,521500
1951,000000	10,480800
1950,000000	10,419200
1949,000000	10,374100
1948,000000	10,347400
1947,000000	10,289700
1946,000000	10,246000
1945,000000	10,204400
1944,000000	10,181800
1943,000000	10,155300
1942,000000	10,122100
1941,000000	10,125200
1940,000000	10,098400
1939,000000	10,052900
1938,000000	10,065100
1937,000000	10,073100
1936,000000	10,049500
1935,000000	10,096200
1934,000000	10,104400
1933,000000	10,117100
1932,000000	10,147300
1931,000000	10,175200
1930,000000	10,228100
1929,000000	10,262200
1928,000000	10,340400
1927,000000	10,385700
1926,000000	10,466700
1925,000000	10,539400
1924,000000	10,616800
1923,000000	10,704200
1922,000000	10,806600
1921,000000	10,918700
1920,000000	11,057000
1919,000000	11,209000
1918,000000	11,316400
1917,000000	11,454900
1916,000000	11,605500
1915,000000	11,728300
1914,000000	11,899300
1913,000000	12,070700
1912,000000	12,278200
1911,000000	12,471800
1910,000000	12,646600
1909,000000	12,853700
1908,000000	13,024200
1907,000000	13,235300
1906,000000	13,507100
1905,000000	13,779700
1904,000000	14,034400
1903,000000	14,324600
1902,000000	14,589500
1901,000000	14,884000
1900,000000	15,190800
1899,000000	15,550300
1898,000000	15,904300
1897,000000	16,244800
1896,000000	16,564300
1895,000000	16,900900
1894,000000	17,223300
1893,000000	17,580000
1892,000000	17,971600
1891,000000	18,418700
1890,000000	18,850700
1889,000000	19,250100
1888,000000	19,687500
1887,000000	20,090500
1886,000000	20,508400
1885,000000	20,890300
1884,000000	21,346700
1883,000000	21,824700
1882,000000	22,257000
1881,000000	22,681000
1880,000000	23,100900
1879,000000	23,459500
1878,000000	23,840500
1877,000000	24,211700
1876,000000	24,577200
1875,000000	24,931700
1874,000000	25,263600
1873,000000	25,595100
1872,000000	25,941700
1871,000000	26,238000
1870,000000	26,549700
1869,000000	26,802000
1868,000000	27,054400
1867,000000	27,238500
1866,000000	27,405600
1865,000000	27,550200
1864,000000	27,706500
1863,000000	27,833700
1862,000000	27,957600
1861,000000	28,111300
1860,000000	28,251100
1859,000000	28,380100
1858,000000	28,489000
1857,000000	28,592500
1856,000000	28,656100
1855,000000	28,702000
1854,000000	28,793200
1853,000000	28,847200
1852,000000	28,880200
1851,000000	28,893300
1850,000000	28,948600
1849,000000	29,000600
1848,000000	29,034500
1847,000000	29,063200
1846,000000	29,041500
1845,000000	28,996000
1844,000000	29,021700
1843,000000	29,009900
1842,000000	29,050700
1841,000000	29,095500
1840,000000	29,076500
1839,000000	29,070100
1838,000000	29,055700
1837,000000	29,043300
1836,000000	29,031400
1835,000000	29,009600
1834,000000	28,966500
1833,000000	28,910400
1832,000000	28,873700
1831,000000	28,854500
1830,000000	28,838700
1829,000000	28,802200
1828,000000	28,765600
1827,000000	28,732500
1826,000000	28,689700
1825,000000	28,652600
1824,000000	28,621100
1823,000000	28,609100
1822,000000	28,605200
1821,000000	28,613500
1820,000000	28,589200
1819,000000	28,556700
1818,000000	28,530000
1817,000000	28,502800
1816,000000	28,479700
1815,000000	28,473400
1814,000000	28,457300
1813,000000	28,445800
1812,000000	28,438300
1811,000000	28,413600
1810,000000	28,380700
1809,000000	28,352200
1808,000000	28,338400
1807,000000	28,316000
1806,000000	28,291300
1805,000000	28,256800
1804,000000	28,221700
1803,000000	28,204700
1802,000000	28,179400
1801,000000	28,152300
1800,000000	28,127700
1799,000000	28,089600
1798,000000	28,059700
1797,000000	28,031700
1796,000000	28,001700
1795,000000	27,979600
1794,000000	27,949700
1793,000000	27,915600
1792,000000	27,887100
1791,000000	27,862200
1790,000000	27,847100
1789,000000	27,825300
1788,000000	27,797100
1787,000000	27,777000
1786,000000	27,748100
1785,000000	27,724200
1784,000000	27,698000
1783,000000	27,664200
1782,000000	27,637900
1781,000000	27,611700
1780,000000	27,580300
1779,000000	27,557900
1778,000000	27,534800
1777,000000	27,499800
1776,000000	27,455100
1775,000000	27,417200
1774,000000	27,379900
1773,000000	27,343700
1772,000000	27,298400
1771,000000	27,251800
1770,000000	27,193800
1769,000000	27,154600
1768,000000	27,123900
1767,000000	27,074200
1766,000000	27,029200
1765,000000	26,994500
1764,000000	26,968900
1763,000000	26,964900
1762,000000	26,970500
1761,000000	26,971600
1760,000000	26,989400
1759,000000	27,012000
1758,000000	27,060200
1757,000000	27,107000
1756,000000	27,149200
1755,000000	27,183200
1754,000000	27,224900
1753,000000	27,262400
1752,000000	27,290500
1751,000000	27,310100
1750,000000	27,321000
1749,000000	27,320100
1748,000000	27,315600
1747,000000	27,299600
1746,000000	27,279200
1745,000000	27,245100
1744,000000	27,198900
1743,000000	27,142000
1742,000000	27,070700
1741,000000	26,999700
1740,000000	26,917500
1739,000000	26,825500
1738,000000	26,721400
1737,000000	26,625400
1736,000000	26,544500
1735,000000	26,475700
1734,000000	26,421400
1733,000000	26,388200
1732,000000	26,374100
1731,000000	26,363200
1730,000000	26,365000
1729,000000	26,389600
1728,000000	26,424800
1727,000000	26,482100
1726,000000	26,535400
1725,000000	26,579800
1724,000000	26,608600
1723,000000	26,636300
1722,000000	26,700200
1721,000000	26,739000
1720,000000	26,805500
1719,000000	26,860300
1718,000000	26,911600
1717,000000	26,996700
1716,000000	27,063100
1715,000000	27,152000
1714,000000	27,234800
1713,000000	27,325000
1712,000000	27,381900
1711,000000	27,425800
1710,000000	27,479100
1709,000000	27,535600
1708,000000	27,557300
1707,000000	27,582100
1706,000000	27,592400
1705,000000	27,568300
1704,000000	27,555500
1703,000000	27,539000
1702,000000	27,507800
1701,000000	27,443000
1700,000000	27,386400
1699,000000	27,322000
1698,000000	27,243400
1697,000000	27,198200
1696,000000	27,127600
1695,000000	27,093600
1694,000000	27,065400
1693,000000	27,061200
1692,000000	27,109600
1691,000000	27,150100
1690,000000	27,208500
1689,000000	27,276800
1688,000000	27,340200
1687,000000	27,381100
1686,000000	27,415700
1685,000000	27,486500
1684,000000	27,567400
1683,000000	27,664700
1682,000000	27,781300
1681,000000	27,954000
1680,000000	28,146900
1679,000000	28,378500
1678,000000	28,626500
1677,000000	28,892200
1676,000000	29,140200
1675,000000	29,366900
1674,000000	29,589400
1673,000000	29,773300
1672,000000	29,935000
1671,000000	30,088300
1670,000000	30,241100
1669,000000	30,375600
1668,000000	30,479500
1667,000000	30,561300
1666,000000	30,641800
1665,000000	30,713700
1664,000000	30,783800
1663,000000	30,836500
1662,000000	30,894900
1661,000000	30,953200
1660,000000	30,988500
1659,000000	31,041900
1658,000000	31,064200
1657,000000	31,076600
1656,000000	31,095400
1655,000000	31,110900
1654,000000	31,146000
1653,000000	31,140000
1652,000000	31,144900
1651,000000	31,128400
1650,000000	31,116500
1649,000000	31,121600
1648,000000	31,085600
1647,000000	31,062100
1646,000000	31,031100
1645,000000	31,021500
1644,000000	31,001800
1643,000000	30,969000
1642,000000	30,937800
1641,000000	30,889200
1640,000000	30,866700
1639,000000	30,821800
1638,000000	30,792300
1637,000000	30,775200
1636,000000	30,724600
1635,000000	30,677400
1634,000000	30,648000
1633,000000	30,615500
1632,000000	30,559900
1631,000000	30,516700
1630,000000	30,471800
1629,000000	30,405400
1628,000000	30,349300
1627,000000	30,313400
1626,000000	30,267300
1625,000000	30,217200
1624,000000	30,181600
1623,000000	30,126800
1622,000000	30,064600
1621,000000	30,005100
1620,000000	29,987700
1619,000000	29,944600
1618,000000	29,899200
1617,000000	29,851300
1616,000000	29,791600
1615,000000	29,745800
1614,000000	29,694600
1613,000000	29,661200
1612,000000	29,630900
1611,000000	29,572500
1610,000000	29,528700
1609,000000	29,481900
1608,000000	29,461500
1607,000000	29,402200
1606,000000	29,354800
1605,000000	29,308400
1604,000000	29,254300
1603,000000	29,195400
1602,000000	29,154700
1601,000000	29,098600
1600,000000	29,053100
1599,000000	29,002500
1598,000000	28,954300
1597,000000	28,901900
1596,000000	28,859100
1595,000000	28,796400
1594,000000	28,756900
1593,000000	28,728200
1592,000000	28,679500
1591,000000	28,636000
1590,000000	28,597500
1589,000000	28,534800
1588,000000	28,498400
1587,000000	28,456500
1586,000000	28,426400
1585,000000	28,376500
1584,000000	28,332700
1583,000000	28,297700
1582,000000	28,259100
1581,000000	28,209400
1580,000000	28,190300
1579,000000	28,146200
1578,000000	28,113300
1577,000000	28,066400
1576,000000	28,036400
1575,000000	28,016400
1574,000000	28,002100
1573,000000	27,978200
1572,000000	27,937200
1571,000000	27,918400
1570,000000	27,900200
1569,000000	27,888300
1568,000000	27,875600
1567,000000	27,866500
1566,000000	27,855700
1565,000000	27,837200
1564,000000	27,810100
1563,000000	27,795300
1562,000000	27,780800
1561,000000	27,747500
1560,000000	27,734200
1559,000000	27,714500
1558,000000	27,690600
1557,000000	27,647900
1556,000000	27,609400
1555,000000	27,574100
1554,000000	27,546000
1553,000000	27,507000
1552,000000	27,463200
1551,000000	27,427500
1550,000000	27,377500
1549,000000	27,330700
1548,000000	27,287900
1547,000000	27,238600
1546,000000	27,199900
1545,000000	27,148700
1544,000000	27,116500
1543,000000	27,093200
1542,000000	27,045600
1541,000000	27,000700
1540,000000	26,956600
1539,000000	26,919200
1538,000000	26,885600
1537,000000	26,859900
1536,000000	26,833800
1535,000000	26,789500
1534,000000	26,748800
1533,000000	26,716500
1532,000000	26,680800
1531,000000	26,635900
1530,000000	26,588200
1529,000000	26,554500
1528,000000	26,506900
1527,000000	26,443400
1526,000000	26,399100
1525,000000	26,360900
1524,000000	26,306300
1523,000000	26,264900
1522,000000	26,214900
1521,000000	26,162300
1520,000000	26,121700
1519,000000	26,068900
1518,000000	26,018600
1517,000000	25,971800
1516,000000	25,905400
1515,000000	25,833900
1514,000000	25,777900
1513,000000	25,721600
1512,000000	25,664700
1511,000000	25,612800
1510,000000	25,541500
1509,000000	25,477400
1508,000000	25,433500
1507,000000	25,375000
1506,000000	25,313400
1505,000000	25,248500
1504,000000	25,184600
1503,000000	25,125100
1502,000000	25,069500
1501,000000	25,013000
1500,000000	24,961600
1499,000000	24,911300
1498,000000	24,860000
1497,000000	24,817200
1496,000000	24,771000
1495,000000	24,710300
1494,000000	24,661900
1493,000000	24,618600
1492,000000	24,568700
1491,000000	24,531100
1490,000000	24,510900
1489,000000	24,472500
1488,000000	24,427400
1487,000000	24,390200
1486,000000	24,354400
1485,000000	24,332900
1484,000000	24,292600
1483,000000	24,252700
1482,000000	24,223200
1481,000000	24,194200
1480,000000	24,182100
1479,000000	24,158000
1478,000000	24,144400
1477,000000	24,131600
1476,000000	24,093700
1475,000000	24,071400
1474,000000	24,064000
1473,000000	24,057600
1472,000000	24,065700
1471,000000	24,063800
1470,000000	24,046100
1469,000000	24,040900
1468,000000	24,031600
1467,000000	24,044100
1466,000000	24,061700
1465,000000	24,074500
1464,000000	24,080500
1463,000000	24,088500
1462,000000	24,108200
1461,000000	24,131100
1460,000000	24,152000
1459,000000	24,182400
1458,000000	24,211200
1457,000000	24,249500
1456,000000	24,290200
1455,000000	24,344000
1454,000000	24,383200
1453,000000	24,411100
1452,000000	24,473200
1451,000000	24,529000
1450,000000	24,589000
1449,000000	24,615500
1448,000000	24,671100
1447,000000	24,743600
1446,000000	24,817900
1445,000000	24,893500
1444,000000	24,959200
1443,000000	25,010200
1442,000000	25,077600
1441,000000	25,147300
1440,000000	25,213400
1439,000000	25,305600
1438,000000	25,384300
1437,000000	25,466300
1436,000000	25,563900
1435,000000	25,653500
1434,000000	25,759400
1433,000000	25,843400
1432,000000	25,970200
1431,000000	26,068400
1430,000000	26,174400
1429,000000	26,292600
1428,000000	26,415100
1427,000000	26,533100
1426,000000	26,672000
1425,000000	26,846200
1424,000000	27,029000
1423,000000	27,195700
1422,000000	27,359800
1421,000000	27,507900
1420,000000	27,697800
1419,000000	27,894800
1418,000000	28,076400
1417,000000	28,298700
1416,000000	28,471400
1415,000000	28,701800
1414,000000	28,953900
1413,000000	29,198500
1412,000000	29,414000
1411,000000	29,637500
1410,000000	29,917900
1409,000000	30,236900
1408,000000	30,508100
1407,000000	30,819700
1406,000000	31,115600
1405,000000	31,420500
1404,000000	31,718000
1403,000000	32,066300
1402,000000	32,356800
1401,000000	32,705800
1400,000000	33,087800
1399,000000	33,412000
1398,000000	33,670400
1397,000000	33,932700
1396,000000	34,267600
1395,000000	34,654100
1394,000000	34,981200
1393,000000	35,237100
1392,000000	35,538300
1391,000000	35,868600
1390,000000	36,200700
1389,000000	36,513100
1388,000000	36,911400
1387,000000	37,302100
1386,000000	37,700200
1385,000000	38,063700
1384,000000	38,499800
1383,000000	38,901700
1382,000000	39,285300
1381,000000	39,647300
1380,000000	39,914000
1379,000000	40,143300
1378,000000	40,358800
1377,000000	40,531800
1376,000000	40,710900
1375,000000	40,871800
1374,000000	41,034700
1373,000000	41,225100
1372,000000	41,452600
1371,000000	41,694800
1370,000000	41,888200
1369,000000	42,078800
1368,000000	42,334100
1367,000000	42,519500
1366,000000	42,674200
1365,000000	42,807600
1364,000000	43,000800
1363,000000	43,109600
1362,000000	43,229100
1361,000000	43,377400
1360,000000	43,466600
1359,000000	43,489700
1358,000000	43,605700
1357,000000	43,694200
1356,000000	43,798700
1355,000000	43,937700
1354,000000	44,126200
1353,000000	44,326600
1352,000000	44,520300
1351,000000	44,815000
1350,000000	45,101300
1349,000000	45,371600
1348,000000	45,634500
1347,000000	45,882700
1346,000000	46,084700
1345,000000	46,311500
1344,000000	46,544800
1343,000000	46,789200
1342,000000	47,006700
1341,000000	47,197300
1340,000000	47,419700
1339,000000	47,637600
1338,000000	47,863400
1337,000000	48,070800
1336,000000	48,298100
1335,000000	48,510800
1334,000000	48,698100
1333,000000	48,904900
1332,000000	49,107800
1331,000000	49,311400
1330,000000	49,500100
1329,000000	49,680300
1328,000000	49,867500
1327,000000	50,054300
1326,000000	50,221200
1325,000000	50,387000
1324,000000	50,559800
1323,000000	50,718300
1322,000000	50,847500
1321,000000	51,007000
1320,000000	51,161900
1319,000000	51,302000
1318,000000	51,429000
1317,000000	51,556900
1316,000000	51,686200
1315,000000	51,813600
1314,000000	51,941600
1313,000000	52,058300
1312,000000	52,159000
1311,000000	52,262700
1310,000000	52,351400
1309,000000	52,454300
1308,000000	52,539700
1307,000000	52,630100
1306,000000	52,709400
1305,000000	52,784100
1304,000000	52,844500
1303,000000	52,905800
1302,000000	52,972500
1301,000000	53,025700
1300,000000	53,076100
1299,000000	53,119500
1298,000000	53,153000
1297,000000	53,190000
1296,000000	53,218100
1295,000000	53,251700
1294,000000	53,283500
1293,000000	53,309700
1292,000000	53,325900
1291,000000	53,342800
1290,000000	53,364200
1289,000000	53,371600
1288,000000	53,364200
1287,000000	53,356800
1286,000000	53,355100
1285,000000	53,346700
1284,000000	53,330900
1283,000000	53,315000
1282,000000	53,308100
1281,000000	53,283300
1280,000000	53,250600
1279,000000	53,229400
1278,000000	53,210400
1277,000000	53,185200
1276,000000	53,162100
1275,000000	53,135300
1274,000000	53,125000
1273,000000	53,103900
1272,000000	53,092600
1271,000000	53,084400
1270,000000	53,076500
1269,000000	53,059900
1268,000000	53,047100
1267,000000	53,028300
1266,000000	53,021200
1265,000000	52,999200
1264,000000	52,972600
1263,000000	52,947600
1262,000000	52,931300
1261,000000	52,906500
1260,000000	52,885600
1259,000000	52,866300
1258,000000	52,860800
1257,000000	52,827300
1256,000000	52,790000
1255,000000	52,759000
1254,000000	52,743900
1253,000000	52,705600
1252,000000	52,657600
1251,000000	52,610800
1250,000000	52,574400
1249,000000	52,539500
1248,000000	52,493600
1247,000000	52,429100
1246,000000	52,368300
1245,000000	52,308500
1244,000000	52,228700
1243,000000	52,157700
1242,000000	52,084800
1241,000000	52,019500
1240,000000	51,933600
1239,000000	51,860000
1238,000000	51,792700
1237,000000	51,702400
1236,000000	51,618200
1235,000000	51,542600
1234,000000	51,462400
1233,000000	51,376100
1232,000000	51,289700
1231,000000	51,184900
1230,000000	51,073500
1229,000000	50,979600
1228,000000	50,883400
1227,000000	50,781700
1226,000000	50,675600
1225,000000	50,570400
1224,000000	50,464200
1223,000000	50,358200
1222,000000	50,250200
1221,000000	50,147000
1220,000000	50,040200
1219,000000	49,926700
1218,000000	49,819300
1217,000000	49,725200
1216,000000	49,624400
1215,000000	49,517900
1214,000000	49,429500
1213,000000	49,347800
1212,000000	49,253000
1211,000000	49,168600
1210,000000	49,088900
1209,000000	48,994000
1208,000000	48,918000
1207,000000	48,842400
1206,000000	48,777200
1205,000000	48,720100
1204,000000	48,667800
1203,000000	48,625100
1202,000000	48,584000
1201,000000	48,547100
1200,000000	48,518800
1199,000000	48,478100
1198,000000	48,431800
1197,000000	48,374300
1196,000000	48,288700
1195,000000	48,193400
1194,000000	48,073100
1193,000000	47,914700
1192,000000	47,733000
1191,000000	47,537200
1190,000000	47,330000
1189,000000	47,119500
1188,000000	46,916900
1187,000000	46,776200
1186,000000	46,687800
1185,000000	46,657700
1184,000000	46,675000
1183,000000	46,767300
1182,000000	46,927000
1181,000000	47,142800
1180,000000	47,405500
1179,000000	47,687300
1178,000000	47,947100
1177,000000	48,199200
1176,000000	48,430200
1175,000000	48,639000
1174,000000	48,831200
1173,000000	49,024200
1172,000000	49,209500
1171,000000	49,395000
1170,000000	49,588800
1169,000000	49,785800
1168,000000	50,010000
1167,000000	50,228800
1166,000000	50,424800
1165,000000	50,637700
1164,000000	50,879400
1163,000000	51,108900
1162,000000	51,356600
1161,000000	51,594100
1160,000000	51,821200
1159,000000	52,079500
1158,000000	52,309800
1157,000000	52,549200
1156,000000	52,779700
1155,000000	52,971300
1154,000000	53,166700
1153,000000	53,343700
1152,000000	53,498600
1151,000000	53,635400
1150,000000	53,731600
1149,000000	53,842100
1148,000000	53,948300
1147,000000	54,076300
1146,000000	54,193300
1145,000000	54,350100
1144,000000	54,530800
1143,000000	54,738700
1142,000000	54,990000
1141,000000	55,245500
1140,000000	55,515600
1139,000000	55,798700
1138,000000	56,093800
1137,000000	56,415900
1136,000000	56,737600
1135,000000	57,084900
1134,000000	57,435600
1133,000000	57,741200
1132,000000	58,025400
1131,000000	58,282500
1130,000000	58,537300
1129,000000	58,773100
1128,000000	58,974800
1127,000000	59,142400
1126,000000	59,275400
1125,000000	59,396700
1124,000000	59,494700
1123,000000	59,574100
1122,000000	59,660800
1121,000000	59,709600
1120,000000	59,761400
1119,000000	59,802800
1118,000000	59,824400
1117,000000	59,859500
1116,000000	59,885800
1115,000000	59,889000
1114,000000	59,906500
1113,000000	59,899800
1112,000000	59,908200
1111,000000	59,912900
1110,000000	59,915600
1109,000000	59,915400
1108,000000	59,916700
1107,000000	59,918300
1106,000000	59,936000
1105,000000	59,949100
1104,000000	59,939000
1103,000000	59,929000
1102,000000	59,944700
1101,000000	59,944700
1100,000000	59,959200
1099,000000	59,963800
1098,000000	59,940700
1097,000000	59,955200
1096,000000	59,965200
1095,000000	59,941400
1094,000000	59,935600
1093,000000	59,923500
1092,000000	59,899300
1091,000000	59,897700
1090,000000	59,877900
1089,000000	59,866200
1088,000000	59,856000
1087,000000	59,845900
1086,000000	59,809900
1085,000000	59,803400
1084,000000	59,760300
1083,000000	59,761600
1082,000000	59,732100
1081,000000	59,728400
1080,000000	59,685400
1079,000000	59,676200
1078,000000	59,645800
1077,000000	59,626900
1076,000000	59,586800
1075,000000	59,582700
1074,000000	59,562300
1073,000000	59,541400
1072,000000	59,508700
1071,000000	59,478500
1070,000000	59,449800
1069,000000	59,450400
1068,000000	59,423300
1067,000000	59,409600
1066,000000	59,377100
1065,000000	59,350800
1064,000000	59,342500
1063,000000	59,337600
1062,000000	59,312500
1061,000000	59,309900
1060,000000	59,283200
1059,000000	59,277900
1058,000000	59,237200
1057,000000	59,233700
1056,000000	59,218000
1055,000000	59,212500
1054,000000	59,182100
1053,000000	59,159300
1052,000000	59,165900
1051,000000	59,154400
1050,000000	59,151100
1049,000000	59,144600
1048,000000	59,140000
1047,000000	59,137700
1046,000000	59,143800
1045,000000	59,161500
1044,000000	59,159400
1043,000000	59,156300
1042,000000	59,146700
1041,000000	59,161300
1040,000000	59,175900
1039,000000	59,192700
1038,000000	59,181100
1037,000000	59,206500
1036,000000	59,215800
1035,000000	59,235300
1034,000000	59,234000
1033,000000	59,254700
1032,000000	59,256500
1031,000000	59,252600
1030,000000	59,285500
1029,000000	59,296800
1028,000000	59,317900
1027,000000	59,319800
1026,000000	59,327500
1025,000000	59,346500
1024,000000	59,361100
1023,000000	59,387800
1022,000000	59,411100
1021,000000	59,434500
1020,000000	59,477400
1019,000000	59,504800
1018,000000	59,541600
1017,000000	59,587400
1016,000000	59,622300
1015,000000	59,665600
1014,000000	59,715500
1013,000000	59,795600
1012,000000	59,832800
1011,000000	59,915800
1010,000000	59,981500
1009,000000	60,065900
1008,000000	60,146900
1007,000000	60,240900
1006,000000	60,334200
1005,000000	60,436900
1004,000000	60,530100
1003,000000	60,622900
1002,000000	60,725500
1001,000000	60,830900
1000,000000	60,930300
999,000000	61,028500
998,000000	61,144000
997,000000	61,259000
996,000000	61,356200
995,000000	61,462800
994,000000	61,598500
993,000000	61,721900
992,000000	61,832100
991,000000	61,947700
990,000000	62,065700
989,000000	62,205200
988,000000	62,348200
987,000000	62,475500
986,000000	62,598100
985,000000	62,741200
984,000000	62,883600
983,000000	63,034300
982,000000	63,172100
981,000000	63,322300
980,000000	63,459400
979,000000	63,600700
978,000000	63,756400
977,000000	63,908400
976,000000	64,059700
975,000000	64,210300
974,000000	64,341400
973,000000	64,483600
972,000000	64,657400
971,000000	64,818300
970,000000	64,948300
969,000000	65,088200
968,000000	65,246500
967,000000	65,395900
966,000000	65,542900
965,000000	65,708800
964,000000	65,868300
963,000000	66,019800
962,000000	66,177200
961,000000	66,347800
960,000000	66,512800
959,000000	66,663400
958,000000	66,825400
957,000000	66,989700
956,000000	67,135900
955,000000	67,288900
954,000000	67,449600
953,000000	67,607000
952,000000	67,765600
951,000000	67,914600
950,000000	68,065500
949,000000	68,217700
948,000000	68,351600
947,000000	68,486700
946,000000	68,642600
945,000000	68,793200
944,000000	68,927900
943,000000	69,062500
942,000000	69,201500
941,000000	69,320700
940,000000	69,434300
939,000000	69,566300
938,000000	69,701000
937,000000	69,826600
936,000000	69,935300
935,000000	70,047300
934,000000	70,164500
933,000000	70,276700
932,000000	70,404200
931,000000	70,501100
930,000000	70,590200
929,000000	70,711300
928,000000	70,805700
927,000000	70,894400
926,000000	70,983200
925,000000	71,072800
924,000000	71,181500
923,000000	71,266600
922,000000	71,347400
921,000000	71,441600
920,000000	71,525200
919,000000	71,603700
918,000000	71,680500
917,000000	71,762800
916,000000	71,835700
915,000000	71,902200
914,000000	71,971600
913,000000	72,064800
912,000000	72,118500
911,000000	72,181700
910,000000	72,256300
909,000000	72,306000
908,000000	72,380200
907,000000	72,446200
906,000000	72,499600
905,000000	72,579400
904,000000	72,651200
903,000000	72,718900
902,000000	72,785500
901,000000	72,855200
900,000000	72,922400
899,000000	73,001400
898,000000	73,082900
897,000000	73,152100
896,000000	73,216300
895,000000	73,278600
894,000000	73,334900
893,000000	73,392800
892,000000	73,458100
891,000000	73,497500
890,000000	73,546300
889,000000	73,597700
888,000000	73,673800
887,000000	73,737200
886,000000	73,788300
885,000000	73,840300
884,000000	73,885900
883,000000	73,925300
882,000000	73,993300
881,000000	74,033500
880,000000	74,086400
879,000000	74,110500
878,000000	74,134600
877,000000	74,161500
876,000000	74,189600
875,000000	74,162700
874,000000	74,115700
873,000000	74,051900
872,000000	74,006700
871,000000	74,033400
870,000000	74,163900
869,000000	74,322100
868,000000	74,466800
867,000000	74,598400
866,000000	74,721400
865,000000	74,854800
864,000000	74,994200
863,000000	75,129800
862,000000	75,264500
861,000000	75,393100
860,000000	75,541500
859,000000	75,678100
858,000000	75,820000
857,000000	79,297600
856,000000	79,711100
855,000000	80,038700
854,000000	79,968300
853,000000	80,339700
852,000000	80,109000
851,000000	80,071600
850,000000	80,466600
849,000000	80,507500
848,000000	81,092300
847,000000	81,261800
846,000000	80,952500
845,000000	81,062200
844,000000	81,432300
843,000000	81,184100
842,000000	81,664600
841,000000	81,877900
840,000000	81,871700
839,000000	81,909500
838,000000	82,085700
837,000000	82,038500
836,000000	82,119500
835,000000	82,248100
834,000000	82,541500
833,000000	82,613900
832,000000	82,743500
831,000000	82,860900
830,000000	83,221900
829,000000	83,141100
828,000000	83,014600
827,000000	83,270600
826,000000	83,529900
825,000000	83,417600
824,000000	83,694700
823,000000	83,758500
822,000000	84,005600
821,000000	83,937400
820,000000	84,165900
819,000000	84,138900
818,000000	84,346400
817,000000	84,797400
816,000000	84,639200
815,000000	84,642700
814,000000	84,775700
813,000000	84,785900
812,000000	84,838700
811,000000	84,981900
810,000000	84,919300
809,000000	85,135600
808,000000	85,216300
807,000000	85,023900
806,000000	85,022300
805,000000	85,231300
804,000000	85,090600
803,000000	85,114100
802,000000	85,225000
801,000000	85,063500
800,000000	85,096300
799,000000	85,202500
798,000000	84,926200
797,000000	84,858600
796,000000	84,972700
795,000000	85,110600
794,000000	85,073200
793,000000	84,900200
792,000000	84,914000
791,000000	85,200500
790,000000	85,128000
789,000000	85,276300
788,000000	85,365400
787,000000	85,394400
786,000000	85,444200
785,000000	85,772700
784,000000	85,731200
783,000000	85,868900
782,000000	86,076000
781,000000	86,024400
780,000000	86,211800
779,000000	86,440400
778,000000	86,541100
777,000000	86,593900
776,000000	86,745000
775,000000	86,639400
774,000000	86,765500
773,000000	86,759600
772,000000	86,830000
771,000000	86,865600
770,000000	87,002400
769,000000	86,950400
768,000000	86,673900
767,000000	86,632200
766,000000	86,724000
765,000000	86,514200
764,000000	86,295000
763,000000	86,273600
762,000000	86,036400
761,000000	85,783000
760,000000	85,680700
759,000000	85,464800
758,000000	85,194700
757,000000	84,778300
756,000000	84,562200
755,000000	84,322200
754,000000	84,090000
753,000000	83,663800
752,000000	83,353200
751,000000	83,069900
750,000000	82,605300
749,000000	82,369800
748,000000	81,913700
747,000000	81,562900
746,000000	81,133600
745,000000	80,756100
744,000000	80,416000
743,000000	80,139700
742,000000	79,731200
741,000000	79,426900
740,000000	79,056200
739,000000	78,670300
738,000000	78,286500
737,000000	77,938200
736,000000	77,610700
735,000000	77,270700
734,000000	76,982100
733,000000	76,600500
732,000000	76,289500
731,000000	75,832300
730,000000	75,517000
729,000000	75,219700
728,000000	74,921600
727,000000	74,567300
726,000000	74,247000
725,000000	73,992600
724,000000	73,756700
723,000000	73,406700
722,000000	73,157500
721,000000	72,962000
720,000000	72,663900
719,000000	72,479600
718,000000	72,348900
717,000000	72,255900
716,000000	72,094400
715,000000	72,003300
714,000000	71,962800
713,000000	71,859200
712,000000	71,850300
711,000000	71,852500
710,000000	71,789100
709,000000	71,750600
708,000000	71,753700
707,000000	71,693100
706,000000	71,672400
705,000000	71,659200
704,000000	71,681700
703,000000	71,671300
702,000000	71,579600
701,000000	71,611900
700,000000	71,566700
699,000000	71,594500
698,000000	71,565400
697,000000	71,570400
696,000000	71,521600
695,000000	71,466700
694,000000	71,440200
693,000000	71,352700
692,000000	71,284100
691,000000	71,132900
690,000000	71,005700
689,000000	70,861700
688,000000	70,653300
687,000000	70,447300
686,000000	70,208100
685,000000	69,942400
684,000000	69,634000
683,000000	69,399600
682,000000	69,092500
681,000000	68,811800
680,000000	68,595500
679,000000	68,313900
678,000000	68,027100
677,000000	67,778800
676,000000	67,525600
675,000000	67,221000
674,000000	66,915100
673,000000	66,578800
672,000000	66,173000
671,000000	65,772100
670,000000	65,312300
669,000000	64,807600
668,000000	64,261100
667,000000	63,688900
666,000000	63,098600
665,000000	62,449000
664,000000	61,800500
663,000000	61,145400
662,000000	60,498300
661,000000	59,922000
660,000000	59,339700
659,000000	58,772700
658,000000	58,248600
657,000000	57,764200
656,000000	57,324400
655,000000	56,875000
654,000000	56,406600
653,000000	55,993900
652,000000	55,573700
651,000000	55,208100
650,000000	54,853100
649,000000	54,481500
648,000000	54,190000
647,000000	53,997800
646,000000	53,881000
645,000000	53,833000
644,000000	53,939300
643,000000	54,159600
642,000000	54,463400
641,000000	54,899600
640,000000	55,467200
639,000000	56,165800
638,000000	56,912000
637,000000	57,732200
636,000000	58,596500
635,000000	59,496100
634,000000	60,453200
633,000000	61,383100
632,000000	62,352100
631,000000	63,330200
630,000000	64,277400
629,000000	65,212300
628,000000	66,164700
627,000000	67,057600
626,000000	67,968000
625,000000	68,918500
624,000000	69,835300
623,000000	70,737100
622,000000	71,689900
621,000000	72,618400
620,000000	73,521800
619,000000	74,420500
618,000000	75,315800
617,000000	76,136000
616,000000	76,913700
615,000000	77,641800
614,000000	78,292900
613,000000	78,937700
612,000000	79,549000
611,000000	80,139100
610,000000	80,691800
609,000000	81,226800
608,000000	81,746500
607,000000	82,216500
606,000000	82,734900
605,000000	83,201600
604,000000	83,684700
603,000000	84,196100
602,000000	84,621400
601,000000	85,037300
600,000000	85,476100
599,000000	85,901100
598,000000	86,259800
597,000000	86,635600
596,000000	86,998000
595,000000	87,359100
594,000000	87,678900
593,000000	87,961200
592,000000	88,198800
591,000000	88,479200
590,000000	88,734000
589,000000	88,933100
588,000000	89,074900
587,000000	89,241500
586,000000	89,376700
585,000000	89,511800
584,000000	89,614600
583,000000	89,632000
582,000000	89,639700
581,000000	89,662900
580,000000	89,699100
579,000000	89,672400
578,000000	89,613800
577,000000	89,588900
576,000000	89,528100
575,000000	89,470500
574,000000	89,431700
573,000000	89,350300
572,000000	89,248700
571,000000	89,178700
570,000000	89,046000
569,000000	88,938400
568,000000	88,817500
567,000000	88,648600
566,000000	88,490600
565,000000	88,342200
564,000000	88,134900
563,000000	87,891600
562,000000	87,640600
561,000000	87,395300
560,000000	87,090900
559,000000	86,802200
558,000000	86,494800
557,000000	86,189100
556,000000	85,825600
555,000000	85,426000
554,000000	85,084100
553,000000	84,722200
552,000000	84,291500
551,000000	83,872600
550,000000	83,415100
549,000000	82,966100
548,000000	82,481900
547,000000	81,971500
546,000000	81,421300
545,000000	80,810500
544,000000	80,227700
543,000000	79,573200
542,000000	78,879200
541,000000	78,146400
540,000000	77,430100
539,000000	76,598600
538,000000	75,781100
537,000000	74,899000
536,000000	73,984600
535,000000	73,011200
534,000000	71,961200
533,000000	70,861300
532,000000	69,686300
531,000000	68,456600
530,000000	67,206900
529,000000	65,891800
528,000000	64,488500
527,000000	63,051000
526,000000	61,593800
525,000000	60,119000
524,000000	58,594000
523,000000	57,057600
522,000000	55,527700
521,000000	53,990600
520,000000	52,505400
519,000000	51,043800
518,000000	49,672000
517,000000	48,371700
516,000000	47,087700
515,000000	45,923300
514,000000	44,818600
513,000000	43,787500
512,000000	42,843500
511,000000	41,916800
510,000000	41,144100
509,000000	40,457500
508,000000	39,799100
507,000000	39,239100
506,000000	38,681400
505,000000	38,183200
504,000000	37,728600
503,000000	37,195800
502,000000	36,719200
501,000000	36,309900
500,000000	35,814600
499,000000	35,318200
498,000000	34,809400
497,000000	34,273700
496,000000	33,684200
495,000000	33,100800
494,000000	32,515400
493,000000	31,891200
492,000000	31,220500
491,000000	30,593800
490,000000	29,924200
489,000000	29,311200
488,000000	28,751000
487,000000	28,242800
486,000000	27,767300
485,000000	27,415400
484,000000	27,110300
483,000000	26,815000
482,000000	26,600000
481,000000	26,464900
480,000000	26,393100
479,000000	26,329400
478,000000	26,320100
477,000000	26,372500
476,000000	26,410100
475,000000	26,472700
474,000000	26,555900
473,000000	26,658700
472,000000	26,740300
471,000000	26,799800
470,000000	26,882100
469,000000	26,920000
468,000000	26,945400
467,000000	26,983000
466,000000	26,998800
465,000000	26,981300
464,000000	26,969800
463,000000	26,949700
462,000000	26,880300
461,000000	26,843200
460,000000	26,801200
459,000000	26,712300
458,000000	26,626400
457,000000	26,535600
456,000000	26,412000
455,000000	26,310700
454,000000	26,163100
453,000000	26,078600
452,000000	25,937500
451,000000	25,783200
450,000000	25,600500
449,000000	25,431600
448,000000	25,229200
447,000000	25,034200
446,000000	24,848200
445,000000	24,597900
444,000000	24,347500
443,000000	24,129400
442,000000	23,838100
441,000000	23,555600
440,000000	23,270000
439,000000	22,942700
438,000000	22,607800
437,000000	22,301000
436,000000	21,964300
435,000000	21,606400
434,000000	21,210500
433,000000	20,831600
432,000000	20,405900
431,000000	19,988500
430,000000	19,536900
429,000000	19,112500
428,000000	18,619900
427,000000	18,162300
426,000000	17,676100
425,000000	17,198900
424,000000	16,685600
423,000000	16,194700
422,000000	15,700200
421,000000	15,182800
420,000000	14,672300
419,000000	14,179100
418,000000	13,707200
417,000000	13,264600
416,000000	12,793700
415,000000	12,362400
414,000000	11,952800
413,000000	11,581800
412,000000	11,192700
411,000000	10,802500
410,000000	10,470800
409,000000	10,168100
408,000000	9,903600
407,000000	9,640700
406,000000	9,377200
405,000000	9,153200
404,000000	8,940200
403,000000	8,733600
402,000000	8,541200
401,000000	8,386600
400,000000	8,224700
399,000000	8,102400
398,000000	7,961000
397,000000	7,850900
396,000000	7,742600
395,000000	7,632500
394,000000	7,538800
393,000000	7,451000
392,000000	7,395500
391,000000	7,303500
390,000000	7,217600
389,000000	7,138800
388,000000	7,091100
387,000000	7,036200
386,000000	6,983300
385,000000	6,934100
384,000000	6,874700
383,000000	6,820300
382,000000	6,778400
381,000000	6,727100
380,000000	6,701100
379,000000	6,642700
378,000000	6,610700
377,000000	6,563000
376,000000	6,571300
375,000000	6,436100
374,000000	6,108400
373,000000	6,163200
372,000000	6,200900
371,000000	6,230800
370,000000	6,121700
369,000000	6,284600
368,000000	6,269900
367,000000	6,256300
366,000000	6,317100
365,000000	6,286300
364,000000	6,355700
363,000000	6,149900
362,000000	6,126600
361,000000	6,136300
360,000000	6,141700
359,000000	6,166700
358,000000	6,148200
357,000000	5,980700
356,000000	5,871300
355,000000	5,956100
354,000000	6,065000
353,000000	5,961200
352,000000	5,881800
351,000000	5,655500
350,000000	5,730000
349,000000	5,900300
348,000000	5,843300
347,000000	5,916500
346,000000	5,802600
345,000000	5,910300
344,000000	5,844400
343,000000	5,794700
342,000000	5,565300
341,000000	5,561700
340,000000	5,774700
339,000000	5,694800
338,000000	5,868300
337,000000	5,860300
336,000000	5,716700
335,000000	5,542400
334,000000	5,779200
333,000000	5,922700
332,000000	5,742500
331,000000	5,709200
330,000000	5,939300
329,000000	6,146900
328,000000	5,813100
327,000000	5,903500
326,000000	5,701000
325,000000	5,523900
324,000000	5,890800
323,000000	5,744200
322,000000	5,832200
321,000000	5,514600
320,000000	5,668000
319,000000	6,200200
318,000000	6,147000
317,000000	6,641300
316,000000	6,256100
315,000000	5,552300
314,000000	5,520400
313,000000	5,560200
312,000000	5,523600
311,000000	5,526000
310,000000	5,528700
309,000000	5,542100
308,000000	5,559100
307,000000	5,571900
306,000000	5,600000
305,000000	5,565800
304,000000	5,536800
303,000000	5,548900
302,000000	5,552700
301,000000	5,572700
300,000000	5,581700
299,000000	5,568800
298,000000	5,585700
297,000000	5,625100
296,000000	5,643000
295,000000	5,611900
294,000000	5,554700
293,000000	5,593900
292,000000	5,635500
291,000000	5,627800
290,000000	5,666800
289,000000	5,692300
288,000000	5,678700
287,000000	5,638500
286,000000	5,617700
285,000000	5,628200
284,000000	5,614600
283,000000	5,641300
282,000000	5,657600
281,000000	5,638900
280,000000	5,676900
279,000000	5,668700
278,000000	5,690000
277,000000	5,687500
276,000000	5,713900
275,000000	5,744400
274,000000	5,748500
273,000000	5,715900
272,000000	5,751700
271,000000	5,784600
270,000000	5,806500
269,000000	5,784700
268,000000	5,778900
267,000000	5,788700
266,000000	5,809500
265,000000	5,836600
264,000000	5,856100
263,000000	5,899300
262,000000	5,947400
261,000000	5,963800
260,000000	5,952400
259,000000	5,968400
258,000000	5,993400
257,000000	6,050200
256,000000	5,996600
255,000000	6,045100
254,000000	6,069400
253,000000	6,033800
252,000000	6,081500
251,000000	6,109400
250,000000	6,127700
