PE UV       SUBTECH     SPECTRUM    ASCII       PEDS        4.00        
   -1
CICIMAUCR0212-2.ASC
24/06/06
16:43:01.00
24/06/06
16:43:01.00
Vinicio Soto Monge
C. resplendens. Sex F. Dorsal
250,000000
1
Lambda 1050
1050L1511233
PerkinElmer UV WinLab 6.3.2.0749 / 2.02.05 Lambda 900 UV/VIS/NIR, Aug  7 2015 09:38:08

0
0
3350/servo 860,8/2
0
0
UV/VIS
1
1
1
DoubleDePol,CommonBeamDepol,RBeamAtt,SBeamAtt,60mm sphere, WB InGaAs Detector
0
0
0
0
Program
Program
3350/servo 860,8/2
3350/0,2 860,8/0,2
3350/0,2 860,8/0,2
0
15.00
 
 
 
0
 
860,8
319,2
860,8
Front
100
on
S:100 R:100
0
0
0
0
 
0
 
 
 
0
 
 
0
0
0
0
0
 
 
 
 
0
0


0
0
#HDR
-1
-1
#GR
nm
%R
1.0
0.0
2500,000000
-1,000000
2251
8
91,289900
5,239400
#DATA
2500,000000	7,073000
2499,000000	7,009800
2498,000000	6,776000
2497,000000	6,810300
2496,000000	6,799900
2495,000000	6,801000
2494,000000	6,832300
2493,000000	6,755600
2492,000000	6,851800
2491,000000	6,773400
2490,000000	6,728500
2489,000000	6,650900
2488,000000	6,757600
2487,000000	6,659100
2486,000000	6,615900
2485,000000	6,669900
2484,000000	6,735400
2483,000000	6,648700
2482,000000	6,641200
2481,000000	6,674100
2480,000000	6,627200
2479,000000	6,643200
2478,000000	6,680700
2477,000000	6,652800
2476,000000	6,615100
2475,000000	6,586200
2474,000000	6,621900
2473,000000	6,624900
2472,000000	6,603700
2471,000000	6,612700
2470,000000	6,615800
2469,000000	6,611900
2468,000000	6,609200
2467,000000	6,616400
2466,000000	6,582000
2465,000000	6,624700
2464,000000	6,630300
2463,000000	6,624700
2462,000000	6,633100
2461,000000	6,667600
2460,000000	6,695700
2459,000000	6,679900
2458,000000	6,727800
2457,000000	6,735500
2456,000000	6,736200
2455,000000	6,794900
2454,000000	6,834800
2453,000000	6,856600
2452,000000	6,889500
2451,000000	6,922100
2450,000000	6,975600
2449,000000	7,013400
2448,000000	7,038600
2447,000000	7,072100
2446,000000	7,108100
2445,000000	7,114200
2444,000000	7,156400
2443,000000	7,213700
2442,000000	7,257200
2441,000000	7,288000
2440,000000	7,329900
2439,000000	7,364900
2438,000000	7,392400
2437,000000	7,421000
2436,000000	7,458400
2435,000000	7,494400
2434,000000	7,508200
2433,000000	7,567700
2432,000000	7,594500
2431,000000	7,621000
2430,000000	7,636200
2429,000000	7,667600
2428,000000	7,679300
2427,000000	7,705600
2426,000000	7,748100
2425,000000	7,770200
2424,000000	7,768700
2423,000000	7,786500
2422,000000	7,819400
2421,000000	7,855200
2420,000000	7,867600
2419,000000	7,872700
2418,000000	7,881700
2417,000000	7,906200
2416,000000	7,936400
2415,000000	7,961800
2414,000000	7,963800
2413,000000	7,975700
2412,000000	7,999000
2411,000000	8,011100
2410,000000	8,033500
2409,000000	8,054500
2408,000000	8,061500
2407,000000	8,084200
2406,000000	8,120500
2405,000000	8,125800
2404,000000	8,131500
2403,000000	8,157500
2402,000000	8,188100
2401,000000	8,234000
2400,000000	8,244400
2399,000000	8,255300
2398,000000	8,269800
2397,000000	8,277700
2396,000000	8,290800
2395,000000	8,318300
2394,000000	8,345600
2393,000000	8,356000
2392,000000	8,383000
2391,000000	8,410100
2390,000000	8,420300
2389,000000	8,439800
2388,000000	8,457000
2387,000000	8,458800
2386,000000	8,456700
2385,000000	8,469500
2384,000000	8,492600
2383,000000	8,506100
2382,000000	8,498800
2381,000000	8,507300
2380,000000	8,527600
2379,000000	8,508800
2378,000000	8,497800
2377,000000	8,510600
2376,000000	8,499000
2375,000000	8,491100
2374,000000	8,498300
2373,000000	8,477200
2372,000000	8,453600
2371,000000	8,454500
2370,000000	8,431400
2369,000000	8,407700
2368,000000	8,386800
2367,000000	8,356500
2366,000000	8,337700
2365,000000	8,312600
2364,000000	8,269600
2363,000000	8,234200
2362,000000	8,201000
2361,000000	8,170500
2360,000000	8,123300
2359,000000	8,072900
2358,000000	8,036700
2357,000000	8,003200
2356,000000	7,973100
2355,000000	7,942900
2354,000000	7,927100
2353,000000	7,920700
2352,000000	7,914800
2351,000000	7,921300
2350,000000	7,930100
2349,000000	7,932900
2348,000000	7,955900
2347,000000	7,990100
2346,000000	8,020400
2345,000000	8,062500
2344,000000	8,104900
2343,000000	8,149400
2342,000000	8,186800
2341,000000	8,220600
2340,000000	8,258200
2339,000000	8,298900
2338,000000	8,320400
2337,000000	8,320800
2336,000000	8,333600
2335,000000	8,352800
2334,000000	8,350000
2333,000000	8,343400
2332,000000	8,341000
2331,000000	8,315700
2330,000000	8,286400
2329,000000	8,257900
2328,000000	8,225800
2327,000000	8,170700
2326,000000	8,131800
2325,000000	8,073800
2324,000000	8,009900
2323,000000	7,957700
2322,000000	7,879300
2321,000000	7,799700
2320,000000	7,738200
2319,000000	7,665700
2318,000000	7,582500
2317,000000	7,492300
2316,000000	7,415500
2315,000000	7,349300
2314,000000	7,267300
2313,000000	7,180300
2312,000000	7,111100
2311,000000	7,049200
2310,000000	7,002000
2309,000000	6,948500
2308,000000	6,901500
2307,000000	6,860000
2306,000000	6,842600
2305,000000	6,863700
2304,000000	6,857300
2303,000000	6,876600
2302,000000	6,894400
2301,000000	6,925300
2300,000000	6,978300
2299,000000	7,048100
2298,000000	7,106700
2297,000000	7,174900
2296,000000	7,208500
2295,000000	7,280400
2294,000000	7,364100
2293,000000	7,411000
2292,000000	7,470100
2291,000000	7,503500
2290,000000	7,546700
2289,000000	7,560300
2288,000000	7,587000
2287,000000	7,575200
2286,000000	7,569500
2285,000000	7,558300
2284,000000	7,550000
2283,000000	7,522400
2282,000000	7,482800
2281,000000	7,430100
2280,000000	7,401000
2279,000000	7,355100
2278,000000	7,289200
2277,000000	7,268500
2276,000000	7,233000
2275,000000	7,162600
2274,000000	7,144900
2273,000000	7,120100
2272,000000	7,095700
2271,000000	7,087400
2270,000000	7,089500
2269,000000	7,080600
2268,000000	7,106500
2267,000000	7,149100
2266,000000	7,196800
2265,000000	7,245600
2264,000000	7,310300
2263,000000	7,430000
2262,000000	7,529400
2261,000000	7,644400
2260,000000	7,797600
2259,000000	7,948100
2258,000000	8,128800
2257,000000	8,286300
2256,000000	8,462100
2255,000000	8,627600
2254,000000	8,823200
2253,000000	9,007400
2252,000000	9,184500
2251,000000	9,358400
2250,000000	9,525100
2249,000000	9,725600
2248,000000	9,867900
2247,000000	9,994400
2246,000000	10,139500
2245,000000	10,282700
2244,000000	10,409300
2243,000000	10,510300
2242,000000	10,618100
2241,000000	10,699100
2240,000000	10,802500
2239,000000	10,881100
2238,000000	10,952700
2237,000000	11,058600
2236,000000	11,122400
2235,000000	11,192900
2234,000000	11,229400
2233,000000	11,313100
2232,000000	11,354000
2231,000000	11,377500
2230,000000	11,425000
2229,000000	11,438900
2228,000000	11,483300
2227,000000	11,520900
2226,000000	11,534900
2225,000000	11,552300
2224,000000	11,574800
2223,000000	11,546200
2222,000000	11,556900
2221,000000	11,569200
2220,000000	11,571600
2219,000000	11,532300
2218,000000	11,540600
2217,000000	11,549600
2216,000000	11,511000
2215,000000	11,516900
2214,000000	11,502300
2213,000000	11,492200
2212,000000	11,457000
2211,000000	11,464600
2210,000000	11,451900
2209,000000	11,428200
2208,000000	11,436700
2207,000000	11,411300
2206,000000	11,414300
2205,000000	11,395100
2204,000000	11,392300
2203,000000	11,379400
2202,000000	11,363100
2201,000000	11,364300
2200,000000	11,343700
2199,000000	11,350200
2198,000000	11,349600
2197,000000	11,347600
2196,000000	11,339500
2195,000000	11,317700
2194,000000	11,308100
2193,000000	11,302800
2192,000000	11,291100
2191,000000	11,292700
2190,000000	11,254200
2189,000000	11,268500
2188,000000	11,251700
2187,000000	11,243800
2186,000000	11,227300
2185,000000	11,246000
2184,000000	11,219300
2183,000000	11,219300
2182,000000	11,200700
2181,000000	11,187100
2180,000000	11,173100
2179,000000	11,163300
2178,000000	11,163200
2177,000000	11,161100
2176,000000	11,157900
2175,000000	11,148400
2174,000000	11,141600
2173,000000	11,145200
2172,000000	11,135800
2171,000000	11,149200
2170,000000	11,138400
2169,000000	11,135200
2168,000000	11,148200
2167,000000	11,164900
2166,000000	11,168500
2165,000000	11,177200
2164,000000	11,182900
2163,000000	11,205500
2162,000000	11,199800
2161,000000	11,218700
2160,000000	11,245700
2159,000000	11,259400
2158,000000	11,281700
2157,000000	11,293300
2156,000000	11,310500
2155,000000	11,347000
2154,000000	11,358400
2153,000000	11,370000
2152,000000	11,387800
2151,000000	11,415200
2150,000000	11,431700
2149,000000	11,456200
2148,000000	11,468700
2147,000000	11,503700
2146,000000	11,521100
2145,000000	11,518000
2144,000000	11,529700
2143,000000	11,549300
2142,000000	11,563900
2141,000000	11,579700
2140,000000	11,601700
2139,000000	11,591800
2138,000000	11,601900
2137,000000	11,616100
2136,000000	11,626300
2135,000000	11,623800
2134,000000	11,631200
2133,000000	11,636800
2132,000000	11,627400
2131,000000	11,629600
2130,000000	11,648700
2129,000000	11,635800
2128,000000	11,614100
2127,000000	11,607200
2126,000000	11,601100
2125,000000	11,585000
2124,000000	11,560400
2123,000000	11,551500
2122,000000	11,546800
2121,000000	11,519600
2120,000000	11,500000
2119,000000	11,483600
2118,000000	11,459600
2117,000000	11,444400
2116,000000	11,412600
2115,000000	11,380100
2114,000000	11,359000
2113,000000	11,333200
2112,000000	11,293600
2111,000000	11,268100
2110,000000	11,255500
2109,000000	11,227500
2108,000000	11,195200
2107,000000	11,170400
2106,000000	11,140900
2105,000000	11,104600
2104,000000	11,080300
2103,000000	11,047800
2102,000000	11,025700
2101,000000	11,004200
2100,000000	10,972800
2099,000000	10,946200
2098,000000	10,928300
2097,000000	10,897600
2096,000000	10,864200
2095,000000	10,820400
2094,000000	10,800300
2093,000000	10,794500
2092,000000	10,763600
2091,000000	10,735700
2090,000000	10,725200
2089,000000	10,707500
2088,000000	10,682800
2087,000000	10,639700
2086,000000	10,612000
2085,000000	10,596900
2084,000000	10,574400
2083,000000	10,547000
2082,000000	10,514100
2081,000000	10,501100
2080,000000	10,478800
2079,000000	10,441800
2078,000000	10,415800
2077,000000	10,390100
2076,000000	10,367500
2075,000000	10,348400
2074,000000	10,315300
2073,000000	10,283600
2072,000000	10,270100
2071,000000	10,243200
2070,000000	10,210200
2069,000000	10,194200
2068,000000	10,175100
2067,000000	10,141000
2066,000000	10,128000
2065,000000	10,113100
2064,000000	10,075100
2063,000000	10,051600
2062,000000	10,038200
2061,000000	10,026700
2060,000000	10,014200
2059,000000	9,993800
2058,000000	9,979900
2057,000000	9,980900
2056,000000	9,987800
2055,000000	9,978500
2054,000000	9,989300
2053,000000	10,004300
2052,000000	10,019100
2051,000000	10,036200
2050,000000	10,063500
2049,000000	10,089500
2048,000000	10,123700
2047,000000	10,156500
2046,000000	10,199200
2045,000000	10,240200
2044,000000	10,275900
2043,000000	10,326800
2042,000000	10,374600
2041,000000	10,407100
2040,000000	10,447000
2039,000000	10,489800
2038,000000	10,527700
2037,000000	10,552800
2036,000000	10,603800
2035,000000	10,640900
2034,000000	10,654000
2033,000000	10,682000
2032,000000	10,707000
2031,000000	10,726300
2030,000000	10,736700
2029,000000	10,766100
2028,000000	10,777000
2027,000000	10,788400
2026,000000	10,806300
2025,000000	10,792600
2024,000000	10,782700
2023,000000	10,807000
2022,000000	10,813000
2021,000000	10,817700
2020,000000	10,809600
2019,000000	10,805600
2018,000000	10,804600
2017,000000	10,792300
2016,000000	10,773300
2015,000000	10,773700
2014,000000	10,759000
2013,000000	10,755000
2012,000000	10,730000
2011,000000	10,710600
2010,000000	10,671800
2009,000000	10,650900
2008,000000	10,629900
2007,000000	10,597100
2006,000000	10,561400
2005,000000	10,537700
2004,000000	10,493700
2003,000000	10,464800
2002,000000	10,425800
2001,000000	10,386800
2000,000000	10,334300
1999,000000	10,275700
1998,000000	10,235700
1997,000000	10,191300
1996,000000	10,159900
1995,000000	10,121600
1994,000000	10,062100
1993,000000	9,992700
1992,000000	9,933500
1991,000000	9,892400
1990,000000	9,833400
1989,000000	9,791200
1988,000000	9,720100
1987,000000	9,653400
1986,000000	9,609700
1985,000000	9,549900
1984,000000	9,503300
1983,000000	9,440000
1982,000000	9,374900
1981,000000	9,306700
1980,000000	9,246400
1979,000000	9,193300
1978,000000	9,124000
1977,000000	9,057800
1976,000000	9,013200
1975,000000	8,945200
1974,000000	8,896800
1973,000000	8,845800
1972,000000	8,784500
1971,000000	8,740300
1970,000000	8,688000
1969,000000	8,613300
1968,000000	8,572900
1967,000000	8,538000
1966,000000	8,471600
1965,000000	8,436200
1964,000000	8,371600
1963,000000	8,324700
1962,000000	8,304900
1961,000000	8,250100
1960,000000	8,173700
1959,000000	8,139800
1958,000000	8,097800
1957,000000	8,084300
1956,000000	8,026200
1955,000000	7,968200
1954,000000	7,942600
1953,000000	7,914500
1952,000000	7,874300
1951,000000	7,832100
1950,000000	7,798400
1949,000000	7,781000
1948,000000	7,745600
1947,000000	7,718900
1946,000000	7,665000
1945,000000	7,656500
1944,000000	7,633600
1943,000000	7,633600
1942,000000	7,605900
1941,000000	7,584700
1940,000000	7,582000
1939,000000	7,580100
1938,000000	7,577900
1937,000000	7,585300
1936,000000	7,580100
1935,000000	7,600200
1934,000000	7,594600
1933,000000	7,610300
1932,000000	7,639400
1931,000000	7,666000
1930,000000	7,688300
1929,000000	7,715900
1928,000000	7,784800
1927,000000	7,810900
1926,000000	7,873000
1925,000000	7,931800
1924,000000	7,975500
1923,000000	8,047700
1922,000000	8,083700
1921,000000	8,183600
1920,000000	8,261400
1919,000000	8,374200
1918,000000	8,458700
1917,000000	8,573500
1916,000000	8,650000
1915,000000	8,726800
1914,000000	8,819000
1913,000000	8,959700
1912,000000	9,079000
1911,000000	9,238000
1910,000000	9,373900
1909,000000	9,483600
1908,000000	9,599100
1907,000000	9,705400
1906,000000	9,853100
1905,000000	10,022900
1904,000000	10,232000
1903,000000	10,390400
1902,000000	10,554400
1901,000000	10,740300
1900,000000	10,928100
1899,000000	11,141300
1898,000000	11,349400
1897,000000	11,586000
1896,000000	11,797900
1895,000000	11,990100
1894,000000	12,166400
1893,000000	12,395800
1892,000000	12,630200
1891,000000	12,931400
1890,000000	13,229700
1889,000000	13,525300
1888,000000	13,849300
1887,000000	14,177500
1886,000000	14,511500
1885,000000	14,890000
1884,000000	15,308100
1883,000000	15,787800
1882,000000	16,297900
1881,000000	16,799400
1880,000000	17,318500
1879,000000	17,805400
1878,000000	18,282900
1877,000000	18,799900
1876,000000	19,280000
1875,000000	19,772600
1874,000000	20,253300
1873,000000	20,700700
1872,000000	21,161300
1871,000000	21,615300
1870,000000	22,016000
1869,000000	22,405200
1868,000000	22,773700
1867,000000	23,073800
1866,000000	23,317600
1865,000000	23,521100
1864,000000	23,719100
1863,000000	23,872800
1862,000000	24,023500
1861,000000	24,182400
1860,000000	24,349500
1859,000000	24,499100
1858,000000	24,631500
1857,000000	24,765900
1856,000000	24,854500
1855,000000	24,898500
1854,000000	24,936500
1853,000000	24,987900
1852,000000	25,005100
1851,000000	25,023000
1850,000000	25,025200
1849,000000	25,006500
1848,000000	25,017900
1847,000000	25,033800
1846,000000	25,054000
1845,000000	25,011400
1844,000000	24,961200
1843,000000	24,915200
1842,000000	24,879400
1841,000000	24,882500
1840,000000	24,892300
1839,000000	24,869800
1838,000000	24,874100
1837,000000	24,840000
1836,000000	24,803300
1835,000000	24,768400
1834,000000	24,723200
1833,000000	24,659600
1832,000000	24,580400
1831,000000	24,521700
1830,000000	24,469000
1829,000000	24,413700
1828,000000	24,342100
1827,000000	24,248500
1826,000000	24,173200
1825,000000	24,114800
1824,000000	24,038200
1823,000000	23,980300
1822,000000	23,928100
1821,000000	23,901000
1820,000000	23,886900
1819,000000	23,846000
1818,000000	23,803400
1817,000000	23,766700
1816,000000	23,746000
1815,000000	23,730700
1814,000000	23,724900
1813,000000	23,697200
1812,000000	23,678500
1811,000000	23,669600
1810,000000	23,641600
1809,000000	23,608800
1808,000000	23,573100
1807,000000	23,533700
1806,000000	23,491400
1805,000000	23,441700
1804,000000	23,366000
1803,000000	23,314700
1802,000000	23,286400
1801,000000	23,245200
1800,000000	23,193800
1799,000000	23,129900
1798,000000	23,065400
1797,000000	23,012700
1796,000000	22,952800
1795,000000	22,911100
1794,000000	22,867500
1793,000000	22,812200
1792,000000	22,769000
1791,000000	22,701900
1790,000000	22,646100
1789,000000	22,593400
1788,000000	22,529700
1787,000000	22,468500
1786,000000	22,397800
1785,000000	22,322900
1784,000000	22,254700
1783,000000	22,180500
1782,000000	22,113700
1781,000000	22,040100
1780,000000	21,976800
1779,000000	21,896100
1778,000000	21,809100
1777,000000	21,751100
1776,000000	21,672800
1775,000000	21,580800
1774,000000	21,482500
1773,000000	21,371700
1772,000000	21,276300
1771,000000	21,168800
1770,000000	21,052800
1769,000000	20,950300
1768,000000	20,853500
1767,000000	20,745700
1766,000000	20,639400
1765,000000	20,555600
1764,000000	20,501000
1763,000000	20,454400
1762,000000	20,431300
1761,000000	20,441600
1760,000000	20,480400
1759,000000	20,543200
1758,000000	20,605600
1757,000000	20,696000
1756,000000	20,778800
1755,000000	20,846800
1754,000000	20,912300
1753,000000	20,963000
1752,000000	20,994000
1751,000000	21,020900
1750,000000	21,034900
1749,000000	21,022900
1748,000000	20,984300
1747,000000	20,948500
1746,000000	20,913100
1745,000000	20,834200
1744,000000	20,742400
1743,000000	20,615300
1742,000000	20,478500
1741,000000	20,306600
1740,000000	20,121200
1739,000000	19,917500
1738,000000	19,712500
1737,000000	19,499200
1736,000000	19,318900
1735,000000	19,165200
1734,000000	19,031900
1733,000000	18,969800
1732,000000	18,928300
1731,000000	18,934700
1730,000000	19,011400
1729,000000	19,101200
1728,000000	19,219000
1727,000000	19,339300
1726,000000	19,449900
1725,000000	19,577100
1724,000000	19,679900
1723,000000	19,761400
1722,000000	19,815300
1721,000000	19,844400
1720,000000	19,848700
1719,000000	19,868400
1718,000000	19,873900
1717,000000	19,890700
1716,000000	19,916500
1715,000000	19,962900
1714,000000	20,000700
1713,000000	20,036700
1712,000000	20,086800
1711,000000	20,127400
1710,000000	20,160400
1709,000000	20,162800
1708,000000	20,158100
1707,000000	20,144300
1706,000000	20,091000
1705,000000	20,041000
1704,000000	19,969300
1703,000000	19,902600
1702,000000	19,808300
1701,000000	19,700300
1700,000000	19,570300
1699,000000	19,433500
1698,000000	19,263600
1697,000000	19,096900
1696,000000	18,956400
1695,000000	18,868500
1694,000000	18,826600
1693,000000	18,836300
1692,000000	18,917400
1691,000000	19,060600
1690,000000	19,209500
1689,000000	19,377600
1688,000000	19,532000
1687,000000	19,680800
1686,000000	19,741600
1685,000000	19,791600
1684,000000	19,812800
1683,000000	19,863200
1682,000000	20,025200
1681,000000	20,227900
1680,000000	20,570900
1679,000000	21,023300
1678,000000	21,527300
1677,000000	22,073200
1676,000000	22,613000
1675,000000	23,102500
1674,000000	23,525400
1673,000000	23,940600
1672,000000	24,262000
1671,000000	24,531200
1670,000000	24,765700
1669,000000	24,990800
1668,000000	25,151200
1667,000000	25,313900
1666,000000	25,416300
1665,000000	25,507100
1664,000000	25,594300
1663,000000	25,675600
1662,000000	25,746800
1661,000000	25,796300
1660,000000	25,822600
1659,000000	25,884300
1658,000000	25,893700
1657,000000	25,896000
1656,000000	25,909600
1655,000000	25,918500
1654,000000	25,877700
1653,000000	25,884500
1652,000000	25,866900
1651,000000	25,852900
1650,000000	25,820700
1649,000000	25,776500
1648,000000	25,735400
1647,000000	25,709600
1646,000000	25,642100
1645,000000	25,608800
1644,000000	25,552900
1643,000000	25,495800
1642,000000	25,427800
1641,000000	25,350400
1640,000000	25,296500
1639,000000	25,236500
1638,000000	25,158200
1637,000000	25,089700
1636,000000	25,032500
1635,000000	24,943100
1634,000000	24,876900
1633,000000	24,791300
1632,000000	24,713800
1631,000000	24,629500
1630,000000	24,558900
1629,000000	24,484000
1628,000000	24,384900
1627,000000	24,289400
1626,000000	24,204200
1625,000000	24,119100
1624,000000	24,010600
1623,000000	23,932900
1622,000000	23,830600
1621,000000	23,761400
1620,000000	23,697600
1619,000000	23,610400
1618,000000	23,526800
1617,000000	23,458700
1616,000000	23,368800
1615,000000	23,294900
1614,000000	23,215600
1613,000000	23,128400
1612,000000	23,053400
1611,000000	22,974000
1610,000000	22,901900
1609,000000	22,839300
1608,000000	22,760600
1607,000000	22,687000
1606,000000	22,632600
1605,000000	22,560800
1604,000000	22,466700
1603,000000	22,402800
1602,000000	22,332600
1601,000000	22,261600
1600,000000	22,190200
1599,000000	22,106500
1598,000000	22,050400
1597,000000	21,983000
1596,000000	21,907500
1595,000000	21,837000
1594,000000	21,764700
1593,000000	21,710900
1592,000000	21,650100
1591,000000	21,592100
1590,000000	21,529300
1589,000000	21,485100
1588,000000	21,407800
1587,000000	21,342200
1586,000000	21,296600
1585,000000	21,246000
1584,000000	21,192000
1583,000000	21,141200
1582,000000	21,106700
1581,000000	21,060300
1580,000000	21,009500
1579,000000	20,949500
1578,000000	20,932400
1577,000000	20,896500
1576,000000	20,858300
1575,000000	20,832500
1574,000000	20,807800
1573,000000	20,773400
1572,000000	20,754400
1571,000000	20,735400
1570,000000	20,731100
1569,000000	20,710900
1568,000000	20,688000
1567,000000	20,673100
1566,000000	20,681000
1565,000000	20,674200
1564,000000	20,657600
1563,000000	20,660500
1562,000000	20,659300
1561,000000	20,647600
1560,000000	20,639000
1559,000000	20,633000
1558,000000	20,623100
1557,000000	20,612800
1556,000000	20,608800
1555,000000	20,601800
1554,000000	20,575800
1553,000000	20,548300
1552,000000	20,523700
1551,000000	20,502100
1550,000000	20,479900
1549,000000	20,465300
1548,000000	20,448000
1547,000000	20,416800
1546,000000	20,401100
1545,000000	20,379800
1544,000000	20,362600
1543,000000	20,343300
1542,000000	20,317700
1541,000000	20,301700
1540,000000	20,286400
1539,000000	20,263700
1538,000000	20,235100
1537,000000	20,203800
1536,000000	20,185400
1535,000000	20,155100
1534,000000	20,151600
1533,000000	20,134200
1532,000000	20,103600
1531,000000	20,078600
1530,000000	20,043000
1529,000000	20,010300
1528,000000	19,978100
1527,000000	19,936500
1526,000000	19,900900
1525,000000	19,858400
1524,000000	19,821400
1523,000000	19,775300
1522,000000	19,718000
1521,000000	19,693100
1520,000000	19,659600
1519,000000	19,592300
1518,000000	19,551100
1517,000000	19,522100
1516,000000	19,467400
1515,000000	19,414000
1514,000000	19,371200
1513,000000	19,317100
1512,000000	19,252600
1511,000000	19,198600
1510,000000	19,159100
1509,000000	19,105100
1508,000000	19,046800
1507,000000	18,987800
1506,000000	18,928000
1505,000000	18,877200
1504,000000	18,815100
1503,000000	18,762200
1502,000000	18,720800
1501,000000	18,660300
1500,000000	18,594200
1499,000000	18,535600
1498,000000	18,484500
1497,000000	18,444100
1496,000000	18,397000
1495,000000	18,348100
1494,000000	18,294000
1493,000000	18,244700
1492,000000	18,199300
1491,000000	18,166600
1490,000000	18,131000
1489,000000	18,090000
1488,000000	18,058300
1487,000000	18,007000
1486,000000	17,963500
1485,000000	17,924700
1484,000000	17,900700
1483,000000	17,865600
1482,000000	17,807100
1481,000000	17,776400
1480,000000	17,751300
1479,000000	17,731000
1478,000000	17,708800
1477,000000	17,674900
1476,000000	17,655200
1475,000000	17,638600
1474,000000	17,616900
1473,000000	17,602300
1472,000000	17,592600
1471,000000	17,599400
1470,000000	17,572200
1469,000000	17,552000
1468,000000	17,545700
1467,000000	17,537400
1466,000000	17,525900
1465,000000	17,512100
1464,000000	17,508200
1463,000000	17,509400
1462,000000	17,521400
1461,000000	17,544900
1460,000000	17,589400
1459,000000	17,615500
1458,000000	17,632000
1457,000000	17,655600
1456,000000	17,689800
1455,000000	17,745300
1454,000000	17,784100
1453,000000	17,852300
1452,000000	17,910400
1451,000000	17,962900
1450,000000	18,035100
1449,000000	18,105500
1448,000000	18,152700
1447,000000	18,237400
1446,000000	18,305700
1445,000000	18,395300
1444,000000	18,490300
1443,000000	18,569600
1442,000000	18,646700
1441,000000	18,741100
1440,000000	18,851100
1439,000000	18,938200
1438,000000	19,029000
1437,000000	19,148300
1436,000000	19,235900
1435,000000	19,354800
1434,000000	19,457000
1433,000000	19,559100
1432,000000	19,695800
1431,000000	19,807500
1430,000000	19,948300
1429,000000	20,074900
1428,000000	20,204200
1427,000000	20,382200
1426,000000	20,537000
1425,000000	20,699300
1424,000000	20,870400
1423,000000	21,088100
1422,000000	21,256600
1421,000000	21,464600
1420,000000	21,685000
1419,000000	21,916400
1418,000000	22,154400
1417,000000	22,371800
1416,000000	22,601100
1415,000000	22,833800
1414,000000	23,116000
1413,000000	23,368700
1412,000000	23,655500
1411,000000	23,904600
1410,000000	24,192100
1409,000000	24,535300
1408,000000	24,929400
1407,000000	25,313400
1406,000000	25,689500
1405,000000	26,074100
1404,000000	26,509200
1403,000000	26,924600
1402,000000	27,367000
1401,000000	27,747900
1400,000000	28,245300
1399,000000	28,697100
1398,000000	29,083700
1397,000000	29,352900
1396,000000	29,703800
1395,000000	30,135000
1394,000000	30,561000
1393,000000	30,840200
1392,000000	31,152600
1391,000000	31,506900
1390,000000	31,891600
1389,000000	32,268500
1388,000000	32,658200
1387,000000	33,159500
1386,000000	33,654000
1385,000000	34,208300
1384,000000	34,763200
1383,000000	35,392100
1382,000000	36,075200
1381,000000	36,680800
1380,000000	37,234000
1379,000000	37,545100
1378,000000	37,921700
1377,000000	38,175000
1376,000000	38,402000
1375,000000	38,628000
1374,000000	38,857800
1373,000000	39,150900
1372,000000	39,509800
1371,000000	39,915400
1370,000000	40,349300
1369,000000	40,728500
1368,000000	41,086600
1367,000000	41,442500
1366,000000	41,751500
1365,000000	42,056500
1364,000000	42,280600
1363,000000	42,494900
1362,000000	42,729900
1361,000000	42,924100
1360,000000	43,131700
1359,000000	43,264200
1358,000000	43,336100
1357,000000	43,444100
1356,000000	43,590000
1355,000000	43,833200
1354,000000	44,150700
1353,000000	44,648900
1352,000000	45,141200
1351,000000	45,639600
1350,000000	46,183600
1349,000000	46,710100
1348,000000	47,189200
1347,000000	47,634400
1346,000000	48,069300
1345,000000	48,447800
1344,000000	48,828400
1343,000000	49,248100
1342,000000	49,610700
1341,000000	49,965600
1340,000000	50,319600
1339,000000	50,685900
1338,000000	51,019300
1337,000000	51,374200
1336,000000	51,713800
1335,000000	52,039600
1334,000000	52,362600
1333,000000	52,681900
1332,000000	52,997500
1331,000000	53,302800
1330,000000	53,594400
1329,000000	53,885500
1328,000000	54,171700
1327,000000	54,454400
1326,000000	54,710300
1325,000000	54,961700
1324,000000	55,182400
1323,000000	55,408800
1322,000000	55,628700
1321,000000	55,846900
1320,000000	56,058700
1319,000000	56,260000
1318,000000	56,456600
1317,000000	56,640300
1316,000000	56,818500
1315,000000	56,984100
1314,000000	57,144100
1313,000000	57,290400
1312,000000	57,451700
1311,000000	57,601000
1310,000000	57,723200
1309,000000	57,848500
1308,000000	57,961800
1307,000000	58,088000
1306,000000	58,182500
1305,000000	58,276400
1304,000000	58,356500
1303,000000	58,434300
1302,000000	58,507400
1301,000000	58,568100
1300,000000	58,617500
1299,000000	58,646600
1298,000000	58,705600
1297,000000	58,732700
1296,000000	58,761700
1295,000000	58,798100
1294,000000	58,811000
1293,000000	58,828000
1292,000000	58,849500
1291,000000	58,851900
1290,000000	58,845000
1289,000000	58,822600
1288,000000	58,797600
1287,000000	58,791400
1286,000000	58,756400
1285,000000	58,717000
1284,000000	58,671400
1283,000000	58,624100
1282,000000	58,591200
1281,000000	58,522700
1280,000000	58,450900
1279,000000	58,402500
1278,000000	58,353100
1277,000000	58,289400
1276,000000	58,224800
1275,000000	58,163600
1274,000000	58,111200
1273,000000	58,059200
1272,000000	58,019600
1271,000000	57,977400
1270,000000	57,926000
1269,000000	57,895300
1268,000000	57,849100
1267,000000	57,800100
1266,000000	57,754200
1265,000000	57,698100
1264,000000	57,641400
1263,000000	57,594300
1262,000000	57,529600
1261,000000	57,468500
1260,000000	57,419200
1259,000000	57,376400
1258,000000	57,318200
1257,000000	57,254200
1256,000000	57,184000
1255,000000	57,119300
1254,000000	57,062300
1253,000000	56,986800
1252,000000	56,900000
1251,000000	56,825700
1250,000000	56,736100
1249,000000	56,649000
1248,000000	56,567100
1247,000000	56,460400
1246,000000	56,339000
1245,000000	56,228000
1244,000000	56,111900
1243,000000	55,992900
1242,000000	55,863600
1241,000000	55,707500
1240,000000	55,549800
1239,000000	55,378900
1238,000000	55,217000
1237,000000	55,069200
1236,000000	54,906200
1235,000000	54,727000
1234,000000	54,543000
1233,000000	54,350800
1232,000000	54,160400
1231,000000	53,970700
1230,000000	53,766000
1229,000000	53,548800
1228,000000	53,327400
1227,000000	53,121000
1226,000000	52,914200
1225,000000	52,694500
1224,000000	52,471400
1223,000000	52,248200
1222,000000	52,034400
1221,000000	51,815700
1220,000000	51,585500
1219,000000	51,369900
1218,000000	51,167900
1217,000000	50,961300
1216,000000	50,764800
1215,000000	50,572700
1214,000000	50,397900
1213,000000	50,228300
1212,000000	50,050500
1211,000000	49,877400
1210,000000	49,730300
1209,000000	49,585900
1208,000000	49,445600
1207,000000	49,309100
1206,000000	49,198800
1205,000000	49,103600
1204,000000	49,017200
1203,000000	48,958100
1202,000000	48,916200
1201,000000	48,886700
1200,000000	48,835000
1199,000000	48,777800
1198,000000	48,712700
1197,000000	48,611700
1196,000000	48,489500
1195,000000	48,314900
1194,000000	48,077400
1193,000000	47,775700
1192,000000	47,400300
1191,000000	46,965400
1190,000000	46,478700
1189,000000	45,986900
1188,000000	45,537900
1187,000000	45,152200
1186,000000	44,889000
1185,000000	44,760500
1184,000000	44,781700
1183,000000	44,947000
1182,000000	45,257100
1181,000000	45,714300
1180,000000	46,260500
1179,000000	46,820400
1178,000000	47,423200
1177,000000	47,947800
1176,000000	48,413900
1175,000000	48,838400
1174,000000	49,232700
1173,000000	49,610500
1172,000000	49,960700
1171,000000	50,324200
1170,000000	50,704800
1169,000000	51,097700
1168,000000	51,472700
1167,000000	51,849000
1166,000000	52,238700
1165,000000	52,652700
1164,000000	53,054300
1163,000000	53,467000
1162,000000	53,891600
1161,000000	54,342200
1160,000000	54,754500
1159,000000	55,154100
1158,000000	55,569500
1157,000000	55,961700
1156,000000	56,342600
1155,000000	56,691300
1154,000000	56,993600
1153,000000	57,239500
1152,000000	57,431700
1151,000000	57,581300
1150,000000	57,694900
1149,000000	57,788400
1148,000000	57,865000
1147,000000	57,952600
1146,000000	58,075600
1145,000000	58,255400
1144,000000	58,487700
1143,000000	58,835300
1142,000000	59,214800
1141,000000	59,638400
1140,000000	60,089000
1139,000000	60,544000
1138,000000	61,010100
1137,000000	61,499900
1136,000000	62,006600
1135,000000	62,547000
1134,000000	63,098200
1133,000000	63,646100
1132,000000	64,090000
1131,000000	64,534700
1130,000000	64,957000
1129,000000	65,328600
1128,000000	65,668100
1127,000000	65,945000
1126,000000	66,162800
1125,000000	66,326000
1124,000000	66,479600
1123,000000	66,606200
1122,000000	66,740700
1121,000000	66,828800
1120,000000	66,898600
1119,000000	66,970600
1118,000000	67,034700
1117,000000	67,080400
1116,000000	67,105700
1115,000000	67,126500
1114,000000	67,135500
1113,000000	67,136900
1112,000000	67,151600
1111,000000	67,140200
1110,000000	67,138600
1109,000000	67,141600
1108,000000	67,142800
1107,000000	67,141200
1106,000000	67,150100
1105,000000	67,151000
1104,000000	67,144400
1103,000000	67,117300
1102,000000	67,119900
1101,000000	67,133800
1100,000000	67,121800
1099,000000	67,093900
1098,000000	67,082200
1097,000000	67,069400
1096,000000	67,064400
1095,000000	67,048900
1094,000000	67,005100
1093,000000	66,985900
1092,000000	66,950200
1091,000000	66,915800
1090,000000	66,866200
1089,000000	66,830300
1088,000000	66,792200
1087,000000	66,742800
1086,000000	66,722200
1085,000000	66,656500
1084,000000	66,605100
1083,000000	66,575100
1082,000000	66,526600
1081,000000	66,464800
1080,000000	66,411500
1079,000000	66,398900
1078,000000	66,337100
1077,000000	66,295400
1076,000000	66,255700
1075,000000	66,193500
1074,000000	66,167600
1073,000000	66,122200
1072,000000	66,069200
1071,000000	66,034300
1070,000000	65,976800
1069,000000	65,936000
1068,000000	65,872700
1067,000000	65,837900
1066,000000	65,789200
1065,000000	65,756800
1064,000000	65,693000
1063,000000	65,621900
1062,000000	65,584800
1061,000000	65,517800
1060,000000	65,464700
1059,000000	65,406100
1058,000000	65,323600
1057,000000	65,276900
1056,000000	65,216700
1055,000000	65,126700
1054,000000	65,051300
1053,000000	64,991100
1052,000000	64,923700
1051,000000	64,873200
1050,000000	64,795600
1049,000000	64,721100
1048,000000	64,670800
1047,000000	64,606300
1046,000000	64,537200
1045,000000	64,487900
1044,000000	64,445600
1043,000000	64,367200
1042,000000	64,311100
1041,000000	64,262200
1040,000000	64,210500
1039,000000	64,132900
1038,000000	64,076200
1037,000000	64,040200
1036,000000	63,986800
1035,000000	63,919100
1034,000000	63,833700
1033,000000	63,782800
1032,000000	63,719400
1031,000000	63,630500
1030,000000	63,575000
1029,000000	63,502100
1028,000000	63,423900
1027,000000	63,344200
1026,000000	63,281100
1025,000000	63,192700
1024,000000	63,124500
1023,000000	63,031100
1022,000000	62,948500
1021,000000	62,860700
1020,000000	62,774500
1019,000000	62,696300
1018,000000	62,626200
1017,000000	62,561600
1016,000000	62,479400
1015,000000	62,417100
1014,000000	62,372000
1013,000000	62,309600
1012,000000	62,290900
1011,000000	62,260300
1010,000000	62,221300
1009,000000	62,209100
1008,000000	62,192700
1007,000000	62,187200
1006,000000	62,180300
1005,000000	62,188300
1004,000000	62,185100
1003,000000	62,169200
1002,000000	62,159900
1001,000000	62,158600
1000,000000	62,160700
999,000000	62,154400
998,000000	62,144100
997,000000	62,147100
996,000000	62,152600
995,000000	62,168100
994,000000	62,175900
993,000000	62,180200
992,000000	62,190600
991,000000	62,216300
990,000000	62,252000
989,000000	62,275500
988,000000	62,286600
987,000000	62,317000
986,000000	62,356300
985,000000	62,396700
984,000000	62,438700
983,000000	62,481600
982,000000	62,521300
981,000000	62,567300
980,000000	62,603900
979,000000	62,664500
978,000000	62,720300
977,000000	62,769300
976,000000	62,812500
975,000000	62,871800
974,000000	62,929700
973,000000	62,985700
972,000000	63,027300
971,000000	63,086900
970,000000	63,150400
969,000000	63,203000
968,000000	63,267500
967,000000	63,324900
966,000000	63,390900
965,000000	63,449400
964,000000	63,508600
963,000000	63,587400
962,000000	63,687000
961,000000	63,763900
960,000000	63,847800
959,000000	63,944600
958,000000	64,018800
957,000000	64,110900
956,000000	64,207900
955,000000	64,284600
954,000000	64,367400
953,000000	64,454800
952,000000	64,549100
951,000000	64,635300
950,000000	64,705200
949,000000	64,789300
948,000000	64,877600
947,000000	64,962700
946,000000	65,049600
945,000000	65,132400
944,000000	65,234900
943,000000	65,327200
942,000000	65,409000
941,000000	65,493100
940,000000	65,597500
939,000000	65,686700
938,000000	65,764300
937,000000	65,867100
936,000000	65,967900
935,000000	66,060100
934,000000	66,154600
933,000000	66,241200
932,000000	66,351000
931,000000	66,473900
930,000000	66,574300
929,000000	66,658400
928,000000	66,755100
927,000000	66,873400
926,000000	66,973400
925,000000	67,056700
924,000000	67,159600
923,000000	67,261500
922,000000	67,376000
921,000000	67,487400
920,000000	67,574000
919,000000	67,674200
918,000000	67,771400
917,000000	67,850500
916,000000	67,937500
915,000000	68,030000
914,000000	68,126000
913,000000	68,209400
912,000000	68,285800
911,000000	68,358700
910,000000	68,450300
909,000000	68,549400
908,000000	68,659100
907,000000	68,762700
906,000000	68,877000
905,000000	69,004400
904,000000	69,135800
903,000000	69,269500
902,000000	69,418900
901,000000	69,554100
900,000000	69,691200
899,000000	69,850900
898,000000	70,019300
897,000000	70,166700
896,000000	70,304400
895,000000	70,438800
894,000000	70,586500
893,000000	70,724200
892,000000	70,879800
891,000000	71,009200
890,000000	71,102200
889,000000	71,220600
888,000000	71,321700
887,000000	71,443900
886,000000	71,556500
885,000000	71,659800
884,000000	71,755200
883,000000	71,853600
882,000000	71,908800
881,000000	71,997600
880,000000	72,059800
879,000000	72,117700
878,000000	72,195900
877,000000	72,246500
876,000000	72,294800
875,000000	72,302900
874,000000	72,285600
873,000000	72,249600
872,000000	72,190600
871,000000	72,160600
870,000000	72,234200
869,000000	72,378400
868,000000	72,535200
867,000000	72,722300
866,000000	72,879300
865,000000	73,040700
864,000000	73,174900
863,000000	73,362500
862,000000	73,498700
861,000000	73,667700
860,000000	73,820500
859,000000	73,967600
858,000000	74,142400
857,000000	77,032500
856,000000	77,928200
855,000000	77,654300
854,000000	78,244700
853,000000	78,580100
852,000000	78,453000
851,000000	78,477800
850,000000	78,788900
849,000000	78,833600
848,000000	78,910600
847,000000	79,025500
846,000000	78,896700
845,000000	79,471400
844,000000	79,313800
843,000000	79,504000
842,000000	79,869200
841,000000	79,956500
840,000000	80,023200
839,000000	80,174200
838,000000	80,589000
837,000000	80,744100
836,000000	80,598200
835,000000	80,956200
834,000000	80,998900
833,000000	81,051700
832,000000	81,531900
831,000000	81,633200
830,000000	81,727400
829,000000	81,963900
828,000000	82,298500
827,000000	82,384600
826,000000	82,583300
825,000000	82,827700
824,000000	83,114100
823,000000	83,437100
822,000000	83,456300
821,000000	83,701500
820,000000	83,742500
819,000000	84,080800
818,000000	84,226600
817,000000	84,586000
816,000000	84,641900
815,000000	84,875100
814,000000	85,258600
813,000000	85,396000
812,000000	85,679300
811,000000	85,939600
810,000000	86,278000
809,000000	86,316800
808,000000	86,643800
807,000000	86,763600
806,000000	87,011600
805,000000	87,230300
804,000000	87,277400
803,000000	87,618700
802,000000	87,856400
801,000000	88,005100
800,000000	88,084400
799,000000	88,318700
798,000000	88,195800
797,000000	88,511600
796,000000	88,855200
795,000000	88,798700
794,000000	89,050700
793,000000	89,196900
792,000000	89,421900
791,000000	89,211400
790,000000	89,653600
789,000000	89,789100
788,000000	89,698600
787,000000	89,865500
786,000000	89,796000
785,000000	89,921700
784,000000	89,969600
783,000000	90,114800
782,000000	90,192600
781,000000	90,171600
780,000000	90,062400
779,000000	90,387500
778,000000	90,379200
777,000000	90,485000
776,000000	90,441100
775,000000	90,488200
774,000000	90,719100
773,000000	90,673300
772,000000	90,729200
771,000000	90,771600
770,000000	90,790400
769,000000	90,710600
768,000000	90,793000
767,000000	90,987300
766,000000	91,021100
765,000000	91,078100
764,000000	91,075700
763,000000	91,136000
762,000000	91,115100
761,000000	91,289900
760,000000	91,110700
759,000000	91,230700
758,000000	91,068100
757,000000	91,207400
756,000000	91,145900
755,000000	91,096300
754,000000	91,188100
753,000000	91,169500
752,000000	91,068400
751,000000	90,929000
750,000000	90,893300
749,000000	90,883100
748,000000	90,944000
747,000000	90,773000
746,000000	90,768000
745,000000	90,780500
744,000000	90,667900
743,000000	90,598600
742,000000	90,575200
741,000000	90,507000
740,000000	90,358800
739,000000	90,277500
738,000000	90,178600
737,000000	90,014300
736,000000	90,045600
735,000000	89,943400
734,000000	89,870300
733,000000	89,795000
732,000000	89,775800
731,000000	89,593800
730,000000	89,479200
729,000000	89,395500
728,000000	89,261000
727,000000	89,086200
726,000000	88,868300
725,000000	88,649000
724,000000	88,390800
723,000000	88,297200
722,000000	87,948800
721,000000	87,709500
720,000000	87,440500
719,000000	87,117800
718,000000	86,787400
717,000000	86,431100
716,000000	86,209700
715,000000	85,783600
714,000000	85,402100
713,000000	85,075800
712,000000	84,630800
711,000000	84,364500
710,000000	83,924200
709,000000	83,497500
708,000000	83,072100
707,000000	82,673600
706,000000	82,240300
705,000000	81,872800
704,000000	81,489900
703,000000	81,087200
702,000000	80,674900
701,000000	80,277700
700,000000	79,984900
699,000000	79,636900
698,000000	79,206000
697,000000	78,969300
696,000000	78,775300
695,000000	78,504000
694,000000	78,153900
693,000000	77,900500
692,000000	77,712600
691,000000	77,506400
690,000000	77,382600
689,000000	77,261100
688,000000	77,006800
687,000000	76,795000
686,000000	76,738600
685,000000	76,672500
684,000000	76,554300
683,000000	76,443300
682,000000	76,389200
681,000000	76,336700
680,000000	76,357400
679,000000	76,326100
678,000000	76,273400
677,000000	76,259700
676,000000	76,188800
675,000000	76,124500
674,000000	76,103700
673,000000	76,064800
672,000000	75,983800
671,000000	75,943100
670,000000	75,924400
669,000000	75,862100
668,000000	75,772300
667,000000	75,668400
666,000000	75,513400
665,000000	75,347700
664,000000	75,226400
663,000000	75,072000
662,000000	74,860800
661,000000	74,601000
660,000000	74,329500
659,000000	73,989700
658,000000	73,603400
657,000000	73,205200
656,000000	72,804400
655,000000	72,375900
654,000000	71,911600
653,000000	71,386000
652,000000	70,854700
651,000000	70,326800
650,000000	69,762000
649,000000	69,179600
648,000000	68,576700
647,000000	68,005400
646,000000	67,359800
645,000000	66,673400
644,000000	66,032100
643,000000	65,366200
642,000000	64,726500
641,000000	64,069800
640,000000	63,412600
639,000000	62,820000
638,000000	62,243600
637,000000	61,719700
636,000000	61,263200
635,000000	60,894600
634,000000	60,543800
633,000000	60,228900
632,000000	60,003200
631,000000	59,842800
630,000000	59,764900
629,000000	59,767000
628,000000	59,832300
627,000000	59,954200
626,000000	60,185600
625,000000	60,518900
624,000000	60,880900
623,000000	61,329500
622,000000	61,864200
621,000000	62,475700
620,000000	63,193700
619,000000	63,941000
618,000000	64,783400
617,000000	65,699900
616,000000	66,672600
615,000000	67,659900
614,000000	68,690600
613,000000	69,800600
612,000000	70,898800
611,000000	71,992900
610,000000	73,119600
609,000000	74,204600
608,000000	75,281300
607,000000	76,348000
606,000000	77,390100
605,000000	78,396000
604,000000	79,372000
603,000000	80,271800
602,000000	81,163500
601,000000	82,038300
600,000000	82,848900
599,000000	83,606600
598,000000	84,275100
597,000000	84,932100
596,000000	85,517300
595,000000	86,089300
594,000000	86,640700
593,000000	87,112700
592,000000	87,545600
591,000000	87,929400
590,000000	88,332900
589,000000	88,685100
588,000000	88,987000
587,000000	89,282200
586,000000	89,526500
585,000000	89,744000
584,000000	89,983000
583,000000	90,183500
582,000000	90,386800
581,000000	90,525900
580,000000	90,689700
579,000000	90,838400
578,000000	90,934000
577,000000	91,049800
576,000000	91,092600
575,000000	91,126800
574,000000	91,152700
573,000000	91,148400
572,000000	91,114200
571,000000	91,076400
570,000000	91,003100
569,000000	90,907900
568,000000	90,842400
567,000000	90,724800
566,000000	90,597500
565,000000	90,476400
564,000000	90,309900
563,000000	90,171000
562,000000	89,941500
561,000000	89,759500
560,000000	89,617800
559,000000	89,385700
558,000000	89,183000
557,000000	88,993600
556,000000	88,719700
555,000000	88,463000
554,000000	88,196400
553,000000	87,896500
552,000000	87,602500
551,000000	87,234600
550,000000	86,885000
549,000000	86,519600
548,000000	86,114500
547,000000	85,686600
546,000000	85,255400
545,000000	84,840700
544,000000	84,353600
543,000000	83,849100
542,000000	83,349000
541,000000	82,749800
540,000000	82,246400
539,000000	81,640200
538,000000	80,974400
537,000000	80,340100
536,000000	79,630700
535,000000	78,949100
534,000000	78,169600
533,000000	77,391800
532,000000	76,549500
531,000000	75,669400
530,000000	74,723900
529,000000	73,781800
528,000000	72,753600
527,000000	71,737400
526,000000	70,612700
525,000000	69,522200
524,000000	68,344300
523,000000	67,090600
522,000000	65,805800
521,000000	64,517600
520,000000	63,140100
519,000000	61,741800
518,000000	60,326100
517,000000	58,888200
516,000000	57,415300
515,000000	55,938800
514,000000	54,395300
513,000000	52,860000
512,000000	51,375700
511,000000	49,856700
510,000000	48,340500
509,000000	46,909800
508,000000	45,515800
507,000000	44,133900
506,000000	42,808800
505,000000	41,589700
504,000000	40,363400
503,000000	39,264900
502,000000	38,244600
501,000000	37,247100
500,000000	36,359700
499,000000	35,566100
498,000000	34,808600
497,000000	34,157600
496,000000	33,535500
495,000000	33,013400
494,000000	32,558400
493,000000	32,149300
492,000000	31,798700
491,000000	31,498700
490,000000	31,193100
489,000000	30,987700
488,000000	30,771000
487,000000	30,664500
486,000000	30,474000
485,000000	30,354300
484,000000	30,211500
483,000000	30,104900
482,000000	29,985200
481,000000	29,812900
480,000000	29,624300
479,000000	29,447200
478,000000	29,246400
477,000000	29,038500
476,000000	28,789500
475,000000	28,534200
474,000000	28,262900
473,000000	27,962500
472,000000	27,650900
471,000000	27,341600
470,000000	27,028200
469,000000	26,661500
468,000000	26,305900
467,000000	25,992400
466,000000	25,616000
465,000000	25,298100
464,000000	24,928100
463,000000	24,592800
462,000000	24,288200
461,000000	23,990300
460,000000	23,754800
459,000000	23,457000
458,000000	23,249200
457,000000	23,064500
456,000000	22,913300
455,000000	22,783200
454,000000	22,691900
453,000000	22,602900
452,000000	22,581400
451,000000	22,558600
450,000000	22,571100
449,000000	22,603100
448,000000	22,661100
447,000000	22,712800
446,000000	22,800400
445,000000	22,876400
444,000000	22,981900
443,000000	23,064800
442,000000	23,153000
441,000000	23,234300
440,000000	23,322300
439,000000	23,349100
438,000000	23,405100
437,000000	23,418800
436,000000	23,431200
435,000000	23,413700
434,000000	23,452300
433,000000	23,416200
432,000000	23,337900
431,000000	23,260000
430,000000	23,214800
429,000000	23,169300
428,000000	23,031100
427,000000	22,916900
426,000000	22,773500
425,000000	22,640100
424,000000	22,440200
423,000000	22,265400
422,000000	22,087800
421,000000	21,910700
420,000000	21,676800
419,000000	21,468000
418,000000	21,239500
417,000000	20,978800
416,000000	20,724500
415,000000	20,432200
414,000000	20,164100
413,000000	19,886200
412,000000	19,560900
411,000000	19,217200
410,000000	18,862800
409,000000	18,525200
408,000000	18,182400
407,000000	17,793600
406,000000	17,430600
405,000000	17,025200
404,000000	16,594400
403,000000	16,199000
402,000000	15,792300
401,000000	15,385600
400,000000	14,935700
399,000000	14,484800
398,000000	14,066500
397,000000	13,653900
396,000000	13,221100
395,000000	12,793500
394,000000	12,381500
393,000000	12,001200
392,000000	11,621900
391,000000	11,222000
390,000000	10,856400
389,000000	10,472500
388,000000	10,159000
387,000000	9,862500
386,000000	9,552400
385,000000	9,263300
384,000000	8,991100
383,000000	8,729900
382,000000	8,504200
381,000000	8,291300
380,000000	8,110200
379,000000	7,924900
378,000000	7,731800
377,000000	7,549800
376,000000	7,368200
375,000000	7,224900
374,000000	7,207600
373,000000	7,107900
372,000000	7,046900
371,000000	6,935700
370,000000	6,870500
369,000000	6,774400
368,000000	6,696700
367,000000	6,658400
366,000000	6,607500
365,000000	6,522000
364,000000	6,408300
363,000000	6,358700
362,000000	6,309800
361,000000	6,322200
360,000000	6,317500
359,000000	6,155200
358,000000	6,088000
357,000000	6,099100
356,000000	6,060300
355,000000	6,001700
354,000000	6,004800
353,000000	5,924200
352,000000	5,815800
351,000000	5,883100
350,000000	5,804500
349,000000	5,699600
348,000000	5,679500
347,000000	5,690800
346,000000	5,744700
345,000000	5,765100
344,000000	5,667600
343,000000	5,617400
342,000000	5,609700
341,000000	5,506000
340,000000	5,501100
339,000000	5,523300
338,000000	5,534700
337,000000	5,530800
336,000000	5,519200
335,000000	5,566300
334,000000	5,504300
333,000000	5,437400
332,000000	5,476700
331,000000	5,509100
330,000000	5,497900
329,000000	5,530200
328,000000	5,463600
327,000000	5,363400
326,000000	5,342900
325,000000	5,378000
324,000000	5,367600
323,000000	5,340800
322,000000	5,268100
321,000000	5,239400
320,000000	5,424000
319,000000	5,564400
318,000000	5,493400
317,000000	5,495900
316,000000	5,447400
315,000000	5,368700
314,000000	5,347100
313,000000	5,351700
312,000000	5,374000
311,000000	5,365300
310,000000	5,336200
309,000000	5,370800
308,000000	5,365600
307,000000	5,366600
306,000000	5,390500
305,000000	5,380000
304,000000	5,386800
303,000000	5,400700
302,000000	5,397000
301,000000	5,424500
300,000000	5,420400
299,000000	5,407200
298,000000	5,421000
297,000000	5,444700
296,000000	5,432700
295,000000	5,449800
294,000000	5,471900
293,000000	5,451100
292,000000	5,449800
291,000000	5,475800
290,000000	5,506100
289,000000	5,510400
288,000000	5,513000
287,000000	5,536200
286,000000	5,553300
285,000000	5,566600
284,000000	5,575500
283,000000	5,565600
282,000000	5,571000
281,000000	5,585200
280,000000	5,604200
279,000000	5,626300
278,000000	5,644700
277,000000	5,678100
276,000000	5,674500
275,000000	5,689500
274,000000	5,723700
273,000000	5,715600
272,000000	5,710000
271,000000	5,746600
270,000000	5,732000
269,000000	5,750200
268,000000	5,792400
267,000000	5,831100
266,000000	5,804400
265,000000	5,812900
264,000000	5,851700
263,000000	5,888000
262,000000	5,945500
261,000000	5,947500
260,000000	5,929500
259,000000	5,985300
258,000000	6,020200
257,000000	6,013300
256,000000	6,037100
255,000000	6,046600
254,000000	6,086700
253,000000	6,060000
252,000000	6,099600
251,000000	6,088800
250,000000	6,132600
