PE UV       SUBTECH     SPECTRUM    ASCII       PEDS        4.00        
   -1
CICIMAUCR0215-1.ASC
24/06/12
16:09:18.00
24/06/12
16:09:18.00
Vinicio Soto Monge
C. cupreomarginata. Sex M. Dorsal.
250,000000
1
Lambda 1050
1050L1511233
PerkinElmer UV WinLab 6.3.2.0749 / 2.02.05 Lambda 900 UV/VIS/NIR, Aug  7 2015 09:38:08

0
0
3350/servo 860,8/2
0
0
UV/VIS
1
1
1
DoubleDePol,CommonBeamDepol,RBeamAtt,SBeamAtt,60mm sphere, WB InGaAs Detector
0
0
0
0
Program
Program
3350/servo 860,8/2
3350/0,2 860,8/0,2
3350/0,2 860,8/0,2
0
15.00
 
 
 
0
 
860,8
319,2
860,8
Front
100
on
S:100 R:100
0
0
0
0
 
0
 
 
 
0
 
 
0
0
0
0
0
 
 
 
 
0
0


0
0
#HDR
-1
-1
#GR
nm
%R
1.0
0.0
2500,000000
-1,000000
2251
8
70,764800
5,818800
#DATA
2500,000000	11,958800
2499,000000	11,742500
2498,000000	11,758300
2497,000000	11,885300
2496,000000	11,766100
2495,000000	11,768900
2494,000000	11,762900
2493,000000	11,624000
2492,000000	11,638200
2491,000000	11,722700
2490,000000	11,366900
2489,000000	11,511800
2488,000000	11,571200
2487,000000	11,380600
2486,000000	11,460300
2485,000000	11,348700
2484,000000	11,359000
2483,000000	11,403500
2482,000000	11,378600
2481,000000	11,413800
2480,000000	11,481300
2479,000000	11,514200
2478,000000	11,556700
2477,000000	11,424300
2476,000000	11,468900
2475,000000	11,570700
2474,000000	11,593800
2473,000000	11,490500
2472,000000	11,465300
2471,000000	11,553300
2470,000000	11,539800
2469,000000	11,498900
2468,000000	11,591000
2467,000000	11,562600
2466,000000	11,538900
2465,000000	11,577500
2464,000000	11,651300
2463,000000	11,662200
2462,000000	11,636600
2461,000000	11,685400
2460,000000	11,752700
2459,000000	11,782400
2458,000000	11,842900
2457,000000	11,964900
2456,000000	11,985000
2455,000000	12,130300
2454,000000	12,242000
2453,000000	12,278600
2452,000000	12,362000
2451,000000	12,475600
2450,000000	12,576700
2449,000000	12,687600
2448,000000	12,777300
2447,000000	12,910100
2446,000000	12,980900
2445,000000	13,067100
2444,000000	13,170300
2443,000000	13,257200
2442,000000	13,358500
2441,000000	13,471800
2440,000000	13,552600
2439,000000	13,631800
2438,000000	13,743100
2437,000000	13,809100
2436,000000	13,909000
2435,000000	14,032000
2434,000000	14,126000
2433,000000	14,180700
2432,000000	14,262900
2431,000000	14,328300
2430,000000	14,419800
2429,000000	14,480700
2428,000000	14,539400
2427,000000	14,633600
2426,000000	14,695300
2425,000000	14,731900
2424,000000	14,794500
2423,000000	14,852000
2422,000000	14,941500
2421,000000	14,933700
2420,000000	14,989000
2419,000000	15,074700
2418,000000	15,104600
2417,000000	15,123900
2416,000000	15,187400
2415,000000	15,232600
2414,000000	15,285800
2413,000000	15,331200
2412,000000	15,365400
2411,000000	15,395200
2410,000000	15,425700
2409,000000	15,467300
2408,000000	15,515000
2407,000000	15,544200
2406,000000	15,582700
2405,000000	15,614400
2404,000000	15,628100
2403,000000	15,662600
2402,000000	15,710800
2401,000000	15,746200
2400,000000	15,798600
2399,000000	15,823500
2398,000000	15,845400
2397,000000	15,900200
2396,000000	15,923700
2395,000000	15,934300
2394,000000	15,968800
2393,000000	16,011200
2392,000000	16,019900
2391,000000	16,061200
2390,000000	16,083400
2389,000000	16,093800
2388,000000	16,130000
2387,000000	16,162800
2386,000000	16,158100
2385,000000	16,166700
2384,000000	16,191400
2383,000000	16,198500
2382,000000	16,175200
2381,000000	16,154100
2380,000000	16,157900
2379,000000	16,150700
2378,000000	16,136700
2377,000000	16,149300
2376,000000	16,144100
2375,000000	16,121900
2374,000000	16,109200
2373,000000	16,092100
2372,000000	16,086200
2371,000000	16,074900
2370,000000	16,037600
2369,000000	16,009500
2368,000000	15,977600
2367,000000	15,937200
2366,000000	15,906400
2365,000000	15,845500
2364,000000	15,799800
2363,000000	15,765100
2362,000000	15,706700
2361,000000	15,646200
2360,000000	15,580100
2359,000000	15,507100
2358,000000	15,446100
2357,000000	15,403800
2356,000000	15,345100
2355,000000	15,298800
2354,000000	15,269400
2353,000000	15,234100
2352,000000	15,214300
2351,000000	15,194100
2350,000000	15,187200
2349,000000	15,216400
2348,000000	15,251800
2347,000000	15,286700
2346,000000	15,293500
2345,000000	15,348000
2344,000000	15,411300
2343,000000	15,461000
2342,000000	15,509000
2341,000000	15,545000
2340,000000	15,582200
2339,000000	15,624300
2338,000000	15,648700
2337,000000	15,671800
2336,000000	15,702500
2335,000000	15,705700
2334,000000	15,695300
2333,000000	15,692200
2332,000000	15,691600
2331,000000	15,653400
2330,000000	15,611800
2329,000000	15,567300
2328,000000	15,533300
2327,000000	15,492300
2326,000000	15,424300
2325,000000	15,363900
2324,000000	15,299800
2323,000000	15,216300
2322,000000	15,110800
2321,000000	15,016600
2320,000000	14,926000
2319,000000	14,805200
2318,000000	14,676800
2317,000000	14,552600
2316,000000	14,433300
2315,000000	14,297800
2314,000000	14,158700
2313,000000	14,020300
2312,000000	13,895600
2311,000000	13,793400
2310,000000	13,693200
2309,000000	13,601100
2308,000000	13,517900
2307,000000	13,448600
2306,000000	13,416700
2305,000000	13,409100
2304,000000	13,413000
2303,000000	13,425400
2302,000000	13,466200
2301,000000	13,518600
2300,000000	13,579200
2299,000000	13,667900
2298,000000	13,750500
2297,000000	13,839600
2296,000000	13,920000
2295,000000	14,029800
2294,000000	14,143800
2293,000000	14,208100
2292,000000	14,289500
2291,000000	14,334000
2290,000000	14,390600
2289,000000	14,423600
2288,000000	14,449900
2287,000000	14,462900
2286,000000	14,472900
2285,000000	14,464900
2284,000000	14,432200
2283,000000	14,396700
2282,000000	14,362200
2281,000000	14,318400
2280,000000	14,258800
2279,000000	14,211100
2278,000000	14,160100
2277,000000	14,110700
2276,000000	14,052100
2275,000000	14,014200
2274,000000	13,988600
2273,000000	13,953500
2272,000000	13,944200
2271,000000	13,945900
2270,000000	13,939300
2269,000000	13,959300
2268,000000	13,993600
2267,000000	14,077600
2266,000000	14,178200
2265,000000	14,294100
2264,000000	14,405400
2263,000000	14,561600
2262,000000	14,735200
2261,000000	14,934100
2260,000000	15,148700
2259,000000	15,369600
2258,000000	15,609300
2257,000000	15,866700
2256,000000	16,111000
2255,000000	16,347400
2254,000000	16,620200
2253,000000	16,862600
2252,000000	17,108100
2251,000000	17,341300
2250,000000	17,575500
2249,000000	17,772800
2248,000000	17,953300
2247,000000	18,165900
2246,000000	18,336400
2245,000000	18,482800
2244,000000	18,632000
2243,000000	18,799200
2242,000000	18,901900
2241,000000	19,000300
2240,000000	19,094200
2239,000000	19,197300
2238,000000	19,280000
2237,000000	19,363700
2236,000000	19,428200
2235,000000	19,465900
2234,000000	19,524400
2233,000000	19,570900
2232,000000	19,598400
2231,000000	19,636800
2230,000000	19,641500
2229,000000	19,677100
2228,000000	19,667200
2227,000000	19,646500
2226,000000	19,670600
2225,000000	19,636100
2224,000000	19,614400
2223,000000	19,583000
2222,000000	19,548600
2221,000000	19,517700
2220,000000	19,464100
2219,000000	19,433400
2218,000000	19,375900
2217,000000	19,357900
2216,000000	19,304200
2215,000000	19,247000
2214,000000	19,200800
2213,000000	19,151100
2212,000000	19,109300
2211,000000	19,036600
2210,000000	19,015000
2209,000000	18,988000
2208,000000	18,927700
2207,000000	18,913700
2206,000000	18,888100
2205,000000	18,837800
2204,000000	18,829400
2203,000000	18,803100
2202,000000	18,777100
2201,000000	18,747200
2200,000000	18,719900
2199,000000	18,690800
2198,000000	18,658500
2197,000000	18,658800
2196,000000	18,623200
2195,000000	18,615700
2194,000000	18,604800
2193,000000	18,580700
2192,000000	18,555500
2191,000000	18,547500
2190,000000	18,556700
2189,000000	18,511200
2188,000000	18,506600
2187,000000	18,464600
2186,000000	18,469200
2185,000000	18,463000
2184,000000	18,429400
2183,000000	18,437900
2182,000000	18,407400
2181,000000	18,381400
2180,000000	18,375000
2179,000000	18,377000
2178,000000	18,348400
2177,000000	18,335100
2176,000000	18,329100
2175,000000	18,325300
2174,000000	18,335300
2173,000000	18,347000
2172,000000	18,343300
2171,000000	18,336000
2170,000000	18,351700
2169,000000	18,370900
2168,000000	18,396500
2167,000000	18,415000
2166,000000	18,431000
2165,000000	18,462900
2164,000000	18,510500
2163,000000	18,542800
2162,000000	18,567300
2161,000000	18,613700
2160,000000	18,657300
2159,000000	18,696200
2158,000000	18,744000
2157,000000	18,786300
2156,000000	18,864400
2155,000000	18,919700
2154,000000	18,969700
2153,000000	19,021000
2152,000000	19,088600
2151,000000	19,146000
2150,000000	19,204600
2149,000000	19,276700
2148,000000	19,347400
2147,000000	19,412300
2146,000000	19,465700
2145,000000	19,516600
2144,000000	19,577000
2143,000000	19,628600
2142,000000	19,703500
2141,000000	19,746900
2140,000000	19,794200
2139,000000	19,842700
2138,000000	19,907400
2137,000000	19,955600
2136,000000	20,004200
2135,000000	20,035800
2134,000000	20,079100
2133,000000	20,118000
2132,000000	20,158200
2131,000000	20,184600
2130,000000	20,213600
2129,000000	20,255900
2128,000000	20,275600
2127,000000	20,285800
2126,000000	20,298700
2125,000000	20,311900
2124,000000	20,314500
2123,000000	20,311300
2122,000000	20,318400
2121,000000	20,324400
2120,000000	20,317800
2119,000000	20,332400
2118,000000	20,320200
2117,000000	20,301000
2116,000000	20,291200
2115,000000	20,276200
2114,000000	20,259300
2113,000000	20,244100
2112,000000	20,217900
2111,000000	20,203300
2110,000000	20,179300
2109,000000	20,155300
2108,000000	20,125700
2107,000000	20,106400
2106,000000	20,090600
2105,000000	20,075200
2104,000000	20,050200
2103,000000	20,009900
2102,000000	19,984200
2101,000000	19,964600
2100,000000	19,936000
2099,000000	19,909200
2098,000000	19,894700
2097,000000	19,879000
2096,000000	19,850600
2095,000000	19,824600
2094,000000	19,800900
2093,000000	19,778400
2092,000000	19,761700
2091,000000	19,748600
2090,000000	19,726700
2089,000000	19,717700
2088,000000	19,699300
2087,000000	19,685500
2086,000000	19,671700
2085,000000	19,634700
2084,000000	19,614800
2083,000000	19,587200
2082,000000	19,549700
2081,000000	19,520900
2080,000000	19,485500
2079,000000	19,439200
2078,000000	19,399200
2077,000000	19,360100
2076,000000	19,301900
2075,000000	19,247700
2074,000000	19,198300
2073,000000	19,147400
2072,000000	19,092400
2071,000000	19,030900
2070,000000	18,969600
2069,000000	18,904000
2068,000000	18,836200
2067,000000	18,779600
2066,000000	18,716600
2065,000000	18,655600
2064,000000	18,591400
2063,000000	18,534700
2062,000000	18,481800
2061,000000	18,428900
2060,000000	18,379500
2059,000000	18,332400
2058,000000	18,298700
2057,000000	18,263600
2056,000000	18,239900
2055,000000	18,242400
2054,000000	18,241200
2053,000000	18,243500
2052,000000	18,259600
2051,000000	18,300400
2050,000000	18,347500
2049,000000	18,406300
2048,000000	18,475300
2047,000000	18,552300
2046,000000	18,630800
2045,000000	18,717800
2044,000000	18,804100
2043,000000	18,902400
2042,000000	18,998800
2041,000000	19,093200
2040,000000	19,184700
2039,000000	19,273100
2038,000000	19,359400
2037,000000	19,464900
2036,000000	19,532200
2035,000000	19,612300
2034,000000	19,680800
2033,000000	19,752800
2032,000000	19,816800
2031,000000	19,870000
2030,000000	19,923800
2029,000000	19,985100
2028,000000	20,046900
2027,000000	20,071400
2026,000000	20,107000
2025,000000	20,152600
2024,000000	20,176400
2023,000000	20,201800
2022,000000	20,245300
2021,000000	20,256900
2020,000000	20,269200
2019,000000	20,281300
2018,000000	20,311100
2017,000000	20,326300
2016,000000	20,333900
2015,000000	20,339000
2014,000000	20,332500
2013,000000	20,324000
2012,000000	20,318800
2011,000000	20,298100
2010,000000	20,270300
2009,000000	20,260900
2008,000000	20,227000
2007,000000	20,194000
2006,000000	20,158000
2005,000000	20,135300
2004,000000	20,105200
2003,000000	20,051600
2002,000000	20,006800
2001,000000	19,964700
2000,000000	19,897000
1999,000000	19,834400
1998,000000	19,780900
1997,000000	19,734200
1996,000000	19,657800
1995,000000	19,581700
1994,000000	19,523600
1993,000000	19,433800
1992,000000	19,351300
1991,000000	19,274900
1990,000000	19,183100
1989,000000	19,092000
1988,000000	19,019900
1987,000000	18,927700
1986,000000	18,838000
1985,000000	18,751800
1984,000000	18,651400
1983,000000	18,554600
1982,000000	18,464500
1981,000000	18,368300
1980,000000	18,300100
1979,000000	18,187300
1978,000000	18,083600
1977,000000	17,977900
1976,000000	17,904400
1975,000000	17,811900
1974,000000	17,721400
1973,000000	17,628200
1972,000000	17,534700
1971,000000	17,427400
1970,000000	17,330100
1969,000000	17,263800
1968,000000	17,174100
1967,000000	17,080000
1966,000000	16,989300
1965,000000	16,896600
1964,000000	16,834000
1963,000000	16,756300
1962,000000	16,659300
1961,000000	16,572100
1960,000000	16,479800
1959,000000	16,401900
1958,000000	16,325800
1957,000000	16,245400
1956,000000	16,148800
1955,000000	16,081400
1954,000000	15,977600
1953,000000	15,924100
1952,000000	15,838200
1951,000000	15,768600
1950,000000	15,691900
1949,000000	15,597500
1948,000000	15,545400
1947,000000	15,500800
1946,000000	15,430600
1945,000000	15,365800
1944,000000	15,295300
1943,000000	15,260200
1942,000000	15,219500
1941,000000	15,180300
1940,000000	15,195400
1939,000000	15,150800
1938,000000	15,143400
1937,000000	15,145500
1936,000000	15,130400
1935,000000	15,135100
1934,000000	15,146700
1933,000000	15,152500
1932,000000	15,184900
1931,000000	15,241800
1930,000000	15,295000
1929,000000	15,337300
1928,000000	15,390200
1927,000000	15,525700
1926,000000	15,603600
1925,000000	15,706600
1924,000000	15,801500
1923,000000	15,873100
1922,000000	16,013600
1921,000000	16,176200
1920,000000	16,350700
1919,000000	16,506000
1918,000000	16,639400
1917,000000	16,809800
1916,000000	16,966100
1915,000000	17,104300
1914,000000	17,278200
1913,000000	17,512300
1912,000000	17,765300
1911,000000	18,019900
1910,000000	18,194900
1909,000000	18,398800
1908,000000	18,584300
1907,000000	18,820800
1906,000000	19,084700
1905,000000	19,415700
1904,000000	19,718600
1903,000000	20,028900
1902,000000	20,314400
1901,000000	20,618000
1900,000000	20,908400
1899,000000	21,252900
1898,000000	21,633700
1897,000000	21,958300
1896,000000	22,283500
1895,000000	22,571700
1894,000000	22,873100
1893,000000	23,212100
1892,000000	23,583700
1891,000000	24,009100
1890,000000	24,448800
1889,000000	24,854500
1888,000000	25,218200
1887,000000	25,650700
1886,000000	26,056400
1885,000000	26,490800
1884,000000	26,925600
1883,000000	27,410900
1882,000000	27,880700
1881,000000	28,347900
1880,000000	28,794200
1879,000000	29,222100
1878,000000	29,623700
1877,000000	30,039900
1876,000000	30,422300
1875,000000	30,810300
1874,000000	31,170800
1873,000000	31,529100
1872,000000	31,869500
1871,000000	32,178900
1870,000000	32,461000
1869,000000	32,705800
1868,000000	32,946300
1867,000000	33,110300
1866,000000	33,259800
1865,000000	33,381000
1864,000000	33,487100
1863,000000	33,606300
1862,000000	33,716500
1861,000000	33,850300
1860,000000	33,979900
1859,000000	34,098100
1858,000000	34,194700
1857,000000	34,277300
1856,000000	34,342800
1855,000000	34,366000
1854,000000	34,420000
1853,000000	34,469600
1852,000000	34,484800
1851,000000	34,498200
1850,000000	34,530900
1849,000000	34,571000
1848,000000	34,601300
1847,000000	34,591000
1846,000000	34,580800
1845,000000	34,548200
1844,000000	34,501600
1843,000000	34,487100
1842,000000	34,508400
1841,000000	34,546200
1840,000000	34,564800
1839,000000	34,550600
1838,000000	34,533200
1837,000000	34,511600
1836,000000	34,471600
1835,000000	34,441500
1834,000000	34,399000
1833,000000	34,353000
1832,000000	34,318500
1831,000000	34,269000
1830,000000	34,239000
1829,000000	34,220300
1828,000000	34,193700
1827,000000	34,129100
1826,000000	34,073800
1825,000000	34,050600
1824,000000	34,010600
1823,000000	33,990100
1822,000000	33,998700
1821,000000	34,015100
1820,000000	34,011400
1819,000000	33,984300
1818,000000	33,943500
1817,000000	33,924200
1816,000000	33,919900
1815,000000	33,916800
1814,000000	33,918700
1813,000000	33,909600
1812,000000	33,899400
1811,000000	33,889000
1810,000000	33,865800
1809,000000	33,840900
1808,000000	33,821000
1807,000000	33,801400
1806,000000	33,785900
1805,000000	33,750300
1804,000000	33,719500
1803,000000	33,695300
1802,000000	33,662900
1801,000000	33,647700
1800,000000	33,613900
1799,000000	33,572200
1798,000000	33,537600
1797,000000	33,512200
1796,000000	33,489900
1795,000000	33,461800
1794,000000	33,432400
1793,000000	33,399200
1792,000000	33,373100
1791,000000	33,344400
1790,000000	33,314500
1789,000000	33,289700
1788,000000	33,266300
1787,000000	33,243700
1786,000000	33,209900
1785,000000	33,179000
1784,000000	33,143600
1783,000000	33,093400
1782,000000	33,047300
1781,000000	33,014800
1780,000000	32,985300
1779,000000	32,936800
1778,000000	32,890800
1777,000000	32,831600
1776,000000	32,768400
1775,000000	32,711600
1774,000000	32,661900
1773,000000	32,595700
1772,000000	32,514300
1771,000000	32,429900
1770,000000	32,357300
1769,000000	32,286400
1768,000000	32,208900
1767,000000	32,136300
1766,000000	32,073000
1765,000000	32,013500
1764,000000	31,967200
1763,000000	31,936200
1762,000000	31,936000
1761,000000	31,929500
1760,000000	31,943400
1759,000000	31,990700
1758,000000	32,025300
1757,000000	32,074300
1756,000000	32,129800
1755,000000	32,170300
1754,000000	32,217400
1753,000000	32,252100
1752,000000	32,250200
1751,000000	32,252400
1750,000000	32,251400
1749,000000	32,238100
1748,000000	32,205500
1747,000000	32,175600
1746,000000	32,129100
1745,000000	32,076500
1744,000000	31,981000
1743,000000	31,885100
1742,000000	31,774100
1741,000000	31,649900
1740,000000	31,501200
1739,000000	31,334600
1738,000000	31,182100
1737,000000	31,047700
1736,000000	30,904400
1735,000000	30,797200
1734,000000	30,705900
1733,000000	30,643700
1732,000000	30,613200
1731,000000	30,606700
1730,000000	30,628700
1729,000000	30,675100
1728,000000	30,729600
1727,000000	30,785200
1726,000000	30,844200
1725,000000	30,901900
1724,000000	30,963900
1723,000000	31,018500
1722,000000	31,037700
1721,000000	31,075700
1720,000000	31,125400
1719,000000	31,181800
1718,000000	31,228900
1717,000000	31,300800
1716,000000	31,381100
1715,000000	31,464900
1714,000000	31,562200
1713,000000	31,642700
1712,000000	31,698000
1711,000000	31,777000
1710,000000	31,832400
1709,000000	31,847400
1708,000000	31,882800
1707,000000	31,878800
1706,000000	31,877300
1705,000000	31,849000
1704,000000	31,813800
1703,000000	31,765400
1702,000000	31,712500
1701,000000	31,633400
1700,000000	31,521600
1699,000000	31,413000
1698,000000	31,285000
1697,000000	31,172900
1696,000000	31,094800
1695,000000	31,017600
1694,000000	30,988700
1693,000000	30,984100
1692,000000	31,033600
1691,000000	31,093300
1690,000000	31,188300
1689,000000	31,284800
1688,000000	31,355700
1687,000000	31,412400
1686,000000	31,451800
1685,000000	31,504800
1684,000000	31,569600
1683,000000	31,671000
1682,000000	31,812000
1681,000000	32,048500
1680,000000	32,323400
1679,000000	32,658600
1678,000000	33,018200
1677,000000	33,380800
1676,000000	33,710800
1675,000000	34,022800
1674,000000	34,301200
1673,000000	34,531000
1672,000000	34,749900
1671,000000	34,960600
1670,000000	35,116400
1669,000000	35,282500
1668,000000	35,415100
1667,000000	35,520400
1666,000000	35,616700
1665,000000	35,706000
1664,000000	35,796400
1663,000000	35,901600
1662,000000	35,967200
1661,000000	36,018400
1660,000000	36,082500
1659,000000	36,123000
1658,000000	36,153900
1657,000000	36,200000
1656,000000	36,221500
1655,000000	36,227200
1654,000000	36,227600
1653,000000	36,251500
1652,000000	36,258600
1651,000000	36,238900
1650,000000	36,237400
1649,000000	36,195100
1648,000000	36,184300
1647,000000	36,175700
1646,000000	36,133200
1645,000000	36,099700
1644,000000	36,083600
1643,000000	36,051500
1642,000000	36,001100
1641,000000	35,964800
1640,000000	35,908600
1639,000000	35,908500
1638,000000	35,846700
1637,000000	35,811100
1636,000000	35,770800
1635,000000	35,730000
1634,000000	35,685400
1633,000000	35,649600
1632,000000	35,590800
1631,000000	35,512200
1630,000000	35,478700
1629,000000	35,434800
1628,000000	35,393600
1627,000000	35,300000
1626,000000	35,246300
1625,000000	35,199200
1624,000000	35,148500
1623,000000	35,066700
1622,000000	35,030500
1621,000000	34,979500
1620,000000	34,925100
1619,000000	34,889000
1618,000000	34,826900
1617,000000	34,773200
1616,000000	34,727400
1615,000000	34,674200
1614,000000	34,648400
1613,000000	34,590800
1612,000000	34,546100
1611,000000	34,492000
1610,000000	34,450100
1609,000000	34,386400
1608,000000	34,348000
1607,000000	34,290000
1606,000000	34,229600
1605,000000	34,199000
1604,000000	34,131800
1603,000000	34,091300
1602,000000	34,042700
1601,000000	33,984000
1600,000000	33,931000
1599,000000	33,891400
1598,000000	33,833500
1597,000000	33,776800
1596,000000	33,730100
1595,000000	33,679400
1594,000000	33,648500
1593,000000	33,603000
1592,000000	33,557300
1591,000000	33,509700
1590,000000	33,462900
1589,000000	33,428500
1588,000000	33,404000
1587,000000	33,370100
1586,000000	33,335200
1585,000000	33,293400
1584,000000	33,259400
1583,000000	33,216300
1582,000000	33,201600
1581,000000	33,171700
1580,000000	33,126600
1579,000000	33,101300
1578,000000	33,087100
1577,000000	33,071900
1576,000000	33,058000
1575,000000	33,046300
1574,000000	33,030800
1573,000000	33,031700
1572,000000	33,018700
1571,000000	33,022600
1570,000000	33,020800
1569,000000	33,020400
1568,000000	33,029200
1567,000000	33,027400
1566,000000	33,036400
1565,000000	33,036800
1564,000000	33,046300
1563,000000	33,049100
1562,000000	33,050000
1561,000000	33,054400
1560,000000	33,056000
1559,000000	33,049200
1558,000000	33,031000
1557,000000	33,010300
1556,000000	32,990900
1555,000000	32,988200
1554,000000	32,966900
1553,000000	32,929100
1552,000000	32,902200
1551,000000	32,876100
1550,000000	32,828500
1549,000000	32,800100
1548,000000	32,769100
1547,000000	32,722800
1546,000000	32,690600
1545,000000	32,650500
1544,000000	32,612500
1543,000000	32,586600
1542,000000	32,559400
1541,000000	32,536100
1540,000000	32,502400
1539,000000	32,476900
1538,000000	32,453300
1537,000000	32,421500
1536,000000	32,398800
1535,000000	32,365700
1534,000000	32,337100
1533,000000	32,300200
1532,000000	32,255900
1531,000000	32,203100
1530,000000	32,164400
1529,000000	32,136600
1528,000000	32,096900
1527,000000	32,043500
1526,000000	31,992000
1525,000000	31,944100
1524,000000	31,885400
1523,000000	31,830100
1522,000000	31,786800
1521,000000	31,733300
1520,000000	31,671900
1519,000000	31,612600
1518,000000	31,549000
1517,000000	31,477500
1516,000000	31,419800
1515,000000	31,363500
1514,000000	31,303200
1513,000000	31,239500
1512,000000	31,164200
1511,000000	31,099000
1510,000000	31,033000
1509,000000	30,957400
1508,000000	30,882300
1507,000000	30,806100
1506,000000	30,741300
1505,000000	30,679000
1504,000000	30,600300
1503,000000	30,524900
1502,000000	30,464900
1501,000000	30,396100
1500,000000	30,321300
1499,000000	30,263300
1498,000000	30,207600
1497,000000	30,150300
1496,000000	30,082800
1495,000000	30,036900
1494,000000	30,002800
1493,000000	29,951400
1492,000000	29,903400
1491,000000	29,870500
1490,000000	29,825500
1489,000000	29,783000
1488,000000	29,741400
1487,000000	29,708800
1486,000000	29,685200
1485,000000	29,647500
1484,000000	29,607500
1483,000000	29,573200
1482,000000	29,545900
1481,000000	29,526500
1480,000000	29,501800
1479,000000	29,491700
1478,000000	29,476900
1477,000000	29,449700
1476,000000	29,442100
1475,000000	29,430400
1474,000000	29,428300
1473,000000	29,439900
1472,000000	29,461900
1471,000000	29,459800
1470,000000	29,440900
1469,000000	29,441500
1468,000000	29,447300
1467,000000	29,467500
1466,000000	29,479700
1465,000000	29,503400
1464,000000	29,511400
1463,000000	29,520800
1462,000000	29,551700
1461,000000	29,590000
1460,000000	29,634600
1459,000000	29,684000
1458,000000	29,713600
1457,000000	29,760400
1456,000000	29,816100
1455,000000	29,874200
1454,000000	29,940400
1453,000000	29,998900
1452,000000	30,092300
1451,000000	30,164200
1450,000000	30,248400
1449,000000	30,307900
1448,000000	30,362100
1447,000000	30,446000
1446,000000	30,567300
1445,000000	30,658200
1444,000000	30,731800
1443,000000	30,820000
1442,000000	30,908200
1441,000000	31,005000
1440,000000	31,107800
1439,000000	31,213200
1438,000000	31,325800
1437,000000	31,439000
1436,000000	31,535500
1435,000000	31,636800
1434,000000	31,777800
1433,000000	31,893000
1432,000000	32,029300
1431,000000	32,151600
1430,000000	32,280400
1429,000000	32,392900
1428,000000	32,553500
1427,000000	32,720600
1426,000000	32,883200
1425,000000	33,064100
1424,000000	33,266600
1423,000000	33,464200
1422,000000	33,655900
1421,000000	33,815000
1420,000000	34,029400
1419,000000	34,281900
1418,000000	34,483900
1417,000000	34,716400
1416,000000	34,913000
1415,000000	35,162100
1414,000000	35,450600
1413,000000	35,708500
1412,000000	35,940700
1411,000000	36,162900
1410,000000	36,476700
1409,000000	36,802000
1408,000000	37,126600
1407,000000	37,455700
1406,000000	37,754600
1405,000000	38,094400
1404,000000	38,424300
1403,000000	38,742800
1402,000000	39,073400
1401,000000	39,447500
1400,000000	39,843300
1399,000000	40,137200
1398,000000	40,392500
1397,000000	40,627900
1396,000000	40,944300
1395,000000	41,288900
1394,000000	41,562500
1393,000000	41,762800
1392,000000	42,020100
1391,000000	42,301600
1390,000000	42,586200
1389,000000	42,861100
1388,000000	43,212600
1387,000000	43,547700
1386,000000	43,895600
1385,000000	44,237500
1384,000000	44,692000
1383,000000	45,034900
1382,000000	45,411600
1381,000000	45,752100
1380,000000	46,021900
1379,000000	46,186900
1378,000000	46,383500
1377,000000	46,501000
1376,000000	46,661000
1375,000000	46,807400
1374,000000	46,944500
1373,000000	47,115300
1372,000000	47,324400
1371,000000	47,553800
1370,000000	47,770000
1369,000000	47,947400
1368,000000	48,151200
1367,000000	48,324000
1366,000000	48,489500
1365,000000	48,608400
1364,000000	48,765900
1363,000000	48,875800
1362,000000	49,031100
1361,000000	49,113800
1360,000000	49,208100
1359,000000	49,176200
1358,000000	49,262500
1357,000000	49,341200
1356,000000	49,433800
1355,000000	49,574400
1354,000000	49,759200
1353,000000	49,943100
1352,000000	50,117800
1351,000000	50,414900
1350,000000	50,669200
1349,000000	50,919800
1348,000000	51,171000
1347,000000	51,386400
1346,000000	51,598600
1345,000000	51,770400
1344,000000	51,974100
1343,000000	52,195100
1342,000000	52,357900
1341,000000	52,548500
1340,000000	52,746400
1339,000000	52,932700
1338,000000	53,092100
1337,000000	53,269400
1336,000000	53,427900
1335,000000	53,604100
1334,000000	53,738900
1333,000000	53,906900
1332,000000	54,075400
1331,000000	54,214100
1330,000000	54,350100
1329,000000	54,493400
1328,000000	54,628700
1327,000000	54,753700
1326,000000	54,876100
1325,000000	54,988100
1324,000000	55,104800
1323,000000	55,229300
1322,000000	55,347200
1321,000000	55,433000
1320,000000	55,541000
1319,000000	55,627600
1318,000000	55,713500
1317,000000	55,816000
1316,000000	55,920600
1315,000000	56,001200
1314,000000	56,090600
1313,000000	56,159100
1312,000000	56,247900
1311,000000	56,316800
1310,000000	56,403400
1309,000000	56,479800
1308,000000	56,537500
1307,000000	56,599200
1306,000000	56,654800
1305,000000	56,721200
1304,000000	56,745600
1303,000000	56,803500
1302,000000	56,852500
1301,000000	56,887400
1300,000000	56,932400
1299,000000	56,962200
1298,000000	56,993900
1297,000000	57,026600
1296,000000	57,062800
1295,000000	57,085000
1294,000000	57,108600
1293,000000	57,118500
1292,000000	57,146100
1291,000000	57,174100
1290,000000	57,189400
1289,000000	57,194200
1288,000000	57,194700
1287,000000	57,189300
1286,000000	57,197200
1285,000000	57,194100
1284,000000	57,188000
1283,000000	57,181800
1282,000000	57,181300
1281,000000	57,166800
1280,000000	57,143200
1279,000000	57,143300
1278,000000	57,142700
1277,000000	57,131000
1276,000000	57,117000
1275,000000	57,114800
1274,000000	57,100900
1273,000000	57,089200
1272,000000	57,097000
1271,000000	57,091300
1270,000000	57,097100
1269,000000	57,101700
1268,000000	57,100800
1267,000000	57,102200
1266,000000	57,090400
1265,000000	57,080900
1264,000000	57,076900
1263,000000	57,071000
1262,000000	57,070900
1261,000000	57,063700
1260,000000	57,054300
1259,000000	57,028500
1258,000000	57,016900
1257,000000	57,005300
1256,000000	56,982600
1255,000000	56,960300
1254,000000	56,933000
1253,000000	56,897500
1252,000000	56,871100
1251,000000	56,851300
1250,000000	56,803600
1249,000000	56,757500
1248,000000	56,708500
1247,000000	56,650200
1246,000000	56,586200
1245,000000	56,529800
1244,000000	56,477600
1243,000000	56,399500
1242,000000	56,320200
1241,000000	56,247300
1240,000000	56,171400
1239,000000	56,090600
1238,000000	56,005100
1237,000000	55,918600
1236,000000	55,841500
1235,000000	55,755300
1234,000000	55,669100
1233,000000	55,585300
1232,000000	55,485700
1231,000000	55,379400
1230,000000	55,269300
1229,000000	55,163000
1228,000000	55,069400
1227,000000	54,959900
1226,000000	54,850900
1225,000000	54,746900
1224,000000	54,634700
1223,000000	54,524800
1222,000000	54,414900
1221,000000	54,311200
1220,000000	54,202600
1219,000000	54,089500
1218,000000	53,973800
1217,000000	53,868200
1216,000000	53,772600
1215,000000	53,680600
1214,000000	53,575500
1213,000000	53,474200
1212,000000	53,385500
1211,000000	53,310500
1210,000000	53,237600
1209,000000	53,144400
1208,000000	53,043500
1207,000000	52,965900
1206,000000	52,891400
1205,000000	52,828800
1204,000000	52,777900
1203,000000	52,715200
1202,000000	52,660700
1201,000000	52,617600
1200,000000	52,577300
1199,000000	52,535400
1198,000000	52,477400
1197,000000	52,413100
1196,000000	52,335800
1195,000000	52,242600
1194,000000	52,117000
1193,000000	51,955500
1192,000000	51,767000
1191,000000	51,560800
1190,000000	51,328100
1189,000000	51,109400
1188,000000	50,923100
1187,000000	50,768800
1186,000000	50,673900
1185,000000	50,638500
1184,000000	50,657900
1183,000000	50,750400
1182,000000	50,929600
1181,000000	51,146500
1180,000000	51,398700
1179,000000	51,666100
1178,000000	51,922500
1177,000000	52,183400
1176,000000	52,412800
1175,000000	52,616000
1174,000000	52,812900
1173,000000	52,997300
1172,000000	53,167400
1171,000000	53,355800
1170,000000	53,552600
1169,000000	53,756500
1168,000000	53,963200
1167,000000	54,158600
1166,000000	54,367900
1165,000000	54,591100
1164,000000	54,800700
1163,000000	55,024700
1162,000000	55,258200
1161,000000	55,479600
1160,000000	55,691600
1159,000000	55,904300
1158,000000	56,109700
1157,000000	56,324400
1156,000000	56,506100
1155,000000	56,688200
1154,000000	56,844600
1153,000000	56,973800
1152,000000	57,095900
1151,000000	57,187600
1150,000000	57,262500
1149,000000	57,331900
1148,000000	57,393500
1147,000000	57,470800
1146,000000	57,568200
1145,000000	57,671600
1144,000000	57,792500
1143,000000	57,924300
1142,000000	58,104200
1141,000000	58,298200
1140,000000	58,497800
1139,000000	58,699400
1138,000000	58,900000
1137,000000	59,126000
1136,000000	59,371800
1135,000000	59,608700
1134,000000	59,858300
1133,000000	60,075200
1132,000000	60,236900
1131,000000	60,438200
1130,000000	60,601100
1129,000000	60,758000
1128,000000	60,891900
1127,000000	61,003900
1126,000000	61,082500
1125,000000	61,149500
1124,000000	61,190100
1123,000000	61,260300
1122,000000	61,288700
1121,000000	61,296000
1120,000000	61,298700
1119,000000	61,311300
1118,000000	61,319800
1117,000000	61,316100
1116,000000	61,308600
1115,000000	61,283500
1114,000000	61,251700
1113,000000	61,244300
1112,000000	61,236600
1111,000000	61,219000
1110,000000	61,198700
1109,000000	61,182500
1108,000000	61,165600
1107,000000	61,151800
1106,000000	61,137700
1105,000000	61,115300
1104,000000	61,094900
1103,000000	61,071400
1102,000000	61,090200
1101,000000	61,068400
1100,000000	61,045900
1099,000000	61,026900
1098,000000	61,020200
1097,000000	61,012300
1096,000000	60,985300
1095,000000	60,968100
1094,000000	60,945000
1093,000000	60,922500
1092,000000	60,905300
1091,000000	60,891300
1090,000000	60,876000
1089,000000	60,853700
1088,000000	60,841600
1087,000000	60,805600
1086,000000	60,777300
1085,000000	60,750600
1084,000000	60,719600
1083,000000	60,712800
1082,000000	60,682300
1081,000000	60,668800
1080,000000	60,656100
1079,000000	60,611400
1078,000000	60,591600
1077,000000	60,562300
1076,000000	60,552800
1075,000000	60,530200
1074,000000	60,515000
1073,000000	60,478600
1072,000000	60,437500
1071,000000	60,440500
1070,000000	60,396600
1069,000000	60,380100
1068,000000	60,329200
1067,000000	60,307400
1066,000000	60,284500
1065,000000	60,258400
1064,000000	60,236800
1063,000000	60,203600
1062,000000	60,173000
1061,000000	60,135400
1060,000000	60,101600
1059,000000	60,057200
1058,000000	60,031100
1057,000000	59,993100
1056,000000	59,953400
1055,000000	59,894100
1054,000000	59,859500
1053,000000	59,827300
1052,000000	59,780400
1051,000000	59,719100
1050,000000	59,694000
1049,000000	59,648200
1048,000000	59,596100
1047,000000	59,565300
1046,000000	59,522400
1045,000000	59,470600
1044,000000	59,424800
1043,000000	59,375200
1042,000000	59,308500
1041,000000	59,282100
1040,000000	59,227000
1039,000000	59,185100
1038,000000	59,110400
1037,000000	59,062700
1036,000000	58,994600
1035,000000	58,946200
1034,000000	58,890500
1033,000000	58,830800
1032,000000	58,762000
1031,000000	58,669300
1030,000000	58,621700
1029,000000	58,540200
1028,000000	58,473300
1027,000000	58,409000
1026,000000	58,334500
1025,000000	58,247400
1024,000000	58,175400
1023,000000	58,110400
1022,000000	58,009100
1021,000000	57,942300
1020,000000	57,883800
1019,000000	57,789000
1018,000000	57,719100
1017,000000	57,637000
1016,000000	57,604500
1015,000000	57,549100
1014,000000	57,484100
1013,000000	57,419100
1012,000000	57,384200
1011,000000	57,330500
1010,000000	57,298900
1009,000000	57,271400
1008,000000	57,228400
1007,000000	57,205400
1006,000000	57,194200
1005,000000	57,183000
1004,000000	57,144900
1003,000000	57,122800
1002,000000	57,123400
1001,000000	57,103200
1000,000000	57,120800
999,000000	57,107700
998,000000	57,102600
997,000000	57,110000
996,000000	57,102700
995,000000	57,114200
994,000000	57,117300
993,000000	57,130700
992,000000	57,157600
991,000000	57,187300
990,000000	57,202500
989,000000	57,223400
988,000000	57,255100
987,000000	57,274300
986,000000	57,322400
985,000000	57,357400
984,000000	57,382800
983,000000	57,417400
982,000000	57,448700
981,000000	57,486800
980,000000	57,540500
979,000000	57,580900
978,000000	57,609500
977,000000	57,647800
976,000000	57,670200
975,000000	57,694100
974,000000	57,737300
973,000000	57,745900
972,000000	57,770400
971,000000	57,814400
970,000000	57,817500
969,000000	57,815000
968,000000	57,833700
967,000000	57,867000
966,000000	57,879300
965,000000	57,877500
964,000000	57,891300
963,000000	57,906200
962,000000	57,913500
961,000000	57,920900
960,000000	57,930300
959,000000	57,921400
958,000000	57,937900
957,000000	57,966000
956,000000	57,956200
955,000000	57,951200
954,000000	57,965900
953,000000	57,977100
952,000000	57,994400
951,000000	58,021200
950,000000	58,030500
949,000000	58,052600
948,000000	58,083400
947,000000	58,106600
946,000000	58,154500
945,000000	58,194600
944,000000	58,237500
943,000000	58,295900
942,000000	58,347300
941,000000	58,399000
940,000000	58,462300
939,000000	58,544900
938,000000	58,614100
937,000000	58,688500
936,000000	58,778100
935,000000	58,872400
934,000000	58,990000
933,000000	59,094400
932,000000	59,201700
931,000000	59,321400
930,000000	59,443400
929,000000	59,550100
928,000000	59,640900
927,000000	59,743800
926,000000	59,863300
925,000000	59,969700
924,000000	60,067200
923,000000	60,173700
922,000000	60,273100
921,000000	60,370600
920,000000	60,490300
919,000000	60,576100
918,000000	60,654500
917,000000	60,740800
916,000000	60,821100
915,000000	60,911500
914,000000	60,970500
913,000000	61,034600
912,000000	61,091300
911,000000	61,148500
910,000000	61,204100
909,000000	61,272800
908,000000	61,324100
907,000000	61,361400
906,000000	61,413600
905,000000	61,480400
904,000000	61,513000
903,000000	61,557000
902,000000	61,618300
901,000000	61,648100
900,000000	61,699200
899,000000	61,750800
898,000000	61,805400
897,000000	61,846200
896,000000	61,887600
895,000000	61,959400
894,000000	62,070400
893,000000	62,178500
892,000000	62,273400
891,000000	62,365900
890,000000	62,461000
889,000000	62,568400
888,000000	62,675300
887,000000	62,765300
886,000000	62,869400
885,000000	62,981800
884,000000	63,095100
883,000000	63,206800
882,000000	63,331700
881,000000	63,446400
880,000000	63,581300
879,000000	63,687700
878,000000	63,826200
877,000000	63,947300
876,000000	64,049500
875,000000	64,211300
874,000000	64,367100
873,000000	64,499100
872,000000	64,644300
871,000000	64,759800
870,000000	64,914100
869,000000	65,024700
868,000000	65,188500
867,000000	65,310100
866,000000	65,408900
865,000000	65,508900
864,000000	65,625500
863,000000	65,742900
862,000000	65,840700
861,000000	65,964400
860,000000	66,049100
859,000000	66,117300
858,000000	66,210100
857,000000	69,240900
856,000000	70,284200
855,000000	70,738800
854,000000	69,649700
853,000000	69,937400
852,000000	69,216200
851,000000	69,431100
850,000000	69,983200
849,000000	70,073500
848,000000	69,997500
847,000000	70,265700
846,000000	69,744300
845,000000	70,118500
844,000000	70,231600
843,000000	70,421900
842,000000	70,231700
841,000000	70,261000
840,000000	70,152300
839,000000	70,327700
838,000000	70,150300
837,000000	70,031100
836,000000	70,182800
835,000000	70,094200
834,000000	70,144000
833,000000	70,286000
832,000000	70,764800
831,000000	70,398500
830,000000	70,126200
829,000000	70,239400
828,000000	69,855700
827,000000	70,178000
826,000000	69,702200
825,000000	70,040800
824,000000	70,210900
823,000000	69,974200
822,000000	70,127100
821,000000	69,909400
820,000000	69,873100
819,000000	69,894300
818,000000	69,626000
817,000000	70,020100
816,000000	69,752300
815,000000	69,981500
814,000000	70,079100
813,000000	69,499200
812,000000	69,636700
811,000000	69,865900
810,000000	69,089300
809,000000	69,381400
808,000000	69,639500
807,000000	69,364700
806,000000	69,030800
805,000000	69,218700
804,000000	68,785500
803,000000	68,792800
802,000000	68,469600
801,000000	68,671400
800,000000	68,254600
799,000000	68,281800
798,000000	68,035800
797,000000	68,160800
796,000000	67,921200
795,000000	67,644100
794,000000	67,656200
793,000000	67,333000
792,000000	67,430600
791,000000	67,273500
790,000000	67,182500
789,000000	66,784800
788,000000	66,994200
787,000000	66,618600
786,000000	66,614900
785,000000	66,570800
784,000000	66,399900
783,000000	66,017800
782,000000	66,102000
781,000000	65,680900
780,000000	65,607100
779,000000	65,693300
778,000000	65,502700
777,000000	65,538100
776,000000	65,261100
775,000000	65,143200
774,000000	65,000500
773,000000	64,842800
772,000000	64,855300
771,000000	64,940600
770,000000	64,709300
769,000000	64,492200
768,000000	64,319600
767,000000	64,244000
766,000000	64,105000
765,000000	63,946100
764,000000	64,079200
763,000000	63,845600
762,000000	63,754000
761,000000	63,694500
760,000000	63,399600
759,000000	63,454400
758,000000	63,477100
757,000000	63,147500
756,000000	63,374900
755,000000	63,323700
754,000000	63,118400
753,000000	63,028800
752,000000	62,972500
751,000000	62,717000
750,000000	62,747900
749,000000	62,736300
748,000000	62,746300
747,000000	62,607000
746,000000	62,653500
745,000000	62,610200
744,000000	62,519900
743,000000	62,455700
742,000000	62,384100
741,000000	62,384900
740,000000	62,251500
739,000000	62,072600
738,000000	61,918900
737,000000	61,929300
736,000000	61,620100
735,000000	61,603100
734,000000	61,348400
733,000000	61,205200
732,000000	61,102200
731,000000	61,033000
730,000000	60,786700
729,000000	60,515900
728,000000	60,345000
727,000000	60,129000
726,000000	59,931400
725,000000	59,772700
724,000000	59,561700
723,000000	59,347300
722,000000	59,071800
721,000000	59,062800
720,000000	58,821400
719,000000	58,578700
718,000000	58,278400
717,000000	58,128400
716,000000	58,042200
715,000000	57,925900
714,000000	57,791700
713,000000	57,615700
712,000000	57,483100
711,000000	57,506000
710,000000	57,384300
709,000000	57,244100
708,000000	57,245000
707,000000	57,105900
706,000000	57,021200
705,000000	57,126600
704,000000	56,915700
703,000000	56,878800
702,000000	56,862300
701,000000	56,796200
700,000000	56,615000
699,000000	56,470000
698,000000	56,501800
697,000000	56,294800
696,000000	56,216700
695,000000	56,114100
694,000000	55,964500
693,000000	55,835000
692,000000	55,697700
691,000000	55,644500
690,000000	55,555600
689,000000	55,462200
688,000000	55,368400
687,000000	55,235600
686,000000	55,109500
685,000000	54,987400
684,000000	54,875000
683,000000	54,727700
682,000000	54,530700
681,000000	54,405800
680,000000	54,260900
679,000000	54,124800
678,000000	53,890000
677,000000	53,665000
676,000000	53,529300
675,000000	53,296700
674,000000	53,035700
673,000000	52,804800
672,000000	52,490200
671,000000	52,186500
670,000000	51,958500
669,000000	51,734100
668,000000	51,507600
667,000000	51,232400
666,000000	50,932500
665,000000	50,659900
664,000000	50,373700
663,000000	50,073900
662,000000	49,769600
661,000000	49,384100
660,000000	49,063500
659,000000	48,814500
658,000000	48,455500
657,000000	48,075200
656,000000	47,756500
655,000000	47,416000
654,000000	47,173000
653,000000	46,945400
652,000000	46,665900
651,000000	46,450700
650,000000	46,332400
649,000000	46,257100
648,000000	46,143800
647,000000	46,092700
646,000000	46,091100
645,000000	46,131600
644,000000	46,126000
643,000000	46,121800
642,000000	46,253500
641,000000	46,467500
640,000000	46,697100
639,000000	46,962300
638,000000	47,276100
637,000000	47,649000
636,000000	48,119200
635,000000	48,719000
634,000000	49,285000
633,000000	49,813200
632,000000	50,397100
631,000000	50,959400
630,000000	51,558700
629,000000	52,159600
628,000000	52,694200
627,000000	53,260100
626,000000	53,762900
625,000000	54,215900
624,000000	54,727200
623,000000	55,202400
622,000000	55,596600
621,000000	56,015400
620,000000	56,455700
619,000000	56,869700
618,000000	57,348300
617,000000	57,808100
616,000000	58,247000
615,000000	58,740100
614,000000	59,275800
613,000000	59,817600
612,000000	60,251700
611,000000	60,719400
610,000000	61,201700
609,000000	61,596800
608,000000	61,942500
607,000000	62,239600
606,000000	62,486300
605,000000	62,638900
604,000000	62,745800
603,000000	62,790000
602,000000	62,811200
601,000000	62,743800
600,000000	62,635300
599,000000	62,491500
598,000000	62,383300
597,000000	62,203800
596,000000	62,079200
595,000000	61,954900
594,000000	61,917200
593,000000	61,923100
592,000000	61,911800
591,000000	61,938700
590,000000	62,054100
589,000000	62,147200
588,000000	62,333200
587,000000	62,531800
586,000000	62,728300
585,000000	62,938300
584,000000	63,170600
583,000000	63,343300
582,000000	63,550500
581,000000	63,658900
580,000000	63,655200
579,000000	63,603100
578,000000	63,551900
577,000000	63,454600
576,000000	63,325800
575,000000	63,131200
574,000000	62,964500
573,000000	62,803500
572,000000	62,742400
571,000000	62,698600
570,000000	62,666800
569,000000	62,611100
568,000000	62,645500
567,000000	62,757600
566,000000	62,783800
565,000000	62,887500
564,000000	62,977200
563,000000	63,102200
562,000000	63,149000
561,000000	63,158900
560,000000	63,048400
559,000000	62,840800
558,000000	62,671700
557,000000	62,382900
556,000000	61,941400
555,000000	61,435600
554,000000	60,880900
553,000000	60,217300
552,000000	59,562300
551,000000	58,913400
550,000000	58,155800
549,000000	57,410200
548,000000	56,640500
547,000000	55,950200
546,000000	55,141600
545,000000	54,299000
544,000000	53,510700
543,000000	52,760800
542,000000	51,931100
541,000000	51,141400
540,000000	50,388000
539,000000	49,660500
538,000000	48,994100
537,000000	48,302900
536,000000	47,634600
535,000000	47,081700
534,000000	46,452800
533,000000	45,898100
532,000000	45,306700
531,000000	44,719600
530,000000	44,163800
529,000000	43,564900
528,000000	42,952700
527,000000	42,371800
526,000000	41,740700
525,000000	41,085100
524,000000	40,418600
523,000000	39,825900
522,000000	39,164100
521,000000	38,508700
520,000000	37,886800
519,000000	37,254600
518,000000	36,620100
517,000000	36,100600
516,000000	35,587700
515,000000	35,011200
514,000000	34,617500
513,000000	34,145700
512,000000	33,749400
511,000000	33,329200
510,000000	33,021700
509,000000	32,654000
508,000000	32,354700
507,000000	32,106000
506,000000	31,829100
505,000000	31,566100
504,000000	31,303500
503,000000	31,126400
502,000000	30,793800
501,000000	30,593400
500,000000	30,353800
499,000000	30,063100
498,000000	29,725800
497,000000	29,442800
496,000000	29,120400
495,000000	28,790200
494,000000	28,423900
493,000000	28,124100
492,000000	27,708400
491,000000	27,286300
490,000000	26,876500
489,000000	26,413100
488,000000	26,032400
487,000000	25,542000
486,000000	25,086500
485,000000	24,599100
484,000000	24,101000
483,000000	23,628400
482,000000	23,114400
481,000000	22,566900
480,000000	22,087500
479,000000	21,600500
478,000000	21,164500
477,000000	20,723400
476,000000	20,354000
475,000000	19,975100
474,000000	19,708200
473,000000	19,437200
472,000000	19,266400
471,000000	19,121500
470,000000	19,029600
469,000000	19,020400
468,000000	19,051100
467,000000	19,077200
466,000000	19,181500
465,000000	19,252900
464,000000	19,363000
463,000000	19,504500
462,000000	19,619400
461,000000	19,759800
460,000000	19,858900
459,000000	19,970500
458,000000	20,081500
457,000000	20,139600
456,000000	20,268400
455,000000	20,276200
454,000000	20,291000
453,000000	20,286300
452,000000	20,239100
451,000000	20,237400
450,000000	20,164100
449,000000	20,057900
448,000000	19,982500
447,000000	19,870300
446,000000	19,793400
445,000000	19,617400
444,000000	19,520700
443,000000	19,378700
442,000000	19,166100
441,000000	18,960700
440,000000	18,775600
439,000000	18,586400
438,000000	18,386200
437,000000	18,167800
436,000000	17,961700
435,000000	17,747700
434,000000	17,509500
433,000000	17,280300
432,000000	17,094800
431,000000	16,784400
430,000000	16,585700
429,000000	16,319800
428,000000	16,082700
427,000000	15,813900
426,000000	15,540800
425,000000	15,262600
424,000000	15,069200
423,000000	14,754700
422,000000	14,416200
421,000000	14,153500
420,000000	13,827800
419,000000	13,556000
418,000000	13,249900
417,000000	12,944300
416,000000	12,611300
415,000000	12,266800
414,000000	12,008300
413,000000	11,691200
412,000000	11,377400
411,000000	11,061100
410,000000	10,768800
409,000000	10,487000
408,000000	10,217000
407,000000	9,932300
406,000000	9,658600
405,000000	9,431400
404,000000	9,175200
403,000000	8,926200
402,000000	8,697100
401,000000	8,530300
400,000000	8,291900
399,000000	8,105500
398,000000	7,935900
397,000000	7,786700
396,000000	7,638900
395,000000	7,527900
394,000000	7,391200
393,000000	7,297600
392,000000	7,193300
391,000000	7,080500
390,000000	7,013100
389,000000	6,921100
388,000000	6,857000
387,000000	6,804700
386,000000	6,755100
385,000000	6,706400
384,000000	6,629500
383,000000	6,585200
382,000000	6,572400
381,000000	6,594500
380,000000	6,544800
379,000000	6,476400
378,000000	6,431200
377,000000	6,419900
376,000000	6,360300
375,000000	6,207100
374,000000	6,223000
373,000000	6,349300
372,000000	6,417000
371,000000	6,380300
370,000000	6,191800
369,000000	6,235700
368,000000	6,147900
367,000000	6,106700
366,000000	6,289400
365,000000	6,259000
364,000000	6,130300
363,000000	6,201100
362,000000	6,175700
361,000000	6,098500
360,000000	6,210700
359,000000	6,188900
358,000000	5,970300
357,000000	6,000600
356,000000	6,155400
355,000000	6,150900
354,000000	5,997100
353,000000	6,047800
352,000000	6,023200
351,000000	5,978300
350,000000	5,954400
349,000000	5,990800
348,000000	5,968100
347,000000	5,895700
346,000000	5,920000
345,000000	6,024900
344,000000	6,020600
343,000000	5,997800
342,000000	6,043000
341,000000	5,976100
340,000000	5,957600
339,000000	5,930800
338,000000	5,961500
337,000000	6,136700
336,000000	6,086600
335,000000	5,948400
334,000000	5,823600
333,000000	5,933400
332,000000	5,949900
331,000000	5,941500
330,000000	5,972200
329,000000	5,939100
328,000000	6,205900
327,000000	6,137300
326,000000	5,950000
325,000000	5,968500
324,000000	5,858100
323,000000	5,901100
322,000000	5,992000
321,000000	5,934400
320,000000	5,818800
319,000000	5,929200
318,000000	5,934800
317,000000	6,205800
316,000000	6,233300
315,000000	5,988500
314,000000	5,980400
313,000000	5,941200
312,000000	5,961500
311,000000	6,005000
310,000000	5,984600
309,000000	6,018000
308,000000	6,097600
307,000000	6,135100
306,000000	6,069400
305,000000	6,050300
304,000000	6,100300
303,000000	6,092200
302,000000	6,067200
301,000000	6,065400
300,000000	6,078300
299,000000	6,084700
298,000000	6,085200
297,000000	6,141400
296,000000	6,102000
295,000000	6,108200
294,000000	6,170600
293,000000	6,116000
292,000000	6,066600
291,000000	6,083500
290,000000	6,142800
289,000000	6,177300
288,000000	6,159900
287,000000	6,140000
286,000000	6,164000
285,000000	6,177800
284,000000	6,145600
283,000000	6,175200
282,000000	6,202800
281,000000	6,204300
280,000000	6,197900
279,000000	6,189300
278,000000	6,232700
277,000000	6,240300
276,000000	6,266700
275,000000	6,267700
274,000000	6,267200
273,000000	6,279200
272,000000	6,284400
271,000000	6,308500
270,000000	6,302300
269,000000	6,297400
268,000000	6,312300
267,000000	6,356400
266,000000	6,354600
265,000000	6,428200
264,000000	6,481800
263,000000	6,503400
262,000000	6,558900
261,000000	6,598500
260,000000	6,618700
259,000000	6,624900
258,000000	6,650700
257,000000	6,650300
256,000000	6,712800
255,000000	6,723000
254,000000	6,691700
253,000000	6,746500
252,000000	6,764700
251,000000	6,818700
250,000000	6,824000
