PE UV       SUBTECH     SPECTRUM    ASCII       PEDS        4.00        
   -1
CICIMAUCR0212-3.ASC
24/06/06
17:34:18.00
24/06/06
17:34:18.00
Vinicio Soto Monge
C. resplendens. Sex F. Dorsal
250,000000
1
Lambda 1050
1050L1511233
PerkinElmer UV WinLab 6.3.2.0749 / 2.02.05 Lambda 900 UV/VIS/NIR, Aug  7 2015 09:38:08

0
0
3350/servo 860,8/2
0
0
UV/VIS
1
1
1
DoubleDePol,CommonBeamDepol,RBeamAtt,SBeamAtt,60mm sphere, WB InGaAs Detector
0
0
0
0
Program
Program
3350/servo 860,8/2
3350/0,2 860,8/0,2
3350/0,2 860,8/0,2
0
15.00
 
 
 
0
 
860,8
319,2
860,8
Front
100
on
S:100 R:100
0
0
0
0
 
0
 
 
 
0
 
 
0
0
0
0
0
 
 
 
 
0
0


0
0
#HDR
-1
-1
#GR
nm
%R
1.0
0.0
2500,000000
-1,000000
2251
8
89,566500
5,313500
#DATA
2500,000000	6,535600
2499,000000	6,484300
2498,000000	6,549500
2497,000000	6,502900
2496,000000	6,416600
2495,000000	6,429000
2494,000000	6,415400
2493,000000	6,470900
2492,000000	6,428700
2491,000000	6,368700
2490,000000	6,384800
2489,000000	6,383300
2488,000000	6,321600
2487,000000	6,288300
2486,000000	6,317600
2485,000000	6,265200
2484,000000	6,292700
2483,000000	6,222600
2482,000000	6,243900
2481,000000	6,331700
2480,000000	6,284600
2479,000000	6,332600
2478,000000	6,321000
2477,000000	6,292000
2476,000000	6,319200
2475,000000	6,294300
2474,000000	6,237000
2473,000000	6,295800
2472,000000	6,314700
2471,000000	6,277800
2470,000000	6,271800
2469,000000	6,283100
2468,000000	6,267200
2467,000000	6,252700
2466,000000	6,282000
2465,000000	6,239000
2464,000000	6,287000
2463,000000	6,296200
2462,000000	6,309300
2461,000000	6,309400
2460,000000	6,307400
2459,000000	6,340300
2458,000000	6,375700
2457,000000	6,362500
2456,000000	6,399700
2455,000000	6,423200
2454,000000	6,473700
2453,000000	6,515100
2452,000000	6,551100
2451,000000	6,594000
2450,000000	6,634800
2449,000000	6,668400
2448,000000	6,710800
2447,000000	6,745100
2446,000000	6,791600
2445,000000	6,858700
2444,000000	6,855800
2443,000000	6,913700
2442,000000	6,957700
2441,000000	6,995700
2440,000000	7,029800
2439,000000	7,081300
2438,000000	7,125900
2437,000000	7,157400
2436,000000	7,198000
2435,000000	7,230500
2434,000000	7,252300
2433,000000	7,314500
2432,000000	7,332500
2431,000000	7,378700
2430,000000	7,414300
2429,000000	7,436300
2428,000000	7,490900
2427,000000	7,526200
2426,000000	7,525400
2425,000000	7,543100
2424,000000	7,577300
2423,000000	7,617500
2422,000000	7,645800
2421,000000	7,647500
2420,000000	7,668600
2419,000000	7,694000
2418,000000	7,725600
2417,000000	7,749500
2416,000000	7,771600
2415,000000	7,801800
2414,000000	7,834500
2413,000000	7,849500
2412,000000	7,870800
2411,000000	7,882900
2410,000000	7,897400
2409,000000	7,926600
2408,000000	7,945100
2407,000000	7,954900
2406,000000	7,977000
2405,000000	7,994200
2404,000000	8,030100
2403,000000	8,063600
2402,000000	8,074200
2401,000000	8,104700
2400,000000	8,129700
2399,000000	8,166200
2398,000000	8,235000
2397,000000	8,288700
2396,000000	8,303900
2395,000000	8,323700
2394,000000	8,351900
2393,000000	8,376600
2392,000000	8,397600
2391,000000	8,430900
2390,000000	8,477500
2389,000000	8,496600
2388,000000	8,518700
2387,000000	8,548200
2386,000000	8,571900
2385,000000	8,586200
2384,000000	8,584300
2383,000000	8,595000
2382,000000	8,610300
2381,000000	8,641200
2380,000000	8,658000
2379,000000	8,665300
2378,000000	8,657700
2377,000000	8,660600
2376,000000	8,668700
2375,000000	8,667100
2374,000000	8,659800
2373,000000	8,666700
2372,000000	8,654200
2371,000000	8,647900
2370,000000	8,638600
2369,000000	8,623400
2368,000000	8,603800
2367,000000	8,591100
2366,000000	8,580400
2365,000000	8,536900
2364,000000	8,489900
2363,000000	8,453400
2362,000000	8,421800
2361,000000	8,393700
2360,000000	8,357100
2359,000000	8,316100
2358,000000	8,266600
2357,000000	8,229000
2356,000000	8,202200
2355,000000	8,167200
2354,000000	8,150800
2353,000000	8,125000
2352,000000	8,114500
2351,000000	8,131800
2350,000000	8,137800
2349,000000	8,156200
2348,000000	8,171800
2347,000000	8,189800
2346,000000	8,227000
2345,000000	8,277800
2344,000000	8,323200
2343,000000	8,369800
2342,000000	8,415600
2341,000000	8,446700
2340,000000	8,488100
2339,000000	8,533100
2338,000000	8,562500
2337,000000	8,589300
2336,000000	8,619900
2335,000000	8,639400
2334,000000	8,626700
2333,000000	8,622200
2332,000000	8,604700
2331,000000	8,592800
2330,000000	8,583000
2329,000000	8,552100
2328,000000	8,506200
2327,000000	8,475100
2326,000000	8,431300
2325,000000	8,382100
2324,000000	8,330100
2323,000000	8,247600
2322,000000	8,178700
2321,000000	8,105400
2320,000000	8,033300
2319,000000	7,961100
2318,000000	7,876200
2317,000000	7,774800
2316,000000	7,689000
2315,000000	7,611200
2314,000000	7,532000
2313,000000	7,443400
2312,000000	7,377800
2311,000000	7,288600
2310,000000	7,219500
2309,000000	7,159100
2308,000000	7,117700
2307,000000	7,057000
2306,000000	7,011200
2305,000000	7,015800
2304,000000	7,022800
2303,000000	7,026400
2302,000000	7,059900
2301,000000	7,083100
2300,000000	7,131300
2299,000000	7,197000
2298,000000	7,268800
2297,000000	7,333500
2296,000000	7,396000
2295,000000	7,475500
2294,000000	7,543100
2293,000000	7,598200
2292,000000	7,673900
2291,000000	7,742200
2290,000000	7,799200
2289,000000	7,812000
2288,000000	7,839800
2287,000000	7,861300
2286,000000	7,873100
2285,000000	7,868100
2284,000000	7,861600
2283,000000	7,844600
2282,000000	7,799500
2281,000000	7,776400
2280,000000	7,731700
2279,000000	7,696000
2278,000000	7,643100
2277,000000	7,599200
2276,000000	7,560700
2275,000000	7,526200
2274,000000	7,486900
2273,000000	7,479700
2272,000000	7,437700
2271,000000	7,422100
2270,000000	7,399200
2269,000000	7,414500
2268,000000	7,443700
2267,000000	7,485100
2266,000000	7,502800
2265,000000	7,575000
2264,000000	7,660200
2263,000000	7,751400
2262,000000	7,859300
2261,000000	7,989400
2260,000000	8,153000
2259,000000	8,317400
2258,000000	8,482200
2257,000000	8,674300
2256,000000	8,877800
2255,000000	9,078400
2254,000000	9,302000
2253,000000	9,488400
2252,000000	9,689900
2251,000000	9,894400
2250,000000	10,068900
2249,000000	10,259000
2248,000000	10,440400
2247,000000	10,599400
2246,000000	10,740600
2245,000000	10,888500
2244,000000	11,013000
2243,000000	11,131500
2242,000000	11,246500
2241,000000	11,351400
2240,000000	11,483200
2239,000000	11,573800
2238,000000	11,634600
2237,000000	11,748900
2236,000000	11,816700
2235,000000	11,884800
2234,000000	11,948500
2233,000000	12,009300
2232,000000	12,077000
2231,000000	12,129200
2230,000000	12,145400
2229,000000	12,161700
2228,000000	12,219600
2227,000000	12,226700
2226,000000	12,266300
2225,000000	12,280600
2224,000000	12,293700
2223,000000	12,318700
2222,000000	12,295700
2221,000000	12,293300
2220,000000	12,285700
2219,000000	12,279000
2218,000000	12,298700
2217,000000	12,250500
2216,000000	12,244500
2215,000000	12,240400
2214,000000	12,213200
2213,000000	12,199700
2212,000000	12,199500
2211,000000	12,176700
2210,000000	12,168100
2209,000000	12,155700
2208,000000	12,132400
2207,000000	12,132400
2206,000000	12,143700
2205,000000	12,120300
2204,000000	12,090700
2203,000000	12,088600
2202,000000	12,083900
2201,000000	12,047300
2200,000000	12,073700
2199,000000	12,050600
2198,000000	12,067500
2197,000000	12,060600
2196,000000	12,057600
2195,000000	12,034700
2194,000000	12,011700
2193,000000	12,029800
2192,000000	12,032500
2191,000000	12,008000
2190,000000	11,995200
2189,000000	11,984500
2188,000000	11,986600
2187,000000	11,965700
2186,000000	11,978300
2185,000000	11,967000
2184,000000	11,950200
2183,000000	11,938000
2182,000000	11,923700
2181,000000	11,921100
2180,000000	11,921700
2179,000000	11,903800
2178,000000	11,885200
2177,000000	11,851700
2176,000000	11,844300
2175,000000	11,857600
2174,000000	11,837800
2173,000000	11,845300
2172,000000	11,833300
2171,000000	11,827400
2170,000000	11,836100
2169,000000	11,855300
2168,000000	11,857800
2167,000000	11,874300
2166,000000	11,869900
2165,000000	11,867400
2164,000000	11,878500
2163,000000	11,885800
2162,000000	11,902200
2161,000000	11,916100
2160,000000	11,950400
2159,000000	11,948500
2158,000000	11,951700
2157,000000	11,964300
2156,000000	11,993700
2155,000000	11,996300
2154,000000	12,002600
2153,000000	12,040800
2152,000000	12,055000
2151,000000	12,065600
2150,000000	12,089100
2149,000000	12,108900
2148,000000	12,125500
2147,000000	12,119700
2146,000000	12,157200
2145,000000	12,180900
2144,000000	12,178500
2143,000000	12,203000
2142,000000	12,207500
2141,000000	12,214400
2140,000000	12,222300
2139,000000	12,243800
2138,000000	12,249100
2137,000000	12,264300
2136,000000	12,260400
2135,000000	12,264000
2134,000000	12,264800
2133,000000	12,272100
2132,000000	12,291100
2131,000000	12,274200
2130,000000	12,272100
2129,000000	12,264700
2128,000000	12,271100
2127,000000	12,259300
2126,000000	12,242900
2125,000000	12,228600
2124,000000	12,221900
2123,000000	12,203600
2122,000000	12,184100
2121,000000	12,161500
2120,000000	12,142900
2119,000000	12,110800
2118,000000	12,085700
2117,000000	12,075000
2116,000000	12,046500
2115,000000	12,028300
2114,000000	11,999500
2113,000000	11,973400
2112,000000	11,938400
2111,000000	11,912300
2110,000000	11,884200
2109,000000	11,865200
2108,000000	11,835800
2107,000000	11,807400
2106,000000	11,785300
2105,000000	11,758200
2104,000000	11,722500
2103,000000	11,703200
2102,000000	11,689600
2101,000000	11,658900
2100,000000	11,624800
2099,000000	11,587500
2098,000000	11,562900
2097,000000	11,544200
2096,000000	11,517900
2095,000000	11,488100
2094,000000	11,465300
2093,000000	11,435900
2092,000000	11,407500
2091,000000	11,387000
2090,000000	11,367500
2089,000000	11,350000
2088,000000	11,325500
2087,000000	11,312900
2086,000000	11,283000
2085,000000	11,248300
2084,000000	11,231800
2083,000000	11,207800
2082,000000	11,192400
2081,000000	11,174400
2080,000000	11,143200
2079,000000	11,115100
2078,000000	11,084400
2077,000000	11,051500
2076,000000	11,027600
2075,000000	11,024400
2074,000000	10,996900
2073,000000	10,947600
2072,000000	10,928900
2071,000000	10,906200
2070,000000	10,876200
2069,000000	10,847400
2068,000000	10,819100
2067,000000	10,779500
2066,000000	10,758200
2065,000000	10,744700
2064,000000	10,718000
2063,000000	10,697400
2062,000000	10,668800
2061,000000	10,648800
2060,000000	10,642100
2059,000000	10,640400
2058,000000	10,630500
2057,000000	10,620700
2056,000000	10,621800
2055,000000	10,619400
2054,000000	10,610300
2053,000000	10,620500
2052,000000	10,642900
2051,000000	10,668400
2050,000000	10,702900
2049,000000	10,718900
2048,000000	10,766800
2047,000000	10,805000
2046,000000	10,843200
2045,000000	10,901400
2044,000000	10,953400
2043,000000	11,020400
2042,000000	11,064500
2041,000000	11,094400
2040,000000	11,153500
2039,000000	11,207900
2038,000000	11,246200
2037,000000	11,300300
2036,000000	11,351100
2035,000000	11,375700
2034,000000	11,429400
2033,000000	11,460200
2032,000000	11,493100
2031,000000	11,517600
2030,000000	11,540600
2029,000000	11,569300
2028,000000	11,591500
2027,000000	11,597400
2026,000000	11,590900
2025,000000	11,624700
2024,000000	11,633500
2023,000000	11,637700
2022,000000	11,637800
2021,000000	11,646500
2020,000000	11,653600
2019,000000	11,660900
2018,000000	11,653600
2017,000000	11,648100
2016,000000	11,634400
2015,000000	11,633300
2014,000000	11,617100
2013,000000	11,590900
2012,000000	11,599100
2011,000000	11,588600
2010,000000	11,563800
2009,000000	11,525300
2008,000000	11,480100
2007,000000	11,461200
2006,000000	11,432400
2005,000000	11,400400
2004,000000	11,376000
2003,000000	11,319100
2002,000000	11,294700
2001,000000	11,250000
2000,000000	11,207500
1999,000000	11,152900
1998,000000	11,113900
1997,000000	11,057400
1996,000000	11,001900
1995,000000	10,945200
1994,000000	10,890300
1993,000000	10,863600
1992,000000	10,774800
1991,000000	10,726300
1990,000000	10,679700
1989,000000	10,609100
1988,000000	10,546300
1987,000000	10,476700
1986,000000	10,415700
1985,000000	10,345800
1984,000000	10,289300
1983,000000	10,215300
1982,000000	10,155700
1981,000000	10,070600
1980,000000	10,024600
1979,000000	9,957500
1978,000000	9,876900
1977,000000	9,822500
1976,000000	9,766900
1975,000000	9,688700
1974,000000	9,616500
1973,000000	9,576000
1972,000000	9,471800
1971,000000	9,439500
1970,000000	9,364100
1969,000000	9,308400
1968,000000	9,250200
1967,000000	9,190500
1966,000000	9,147200
1965,000000	9,082800
1964,000000	9,036400
1963,000000	8,966400
1962,000000	8,907700
1961,000000	8,875700
1960,000000	8,825200
1959,000000	8,760200
1958,000000	8,712700
1957,000000	8,646800
1956,000000	8,618400
1955,000000	8,569500
1954,000000	8,515900
1953,000000	8,456300
1952,000000	8,404500
1951,000000	8,396300
1950,000000	8,313100
1949,000000	8,279300
1948,000000	8,261900
1947,000000	8,223300
1946,000000	8,185600
1945,000000	8,141800
1944,000000	8,111900
1943,000000	8,091700
1942,000000	8,075400
1941,000000	8,051500
1940,000000	8,035700
1939,000000	8,037700
1938,000000	8,015800
1937,000000	8,019900
1936,000000	8,009700
1935,000000	8,010100
1934,000000	8,029900
1933,000000	8,039400
1932,000000	8,064300
1931,000000	8,073400
1930,000000	8,116800
1929,000000	8,138300
1928,000000	8,184800
1927,000000	8,249800
1926,000000	8,264100
1925,000000	8,331800
1924,000000	8,385100
1923,000000	8,461700
1922,000000	8,537100
1921,000000	8,606700
1920,000000	8,696800
1919,000000	8,787900
1918,000000	8,860700
1917,000000	8,978500
1916,000000	9,073000
1915,000000	9,195900
1914,000000	9,317500
1913,000000	9,459500
1912,000000	9,586300
1911,000000	9,722400
1910,000000	9,845800
1909,000000	9,995500
1908,000000	10,150600
1907,000000	10,304700
1906,000000	10,464200
1905,000000	10,656700
1904,000000	10,848600
1903,000000	11,025200
1902,000000	11,222300
1901,000000	11,410300
1900,000000	11,621700
1899,000000	11,855700
1898,000000	12,066000
1897,000000	12,285300
1896,000000	12,533800
1895,000000	12,784500
1894,000000	13,057700
1893,000000	13,317900
1892,000000	13,597900
1891,000000	13,899800
1890,000000	14,223200
1889,000000	14,534100
1888,000000	14,845000
1887,000000	15,233500
1886,000000	15,626800
1885,000000	16,039000
1884,000000	16,453900
1883,000000	16,932300
1882,000000	17,426700
1881,000000	17,929500
1880,000000	18,434000
1879,000000	18,942000
1878,000000	19,434600
1877,000000	19,933100
1876,000000	20,419700
1875,000000	20,869500
1874,000000	21,309200
1873,000000	21,726800
1872,000000	22,143600
1871,000000	22,527000
1870,000000	22,882500
1869,000000	23,178300
1868,000000	23,477300
1867,000000	23,774300
1866,000000	24,028700
1865,000000	24,237800
1864,000000	24,439700
1863,000000	24,634600
1862,000000	24,794100
1861,000000	24,971600
1860,000000	25,124000
1859,000000	25,259700
1858,000000	25,373500
1857,000000	25,441500
1856,000000	25,522400
1855,000000	25,589000
1854,000000	25,642000
1853,000000	25,691300
1852,000000	25,723000
1851,000000	25,722200
1850,000000	25,755700
1849,000000	25,785800
1848,000000	25,804300
1847,000000	25,781800
1846,000000	25,738800
1845,000000	25,699000
1844,000000	25,668400
1843,000000	25,668800
1842,000000	25,689800
1841,000000	25,705800
1840,000000	25,691400
1839,000000	25,662700
1838,000000	25,643700
1837,000000	25,622200
1836,000000	25,578600
1835,000000	25,543900
1834,000000	25,498200
1833,000000	25,441400
1832,000000	25,412200
1831,000000	25,372800
1830,000000	25,318500
1829,000000	25,254700
1828,000000	25,202500
1827,000000	25,128100
1826,000000	25,052000
1825,000000	24,994700
1824,000000	24,919000
1823,000000	24,888000
1822,000000	24,888300
1821,000000	24,887000
1820,000000	24,836900
1819,000000	24,768700
1818,000000	24,711500
1817,000000	24,677200
1816,000000	24,673100
1815,000000	24,670800
1814,000000	24,651000
1813,000000	24,633700
1812,000000	24,619800
1811,000000	24,583800
1810,000000	24,558900
1809,000000	24,525600
1808,000000	24,488600
1807,000000	24,453300
1806,000000	24,415800
1805,000000	24,371600
1804,000000	24,313200
1803,000000	24,264400
1802,000000	24,219000
1801,000000	24,177300
1800,000000	24,124900
1799,000000	24,069200
1798,000000	24,022100
1797,000000	23,970100
1796,000000	23,912800
1795,000000	23,864700
1794,000000	23,813800
1793,000000	23,758700
1792,000000	23,702900
1791,000000	23,654100
1790,000000	23,612000
1789,000000	23,557400
1788,000000	23,505100
1787,000000	23,449700
1786,000000	23,384600
1785,000000	23,318400
1784,000000	23,260700
1783,000000	23,181700
1782,000000	23,105600
1781,000000	23,050300
1780,000000	22,989100
1779,000000	22,930500
1778,000000	22,859600
1777,000000	22,776300
1776,000000	22,709000
1775,000000	22,635600
1774,000000	22,547100
1773,000000	22,470500
1772,000000	22,376800
1771,000000	22,270200
1770,000000	22,163700
1769,000000	22,064200
1768,000000	21,970000
1767,000000	21,883900
1766,000000	21,795700
1765,000000	21,723600
1764,000000	21,661900
1763,000000	21,619400
1762,000000	21,611300
1761,000000	21,630300
1760,000000	21,664800
1759,000000	21,712100
1758,000000	21,782800
1757,000000	21,872000
1756,000000	21,938800
1755,000000	22,007700
1754,000000	22,068700
1753,000000	22,116300
1752,000000	22,160500
1751,000000	22,183600
1750,000000	22,197300
1749,000000	22,188100
1748,000000	22,169300
1747,000000	22,131200
1746,000000	22,100100
1745,000000	22,046400
1744,000000	21,959800
1743,000000	21,861200
1742,000000	21,737600
1741,000000	21,595800
1740,000000	21,428800
1739,000000	21,247200
1738,000000	21,051900
1737,000000	20,849600
1736,000000	20,690700
1735,000000	20,550700
1734,000000	20,440500
1733,000000	20,381800
1732,000000	20,353200
1731,000000	20,368700
1730,000000	20,425300
1729,000000	20,515900
1728,000000	20,625300
1727,000000	20,726100
1726,000000	20,839600
1725,000000	20,932300
1724,000000	21,035300
1723,000000	21,121800
1722,000000	21,164800
1721,000000	21,215300
1720,000000	21,243100
1719,000000	21,274400
1718,000000	21,296200
1717,000000	21,314400
1716,000000	21,353200
1715,000000	21,401100
1714,000000	21,450700
1713,000000	21,514500
1712,000000	21,575800
1711,000000	21,626700
1710,000000	21,667100
1709,000000	21,675200
1708,000000	21,664400
1707,000000	21,640600
1706,000000	21,637100
1705,000000	21,597000
1704,000000	21,533500
1703,000000	21,473100
1702,000000	21,397500
1701,000000	21,309100
1700,000000	21,182800
1699,000000	21,057400
1698,000000	20,894900
1697,000000	20,742100
1696,000000	20,609700
1695,000000	20,514400
1694,000000	20,477500
1693,000000	20,504500
1692,000000	20,563900
1691,000000	20,690600
1690,000000	20,842500
1689,000000	20,977800
1688,000000	21,130600
1687,000000	21,227500
1686,000000	21,297700
1685,000000	21,330100
1684,000000	21,365000
1683,000000	21,434200
1682,000000	21,548900
1681,000000	21,771900
1680,000000	22,072700
1679,000000	22,475200
1678,000000	22,939800
1677,000000	23,410400
1676,000000	23,904200
1675,000000	24,319700
1674,000000	24,701400
1673,000000	25,033400
1672,000000	25,331800
1671,000000	25,583800
1670,000000	25,799100
1669,000000	25,961600
1668,000000	26,108000
1667,000000	26,239200
1666,000000	26,346400
1665,000000	26,441900
1664,000000	26,518500
1663,000000	26,580100
1662,000000	26,650200
1661,000000	26,690600
1660,000000	26,707000
1659,000000	26,729500
1658,000000	26,758400
1657,000000	26,790900
1656,000000	26,803200
1655,000000	26,773100
1654,000000	26,772600
1653,000000	26,757300
1652,000000	26,732900
1651,000000	26,709900
1650,000000	26,686000
1649,000000	26,648400
1648,000000	26,619400
1647,000000	26,559300
1646,000000	26,549600
1645,000000	26,490500
1644,000000	26,438900
1643,000000	26,398500
1642,000000	26,350400
1641,000000	26,289200
1640,000000	26,226100
1639,000000	26,168700
1638,000000	26,099400
1637,000000	26,041600
1636,000000	25,976100
1635,000000	25,925700
1634,000000	25,854100
1633,000000	25,791300
1632,000000	25,730900
1631,000000	25,645000
1630,000000	25,576600
1629,000000	25,500300
1628,000000	25,426300
1627,000000	25,336900
1626,000000	25,270700
1625,000000	25,189400
1624,000000	25,122300
1623,000000	25,031600
1622,000000	24,965400
1621,000000	24,886100
1620,000000	24,839200
1619,000000	24,752400
1618,000000	24,705900
1617,000000	24,610500
1616,000000	24,545900
1615,000000	24,503900
1614,000000	24,421400
1613,000000	24,359800
1612,000000	24,295100
1611,000000	24,239300
1610,000000	24,194400
1609,000000	24,111200
1608,000000	24,048400
1607,000000	23,974100
1606,000000	23,934400
1605,000000	23,866500
1604,000000	23,797500
1603,000000	23,733100
1602,000000	23,674400
1601,000000	23,607800
1600,000000	23,558200
1599,000000	23,478100
1598,000000	23,416400
1597,000000	23,359800
1596,000000	23,317500
1595,000000	23,273700
1594,000000	23,189000
1593,000000	23,113600
1592,000000	23,081100
1591,000000	23,029400
1590,000000	22,976400
1589,000000	22,923200
1588,000000	22,866400
1587,000000	22,816400
1586,000000	22,777600
1585,000000	22,721100
1584,000000	22,669400
1583,000000	22,635800
1582,000000	22,598900
1581,000000	22,544500
1580,000000	22,522900
1579,000000	22,479100
1578,000000	22,451900
1577,000000	22,407700
1576,000000	22,385400
1575,000000	22,346100
1574,000000	22,329300
1573,000000	22,304500
1572,000000	22,281600
1571,000000	22,262200
1570,000000	22,254700
1569,000000	22,242000
1568,000000	22,236100
1567,000000	22,229500
1566,000000	22,217400
1565,000000	22,190500
1564,000000	22,188300
1563,000000	22,195100
1562,000000	22,175700
1561,000000	22,173800
1560,000000	22,161600
1559,000000	22,143100
1558,000000	22,128500
1557,000000	22,121900
1556,000000	22,103000
1555,000000	22,086800
1554,000000	22,060900
1553,000000	22,038900
1552,000000	22,012300
1551,000000	22,002600
1550,000000	21,969600
1549,000000	21,935400
1548,000000	21,917300
1547,000000	21,878600
1546,000000	21,855400
1545,000000	21,830800
1544,000000	21,809700
1543,000000	21,789000
1542,000000	21,767900
1541,000000	21,744200
1540,000000	21,721100
1539,000000	21,699800
1538,000000	21,675100
1537,000000	21,641500
1536,000000	21,615900
1535,000000	21,602000
1534,000000	21,571800
1533,000000	21,538800
1532,000000	21,506700
1531,000000	21,479600
1530,000000	21,442100
1529,000000	21,400000
1528,000000	21,373900
1527,000000	21,344100
1526,000000	21,297400
1525,000000	21,251700
1524,000000	21,207800
1523,000000	21,179200
1522,000000	21,136100
1521,000000	21,087000
1520,000000	21,048300
1519,000000	20,996500
1518,000000	20,951700
1517,000000	20,904500
1516,000000	20,834100
1515,000000	20,787200
1514,000000	20,750700
1513,000000	20,698300
1512,000000	20,641500
1511,000000	20,585500
1510,000000	20,525100
1509,000000	20,466100
1508,000000	20,428300
1507,000000	20,389600
1506,000000	20,330100
1505,000000	20,264600
1504,000000	20,204400
1503,000000	20,144400
1502,000000	20,099000
1501,000000	20,044200
1500,000000	19,984600
1499,000000	19,941300
1498,000000	19,897000
1497,000000	19,848700
1496,000000	19,810600
1495,000000	19,752200
1494,000000	19,696400
1493,000000	19,658500
1492,000000	19,615500
1491,000000	19,582800
1490,000000	19,541200
1489,000000	19,501800
1488,000000	19,465300
1487,000000	19,417800
1486,000000	19,383000
1485,000000	19,350600
1484,000000	19,314400
1483,000000	19,290400
1482,000000	19,263900
1481,000000	19,244500
1480,000000	19,221600
1479,000000	19,183700
1478,000000	19,144700
1477,000000	19,127000
1476,000000	19,120200
1475,000000	19,111100
1474,000000	19,098700
1473,000000	19,091500
1472,000000	19,093200
1471,000000	19,083300
1470,000000	19,069700
1469,000000	19,061500
1468,000000	19,042600
1467,000000	19,028600
1466,000000	19,041000
1465,000000	19,049100
1464,000000	19,039300
1463,000000	19,052600
1462,000000	19,049200
1461,000000	19,063000
1460,000000	19,100600
1459,000000	19,129900
1458,000000	19,156300
1457,000000	19,183100
1456,000000	19,222600
1455,000000	19,260300
1454,000000	19,320700
1453,000000	19,366700
1452,000000	19,431400
1451,000000	19,519700
1450,000000	19,581800
1449,000000	19,631300
1448,000000	19,681500
1447,000000	19,759300
1446,000000	19,836200
1445,000000	19,926600
1444,000000	19,996900
1443,000000	20,073800
1442,000000	20,144800
1441,000000	20,232200
1440,000000	20,332200
1439,000000	20,406600
1438,000000	20,505900
1437,000000	20,626800
1436,000000	20,714500
1435,000000	20,815500
1434,000000	20,923300
1433,000000	21,040900
1432,000000	21,149900
1431,000000	21,269100
1430,000000	21,389200
1429,000000	21,509000
1428,000000	21,641800
1427,000000	21,784300
1426,000000	21,952700
1425,000000	22,121900
1424,000000	22,297300
1423,000000	22,493900
1422,000000	22,645600
1421,000000	22,813900
1420,000000	23,041400
1419,000000	23,285500
1418,000000	23,503600
1417,000000	23,710100
1416,000000	23,917000
1415,000000	24,151200
1414,000000	24,403100
1413,000000	24,676000
1412,000000	24,919700
1411,000000	25,161400
1410,000000	25,452600
1409,000000	25,784300
1408,000000	26,114900
1407,000000	26,469300
1406,000000	26,822800
1405,000000	27,183100
1404,000000	27,567500
1403,000000	27,919300
1402,000000	28,343900
1401,000000	28,727800
1400,000000	29,169800
1399,000000	29,537300
1398,000000	29,880700
1397,000000	30,145700
1396,000000	30,522400
1395,000000	30,903400
1394,000000	31,251600
1393,000000	31,511700
1392,000000	31,783200
1391,000000	32,134800
1390,000000	32,463000
1389,000000	32,808700
1388,000000	33,183800
1387,000000	33,631400
1386,000000	34,082800
1385,000000	34,533400
1384,000000	35,040400
1383,000000	35,620700
1382,000000	36,190100
1381,000000	36,722600
1380,000000	37,145400
1379,000000	37,372900
1378,000000	37,728900
1377,000000	37,947900
1376,000000	38,179100
1375,000000	38,383100
1374,000000	38,598500
1373,000000	38,845400
1372,000000	39,140200
1371,000000	39,493600
1370,000000	39,841300
1369,000000	40,171700
1368,000000	40,458100
1367,000000	40,754900
1366,000000	40,992400
1365,000000	41,231700
1364,000000	41,465200
1363,000000	41,646000
1362,000000	41,816900
1361,000000	42,040100
1360,000000	42,183200
1359,000000	42,281700
1358,000000	42,341400
1357,000000	42,446000
1356,000000	42,579700
1355,000000	42,776400
1354,000000	43,048200
1353,000000	43,429300
1352,000000	43,753600
1351,000000	44,217200
1350,000000	44,687300
1349,000000	45,122900
1348,000000	45,528400
1347,000000	45,910600
1346,000000	46,245800
1345,000000	46,558800
1344,000000	46,859100
1343,000000	47,200900
1342,000000	47,492500
1341,000000	47,781700
1340,000000	48,090200
1339,000000	48,372100
1338,000000	48,667500
1337,000000	48,960600
1336,000000	49,229000
1335,000000	49,498900
1334,000000	49,752500
1333,000000	50,008800
1332,000000	50,270900
1331,000000	50,524700
1330,000000	50,772600
1329,000000	51,014100
1328,000000	51,227400
1327,000000	51,449900
1326,000000	51,659400
1325,000000	51,866500
1324,000000	52,060600
1323,000000	52,245000
1322,000000	52,439500
1321,000000	52,604100
1320,000000	52,781000
1319,000000	52,957000
1318,000000	53,114900
1317,000000	53,251500
1316,000000	53,406500
1315,000000	53,551200
1314,000000	53,685200
1313,000000	53,807100
1312,000000	53,950500
1311,000000	54,079700
1310,000000	54,206400
1309,000000	54,307400
1308,000000	54,419400
1307,000000	54,521600
1306,000000	54,607700
1305,000000	54,692300
1304,000000	54,765600
1303,000000	54,838800
1302,000000	54,899600
1301,000000	54,944400
1300,000000	54,985600
1299,000000	55,028400
1298,000000	55,067200
1297,000000	55,117700
1296,000000	55,164800
1295,000000	55,195100
1294,000000	55,212000
1293,000000	55,231700
1292,000000	55,254800
1291,000000	55,274800
1290,000000	55,271300
1289,000000	55,264300
1288,000000	55,252000
1287,000000	55,248800
1286,000000	55,235500
1285,000000	55,212600
1284,000000	55,184900
1283,000000	55,146300
1282,000000	55,113700
1281,000000	55,067600
1280,000000	55,029900
1279,000000	54,986000
1278,000000	54,931800
1277,000000	54,890100
1276,000000	54,846900
1275,000000	54,802300
1274,000000	54,758900
1273,000000	54,728900
1272,000000	54,684900
1271,000000	54,650500
1270,000000	54,622400
1269,000000	54,572900
1268,000000	54,539600
1267,000000	54,504200
1266,000000	54,460200
1265,000000	54,415600
1264,000000	54,354600
1263,000000	54,307900
1262,000000	54,264400
1261,000000	54,221600
1260,000000	54,174200
1259,000000	54,118900
1258,000000	54,059900
1257,000000	54,017900
1256,000000	53,956100
1255,000000	53,891900
1254,000000	53,836900
1253,000000	53,757800
1252,000000	53,683800
1251,000000	53,624300
1250,000000	53,541900
1249,000000	53,462400
1248,000000	53,390500
1247,000000	53,287000
1246,000000	53,193000
1245,000000	53,117200
1244,000000	53,002200
1243,000000	52,896500
1242,000000	52,793400
1241,000000	52,668000
1240,000000	52,535000
1239,000000	52,410700
1238,000000	52,279100
1237,000000	52,134000
1236,000000	51,999700
1235,000000	51,876600
1234,000000	51,738300
1233,000000	51,590300
1232,000000	51,438400
1231,000000	51,279500
1230,000000	51,124500
1229,000000	50,966800
1228,000000	50,810100
1227,000000	50,651700
1226,000000	50,483800
1225,000000	50,328600
1224,000000	50,158600
1223,000000	49,983400
1222,000000	49,819600
1221,000000	49,654100
1220,000000	49,482600
1219,000000	49,332200
1218,000000	49,178300
1217,000000	49,018800
1216,000000	48,871400
1215,000000	48,738000
1214,000000	48,600900
1213,000000	48,471500
1212,000000	48,356500
1211,000000	48,230000
1210,000000	48,105100
1209,000000	47,986500
1208,000000	47,887400
1207,000000	47,796100
1206,000000	47,699200
1205,000000	47,624500
1204,000000	47,567300
1203,000000	47,527300
1202,000000	47,479300
1201,000000	47,450700
1200,000000	47,419500
1199,000000	47,369500
1198,000000	47,313700
1197,000000	47,234800
1196,000000	47,099600
1195,000000	46,947000
1194,000000	46,761900
1193,000000	46,503600
1192,000000	46,198000
1191,000000	45,833900
1190,000000	45,428200
1189,000000	45,020900
1188,000000	44,634500
1187,000000	44,334100
1186,000000	44,111500
1185,000000	43,984300
1184,000000	43,998000
1183,000000	44,113300
1182,000000	44,358400
1181,000000	44,727700
1180,000000	45,169900
1179,000000	45,630500
1178,000000	46,101900
1177,000000	46,539300
1176,000000	46,927600
1175,000000	47,289900
1174,000000	47,617000
1173,000000	47,903700
1172,000000	48,192100
1171,000000	48,491900
1170,000000	48,805100
1169,000000	49,130600
1168,000000	49,434900
1167,000000	49,765300
1166,000000	50,105500
1165,000000	50,452200
1164,000000	50,787800
1163,000000	51,144800
1162,000000	51,520400
1161,000000	51,889900
1160,000000	52,225500
1159,000000	52,588000
1158,000000	52,949600
1157,000000	53,275400
1156,000000	53,591600
1155,000000	53,889100
1154,000000	54,150300
1153,000000	54,374700
1152,000000	54,551400
1151,000000	54,689600
1150,000000	54,782100
1149,000000	54,866400
1148,000000	54,948700
1147,000000	55,048700
1146,000000	55,154300
1145,000000	55,325000
1144,000000	55,540700
1143,000000	55,787000
1142,000000	56,107300
1141,000000	56,462800
1140,000000	56,848100
1139,000000	57,210100
1138,000000	57,612600
1137,000000	58,024000
1136,000000	58,424900
1135,000000	58,877100
1134,000000	59,333600
1133,000000	59,782400
1132,000000	60,159200
1131,000000	60,512700
1130,000000	60,844800
1129,000000	61,152900
1128,000000	61,420600
1127,000000	61,657400
1126,000000	61,837100
1125,000000	62,001200
1124,000000	62,111400
1123,000000	62,220300
1122,000000	62,322600
1121,000000	62,383600
1120,000000	62,458200
1119,000000	62,528800
1118,000000	62,559100
1117,000000	62,607400
1116,000000	62,642800
1115,000000	62,650700
1114,000000	62,688600
1113,000000	62,679900
1112,000000	62,686700
1111,000000	62,721800
1110,000000	62,717000
1109,000000	62,730800
1108,000000	62,743800
1107,000000	62,757200
1106,000000	62,764200
1105,000000	62,779200
1104,000000	62,766100
1103,000000	62,779200
1102,000000	62,784000
1101,000000	62,780800
1100,000000	62,785400
1099,000000	62,778500
1098,000000	62,770500
1097,000000	62,769100
1096,000000	62,775000
1095,000000	62,774200
1094,000000	62,755100
1093,000000	62,733900
1092,000000	62,721100
1091,000000	62,689900
1090,000000	62,666100
1089,000000	62,626600
1088,000000	62,598400
1087,000000	62,565100
1086,000000	62,518800
1085,000000	62,480200
1084,000000	62,442600
1083,000000	62,400900
1082,000000	62,353400
1081,000000	62,318900
1080,000000	62,265300
1079,000000	62,242400
1078,000000	62,190000
1077,000000	62,125100
1076,000000	62,079100
1075,000000	62,049400
1074,000000	61,999600
1073,000000	61,940100
1072,000000	61,890300
1071,000000	61,863000
1070,000000	61,795200
1069,000000	61,769300
1068,000000	61,748700
1067,000000	61,712700
1066,000000	61,660500
1065,000000	61,617500
1064,000000	61,560000
1063,000000	61,527600
1062,000000	61,492100
1061,000000	61,443900
1060,000000	61,403800
1059,000000	61,374100
1058,000000	61,301200
1057,000000	61,272100
1056,000000	61,239100
1055,000000	61,196700
1054,000000	61,138300
1053,000000	61,104300
1052,000000	61,073500
1051,000000	61,027500
1050,000000	60,990800
1049,000000	60,939300
1048,000000	60,898100
1047,000000	60,872000
1046,000000	60,835700
1045,000000	60,811300
1044,000000	60,781800
1043,000000	60,742400
1042,000000	60,689400
1041,000000	60,664400
1040,000000	60,643400
1039,000000	60,574800
1038,000000	60,538300
1037,000000	60,496200
1036,000000	60,450300
1035,000000	60,387100
1034,000000	60,324800
1033,000000	60,283000
1032,000000	60,223700
1031,000000	60,150500
1030,000000	60,098500
1029,000000	60,037300
1028,000000	59,959200
1027,000000	59,889700
1026,000000	59,819000
1025,000000	59,735700
1024,000000	59,659000
1023,000000	59,603300
1022,000000	59,526600
1021,000000	59,420000
1020,000000	59,363800
1019,000000	59,288000
1018,000000	59,204500
1017,000000	59,143000
1016,000000	59,079200
1015,000000	59,040100
1014,000000	58,993600
1013,000000	58,942300
1012,000000	58,903400
1011,000000	58,903000
1010,000000	58,875000
1009,000000	58,862900
1008,000000	58,854200
1007,000000	58,858400
1006,000000	58,876800
1005,000000	58,874900
1004,000000	58,905600
1003,000000	58,913000
1002,000000	58,909200
1001,000000	58,924800
1000,000000	58,940500
999,000000	58,957800
998,000000	58,969100
997,000000	58,973100
996,000000	58,993800
995,000000	59,019200
994,000000	59,044200
993,000000	59,058900
992,000000	59,082300
991,000000	59,110500
990,000000	59,145300
989,000000	59,184400
988,000000	59,199800
987,000000	59,236400
986,000000	59,297200
985,000000	59,341100
984,000000	59,372700
983,000000	59,422600
982,000000	59,476300
981,000000	59,524300
980,000000	59,554800
979,000000	59,604600
978,000000	59,655500
977,000000	59,700300
976,000000	59,731300
975,000000	59,798100
974,000000	59,869400
973,000000	59,911600
972,000000	59,953400
971,000000	60,021900
970,000000	60,093000
969,000000	60,137000
968,000000	60,169800
967,000000	60,219500
966,000000	60,300400
965,000000	60,382300
964,000000	60,446700
963,000000	60,515400
962,000000	60,608700
961,000000	60,690400
960,000000	60,761500
959,000000	60,846700
958,000000	60,924100
957,000000	61,013000
956,000000	61,100900
955,000000	61,159400
954,000000	61,243700
953,000000	61,321400
952,000000	61,388900
951,000000	61,482400
950,000000	61,560600
949,000000	61,627200
948,000000	61,734800
947,000000	61,820400
946,000000	61,876800
945,000000	61,954100
944,000000	62,050000
943,000000	62,128000
942,000000	62,197300
941,000000	62,298900
940,000000	62,374200
939,000000	62,430800
938,000000	62,496200
937,000000	62,568100
936,000000	62,673500
935,000000	62,759500
934,000000	62,834000
933,000000	62,919300
932,000000	63,004600
931,000000	63,113800
930,000000	63,196900
929,000000	63,259100
928,000000	63,359300
927,000000	63,445200
926,000000	63,504100
925,000000	63,579300
924,000000	63,650700
923,000000	63,738200
922,000000	63,821800
921,000000	63,875000
920,000000	63,931200
919,000000	63,993200
918,000000	64,044700
917,000000	64,077000
916,000000	64,120000
915,000000	64,160500
914,000000	64,196000
913,000000	64,242600
912,000000	64,327900
911,000000	64,368200
910,000000	64,401300
909,000000	64,408600
908,000000	64,430600
907,000000	64,485700
906,000000	64,525600
905,000000	64,576700
904,000000	64,647900
903,000000	64,710300
902,000000	64,767800
901,000000	64,849200
900,000000	64,930600
899,000000	64,998200
898,000000	65,021400
897,000000	65,083200
896,000000	65,167500
895,000000	65,233000
894,000000	65,300400
893,000000	65,355900
892,000000	65,377700
891,000000	65,397400
890,000000	65,436000
889,000000	65,427900
888,000000	65,453000
887,000000	65,489500
886,000000	65,486500
885,000000	65,450400
884,000000	65,434100
883,000000	65,382000
882,000000	65,355900
881,000000	65,287700
880,000000	65,217200
879,000000	65,128800
878,000000	65,049700
877,000000	64,886600
876,000000	64,695700
875,000000	64,510600
874,000000	64,373700
873,000000	64,139600
872,000000	63,857600
871,000000	63,566600
870,000000	63,403900
869,000000	63,428300
868,000000	63,541900
867,000000	63,670700
866,000000	63,825600
865,000000	63,953500
864,000000	64,062700
863,000000	64,186100
862,000000	64,295000
861,000000	64,442600
860,000000	64,569400
859,000000	64,685600
858,000000	64,806300
857,000000	71,425800
856,000000	72,697100
855,000000	72,827100
854,000000	73,079600
853,000000	73,498600
852,000000	73,678900
851,000000	73,617800
850,000000	73,799400
849,000000	73,644100
848,000000	74,331000
847,000000	74,364100
846,000000	74,330200
845,000000	74,609700
844,000000	74,664200
843,000000	74,842200
842,000000	75,086400
841,000000	75,275500
840,000000	75,517900
839,000000	75,377500
838,000000	75,815800
837,000000	75,881800
836,000000	76,172800
835,000000	76,383600
834,000000	76,549900
833,000000	76,630400
832,000000	76,970400
831,000000	77,037400
830,000000	77,107600
829,000000	77,232400
828,000000	77,361900
827,000000	77,537800
826,000000	77,584900
825,000000	77,807000
824,000000	78,078300
823,000000	78,108000
822,000000	78,169400
821,000000	78,346300
820,000000	78,395400
819,000000	78,526100
818,000000	78,766000
817,000000	78,991400
816,000000	79,074900
815,000000	78,921900
814,000000	79,181200
813,000000	79,310900
812,000000	79,368200
811,000000	79,565700
810,000000	79,927900
809,000000	79,992500
808,000000	80,121200
807,000000	80,265200
806,000000	80,671600
805,000000	80,665600
804,000000	80,823800
803,000000	80,996100
802,000000	81,331000
801,000000	81,529700
800,000000	81,453100
799,000000	81,799400
798,000000	81,985300
797,000000	82,270100
796,000000	82,412400
795,000000	82,636200
794,000000	82,711400
793,000000	83,209100
792,000000	83,373900
791,000000	83,598400
790,000000	83,627500
789,000000	83,971300
788,000000	84,083400
787,000000	84,544500
786,000000	84,643600
785,000000	84,882700
784,000000	85,130400
783,000000	85,414000
782,000000	85,576200
781,000000	85,789400
780,000000	86,095600
779,000000	86,269700
778,000000	86,474400
777,000000	86,882700
776,000000	87,079200
775,000000	87,132800
774,000000	87,428600
773,000000	87,591300
772,000000	87,778400
771,000000	87,864700
770,000000	87,989900
769,000000	88,119500
768,000000	88,418400
767,000000	88,532000
766,000000	88,528100
765,000000	88,614200
764,000000	88,668300
763,000000	88,803500
762,000000	88,927000
761,000000	88,783000
760,000000	88,906800
759,000000	88,826000
758,000000	88,882400
757,000000	88,949300
756,000000	88,968900
755,000000	88,816400
754,000000	89,022400
753,000000	89,020300
752,000000	88,871400
751,000000	88,918300
750,000000	88,936800
749,000000	89,001900
748,000000	88,986600
747,000000	89,079700
746,000000	89,000100
745,000000	89,002100
744,000000	89,049500
743,000000	88,976800
742,000000	89,087900
741,000000	89,133400
740,000000	89,146100
739,000000	89,134900
738,000000	89,101100
737,000000	89,201300
736,000000	89,278700
735,000000	89,259500
734,000000	89,348800
733,000000	89,355600
732,000000	89,414400
731,000000	89,340000
730,000000	89,343900
729,000000	89,453400
728,000000	89,394500
727,000000	89,424700
726,000000	89,405600
725,000000	89,380100
724,000000	89,320700
723,000000	89,391700
722,000000	89,263700
721,000000	89,174900
720,000000	89,070500
719,000000	89,070400
718,000000	88,900000
717,000000	88,850000
716,000000	88,685100
715,000000	88,568900
714,000000	88,547200
713,000000	88,302700
712,000000	88,104600
711,000000	87,924100
710,000000	87,657400
709,000000	87,393000
708,000000	87,176000
707,000000	86,901300
706,000000	86,656700
705,000000	86,434000
704,000000	86,060100
703,000000	85,691200
702,000000	85,483800
701,000000	85,185700
700,000000	84,843500
699,000000	84,410400
698,000000	84,084100
697,000000	83,667400
696,000000	83,317500
695,000000	82,986100
694,000000	82,662800
693,000000	82,243300
692,000000	81,829700
691,000000	81,494000
690,000000	81,186800
689,000000	80,799700
688,000000	80,477100
687,000000	80,169600
686,000000	79,863400
685,000000	79,477800
684,000000	79,190300
683,000000	78,902400
682,000000	78,607800
681,000000	78,368500
680,000000	78,078000
679,000000	77,806000
678,000000	77,586300
677,000000	77,361100
676,000000	77,175700
675,000000	77,012200
674,000000	76,826400
673,000000	76,656000
672,000000	76,469000
671,000000	76,302600
670,000000	76,191100
669,000000	76,096600
668,000000	76,023300
667,000000	75,958700
666,000000	75,872100
665,000000	75,809800
664,000000	75,779800
663,000000	75,737600
662,000000	75,713600
661,000000	75,622900
660,000000	75,532400
659,000000	75,547300
658,000000	75,472900
657,000000	75,391600
656,000000	75,351300
655,000000	75,282800
654,000000	75,173300
653,000000	75,007600
652,000000	74,866800
651,000000	74,652300
650,000000	74,461500
649,000000	74,216700
648,000000	73,924500
647,000000	73,610300
646,000000	73,238500
645,000000	72,850100
644,000000	72,401900
643,000000	71,930300
642,000000	71,450500
641,000000	70,937200
640,000000	70,389500
639,000000	69,825600
638,000000	69,239800
637,000000	68,673400
636,000000	68,066900
635,000000	67,496400
634,000000	66,970600
633,000000	66,436000
632,000000	65,953400
631,000000	65,493000
630,000000	65,063200
629,000000	64,724700
628,000000	64,426700
627,000000	64,205000
626,000000	64,015300
625,000000	63,877100
624,000000	63,809700
623,000000	63,806700
622,000000	63,856800
621,000000	63,958800
620,000000	64,107200
619,000000	64,259100
618,000000	64,522100
617,000000	64,836000
616,000000	65,127400
615,000000	65,490200
614,000000	65,883700
613,000000	66,298800
612,000000	66,758000
611,000000	67,311900
610,000000	67,884600
609,000000	68,456000
608,000000	69,092900
607,000000	69,731300
606,000000	70,429900
605,000000	71,168500
604,000000	71,924500
603,000000	72,753500
602,000000	73,564400
601,000000	74,381800
600,000000	75,175900
599,000000	76,008700
598,000000	76,831500
597,000000	77,645700
596,000000	78,514300
595,000000	79,327400
594,000000	80,084300
593,000000	80,878400
592,000000	81,670000
591,000000	82,412400
590,000000	83,115100
589,000000	83,800700
588,000000	84,405100
587,000000	85,008800
586,000000	85,579000
585,000000	86,080300
584,000000	86,548100
583,000000	87,002900
582,000000	87,441300
581,000000	87,714000
580,000000	88,020200
579,000000	88,237600
578,000000	88,460200
577,000000	88,696000
576,000000	88,852600
575,000000	89,022000
574,000000	89,134600
573,000000	89,233300
572,000000	89,352100
571,000000	89,393300
570,000000	89,458300
569,000000	89,500200
568,000000	89,510900
567,000000	89,566500
566,000000	89,546400
565,000000	89,518900
564,000000	89,489200
563,000000	89,418300
562,000000	89,384100
561,000000	89,256500
560,000000	89,156600
559,000000	88,987100
558,000000	88,781200
557,000000	88,569700
556,000000	88,367200
555,000000	88,134300
554,000000	87,874500
553,000000	87,655100
552,000000	87,382200
551,000000	87,030200
550,000000	86,664700
549,000000	86,346100
548,000000	85,969400
547,000000	85,592200
546,000000	85,202800
545,000000	84,812600
544,000000	84,418300
543,000000	84,007400
542,000000	83,579000
541,000000	83,050400
540,000000	82,508600
539,000000	81,989900
538,000000	81,423000
537,000000	80,834100
536,000000	80,191800
535,000000	79,534900
534,000000	78,791600
533,000000	78,031300
532,000000	77,237100
531,000000	76,424400
530,000000	75,573300
529,000000	74,684400
528,000000	73,792500
527,000000	72,838300
526,000000	71,870300
525,000000	70,860100
524,000000	69,830900
523,000000	68,733300
522,000000	67,606700
521,000000	66,468000
520,000000	65,300200
519,000000	64,094000
518,000000	62,911900
517,000000	61,693200
516,000000	60,466400
515,000000	59,197900
514,000000	57,952300
513,000000	56,701700
512,000000	55,458300
511,000000	54,273700
510,000000	53,158200
509,000000	52,001600
508,000000	50,886800
507,000000	49,809900
506,000000	48,815900
505,000000	47,920800
504,000000	46,903700
503,000000	46,012400
502,000000	45,132100
501,000000	44,283200
500,000000	43,480800
499,000000	42,713100
498,000000	41,935100
497,000000	41,166800
496,000000	40,470100
495,000000	39,753200
494,000000	39,042000
493,000000	38,317800
492,000000	37,659100
491,000000	37,017000
490,000000	36,349400
489,000000	35,746100
488,000000	35,119200
487,000000	34,571600
486,000000	34,050800
485,000000	33,500500
484,000000	32,972700
483,000000	32,502700
482,000000	32,022500
481,000000	31,564900
480,000000	31,114600
479,000000	30,670900
478,000000	30,279600
477,000000	29,923300
476,000000	29,542000
475,000000	29,250700
474,000000	28,930100
473,000000	28,689400
472,000000	28,462400
471,000000	28,219800
470,000000	28,042800
469,000000	27,886200
468,000000	27,743200
467,000000	27,611200
466,000000	27,487000
465,000000	27,361100
464,000000	27,234400
463,000000	27,135300
462,000000	27,049100
461,000000	26,927200
460,000000	26,832600
459,000000	26,725900
458,000000	26,584400
457,000000	26,491300
456,000000	26,396700
455,000000	26,197900
454,000000	26,052100
453,000000	25,941100
452,000000	25,804600
451,000000	25,599500
450,000000	25,465500
449,000000	25,330500
448,000000	25,162500
447,000000	25,003700
446,000000	24,830400
445,000000	24,670500
444,000000	24,521100
443,000000	24,353500
442,000000	24,201800
441,000000	24,085600
440,000000	23,904100
439,000000	23,734500
438,000000	23,619700
437,000000	23,460900
436,000000	23,323300
435,000000	23,213200
434,000000	23,130000
433,000000	22,981700
432,000000	22,837800
431,000000	22,718800
430,000000	22,568400
429,000000	22,427200
428,000000	22,294900
427,000000	22,158000
426,000000	21,998100
425,000000	21,833600
424,000000	21,618000
423,000000	21,468700
422,000000	21,248800
421,000000	21,050100
420,000000	20,782700
419,000000	20,569500
418,000000	20,334000
417,000000	20,037400
416,000000	19,778800
415,000000	19,489800
414,000000	19,211500
413,000000	18,931400
412,000000	18,578400
411,000000	18,281100
410,000000	17,948900
409,000000	17,616200
408,000000	17,283400
407,000000	16,922800
406,000000	16,627500
405,000000	16,281900
404,000000	15,930400
403,000000	15,603500
402,000000	15,239100
401,000000	14,900500
400,000000	14,564200
399,000000	14,227500
398,000000	13,911100
397,000000	13,607400
396,000000	13,248200
395,000000	12,914000
394,000000	12,588700
393,000000	12,278900
392,000000	11,962000
391,000000	11,632700
390,000000	11,329300
389,000000	11,030600
388,000000	10,754500
387,000000	10,477600
386,000000	10,164700
385,000000	9,911700
384,000000	9,629700
383,000000	9,383500
382,000000	9,173600
381,000000	8,922100
380,000000	8,705500
379,000000	8,513900
378,000000	8,297900
377,000000	8,120900
376,000000	7,896100
375,000000	7,525100
374,000000	7,136700
373,000000	6,991200
372,000000	7,044300
371,000000	7,112400
370,000000	6,946600
369,000000	6,743300
368,000000	6,719700
367,000000	6,719500
366,000000	6,752000
365,000000	6,625200
364,000000	6,464500
363,000000	6,413700
362,000000	6,437900
361,000000	6,343700
360,000000	6,211900
359,000000	6,262100
358,000000	6,208000
357,000000	6,096500
356,000000	6,053400
355,000000	5,926400
354,000000	5,903300
353,000000	6,058900
352,000000	6,029300
351,000000	6,101100
350,000000	6,008700
349,000000	5,765500
348,000000	5,709400
347,000000	5,876900
346,000000	6,021900
345,000000	5,942500
344,000000	5,837400
343,000000	5,816200
342,000000	5,873800
341,000000	5,983500
340,000000	5,989500
339,000000	5,853300
338,000000	5,962600
337,000000	5,974100
336,000000	5,735900
335,000000	5,652000
334,000000	5,753500
333,000000	5,718400
332,000000	5,634700
331,000000	5,778600
330,000000	5,767500
329,000000	5,848200
328,000000	6,074800
327,000000	6,060000
326,000000	5,976200
325,000000	6,409300
324,000000	6,312600
323,000000	6,198400
322,000000	6,435600
321,000000	6,479600
320,000000	6,257300
319,000000	6,104100
318,000000	6,072400
317,000000	6,486700
316,000000	6,012900
315,000000	5,322000
314,000000	5,345300
313,000000	5,362500
312,000000	5,430900
311,000000	5,464400
310,000000	5,425800
309,000000	5,413400
308,000000	5,395600
307,000000	5,386100
306,000000	5,367000
305,000000	5,313500
304,000000	5,340200
303,000000	5,400600
302,000000	5,425500
301,000000	5,436800
300,000000	5,428800
299,000000	5,457100
298,000000	5,469400
297,000000	5,468900
296,000000	5,472700
295,000000	5,502900
294,000000	5,476500
293,000000	5,481900
292,000000	5,522800
291,000000	5,560800
290,000000	5,570800
289,000000	5,521600
288,000000	5,503500
287,000000	5,549500
286,000000	5,574100
285,000000	5,573100
284,000000	5,591200
283,000000	5,625900
282,000000	5,600200
281,000000	5,617400
280,000000	5,622600
279,000000	5,624300
278,000000	5,662800
277,000000	5,695700
276,000000	5,725300
275,000000	5,738700
274,000000	5,761600
273,000000	5,748800
272,000000	5,795200
271,000000	5,810600
270,000000	5,831800
269,000000	5,849400
268,000000	5,835100
267,000000	5,874100
266,000000	5,875700
265,000000	5,921500
264,000000	5,910100
263,000000	5,906600
262,000000	5,962800
261,000000	5,991500
260,000000	5,983900
259,000000	5,995800
258,000000	6,022200
257,000000	6,047200
256,000000	6,081700
255,000000	6,091300
254,000000	6,078600
253,000000	6,063300
252,000000	6,066600
251,000000	6,108800
250,000000	6,113700
