PE UV       SUBTECH     SPECTRUM    ASCII       PEDS        4.00        
   -1
CICIMAUCR0232-1.Sample.ASC
24/06/13
15:52:31.00
24/06/13
15:52:31.00
Vinicio Soto Monge
C. resplendens. Sex M. Dorsal.
250,000000
1
Lambda 1050
1050L1511233
PerkinElmer UV WinLab 6.3.2.0749 / 2.02.05 Lambda 900 UV/VIS/NIR, Aug  7 2015 09:38:08

0
0
3350/servo 860,8/2
0
0
UV/VIS
1
1
1
DoubleDePol,CommonBeamDepol,RBeamAtt,SBeamAtt,60mm sphere, WB InGaAs Detector
0
0
0
0
Program
Program
3350/servo 860,8/2
3350/0,2 860,8/0,2
3350/0,2 860,8/0,2
0
15.00
 
 
 
0
 
860,8
319,2
860,8
Front
100
on
S:100 R:100
0
0
0
0
 
0
 
 
 
0
 
 
0
0
0
0
0
 
 
 
 
0
0


0
0
#HDR
-1
-1
#GR
nm
%R
1.0
0.0
2500,000000
-1,000000
2251
8
92,163900
5,790900
#DATA
2500,000000	8,454700
2499,000000	8,414000
2498,000000	8,532900
2497,000000	8,434100
2496,000000	8,330700
2495,000000	8,412800
2494,000000	8,352100
2493,000000	8,330800
2492,000000	8,308200
2491,000000	8,212200
2490,000000	8,258800
2489,000000	8,233800
2488,000000	8,142400
2487,000000	8,186700
2486,000000	8,254900
2485,000000	8,163100
2484,000000	8,208600
2483,000000	8,200500
2482,000000	8,198800
2481,000000	8,230500
2480,000000	8,164900
2479,000000	8,163700
2478,000000	8,224100
2477,000000	8,230700
2476,000000	8,209800
2475,000000	8,196800
2474,000000	8,261300
2473,000000	8,204300
2472,000000	8,233200
2471,000000	8,254500
2470,000000	8,258700
2469,000000	8,269200
2468,000000	8,270800
2467,000000	8,308800
2466,000000	8,299900
2465,000000	8,313100
2464,000000	8,343400
2463,000000	8,336500
2462,000000	8,331700
2461,000000	8,404700
2460,000000	8,466200
2459,000000	8,487800
2458,000000	8,551900
2457,000000	8,570800
2456,000000	8,637000
2455,000000	8,701800
2454,000000	8,736400
2453,000000	8,824100
2452,000000	8,845000
2451,000000	8,888900
2450,000000	8,969600
2449,000000	9,011500
2448,000000	9,115900
2447,000000	9,189500
2446,000000	9,257700
2445,000000	9,327600
2444,000000	9,413600
2443,000000	9,471300
2442,000000	9,505500
2441,000000	9,586000
2440,000000	9,675400
2439,000000	9,717500
2438,000000	9,821200
2437,000000	9,874100
2436,000000	9,933500
2435,000000	9,977100
2434,000000	10,041400
2433,000000	10,109400
2432,000000	10,186800
2431,000000	10,226400
2430,000000	10,263800
2429,000000	10,317600
2428,000000	10,383500
2427,000000	10,427500
2426,000000	10,472600
2425,000000	10,511600
2424,000000	10,561500
2423,000000	10,609800
2422,000000	10,653600
2421,000000	10,690100
2420,000000	10,726600
2419,000000	10,766300
2418,000000	10,804400
2417,000000	10,825400
2416,000000	10,868900
2415,000000	10,922800
2414,000000	10,936500
2413,000000	10,961400
2412,000000	10,999200
2411,000000	11,024400
2410,000000	11,057600
2409,000000	11,088900
2408,000000	11,112100
2407,000000	11,147200
2406,000000	11,179000
2405,000000	11,203000
2404,000000	11,224900
2403,000000	11,251100
2402,000000	11,282900
2401,000000	11,309800
2400,000000	11,345600
2399,000000	11,381300
2398,000000	11,396900
2397,000000	11,425100
2396,000000	11,450700
2395,000000	11,462900
2394,000000	11,488900
2393,000000	11,510800
2392,000000	11,523800
2391,000000	11,548200
2390,000000	11,565000
2389,000000	11,587200
2388,000000	11,609600
2387,000000	11,619000
2386,000000	11,632700
2385,000000	11,645500
2384,000000	11,652200
2383,000000	11,654300
2382,000000	11,670600
2381,000000	11,670900
2380,000000	11,647700
2379,000000	11,632900
2378,000000	11,632800
2377,000000	11,630200
2376,000000	11,616100
2375,000000	11,604600
2374,000000	11,600800
2373,000000	11,578000
2372,000000	11,537700
2371,000000	11,518800
2370,000000	11,499500
2369,000000	11,467100
2368,000000	11,438900
2367,000000	11,406300
2366,000000	11,384100
2365,000000	11,337700
2364,000000	11,274400
2363,000000	11,219300
2362,000000	11,173700
2361,000000	11,130700
2360,000000	11,075500
2359,000000	11,027600
2358,000000	10,975300
2357,000000	10,929300
2356,000000	10,894300
2355,000000	10,861100
2354,000000	10,823900
2353,000000	10,790500
2352,000000	10,781600
2351,000000	10,767100
2350,000000	10,764500
2349,000000	10,790400
2348,000000	10,804300
2347,000000	10,820700
2346,000000	10,849300
2345,000000	10,867400
2344,000000	10,901400
2343,000000	10,942000
2342,000000	10,991900
2341,000000	11,034400
2340,000000	11,055800
2339,000000	11,082200
2338,000000	11,098600
2337,000000	11,120400
2336,000000	11,143700
2335,000000	11,138800
2334,000000	11,113000
2333,000000	11,103500
2332,000000	11,086300
2331,000000	11,048000
2330,000000	11,021500
2329,000000	10,991500
2328,000000	10,950600
2327,000000	10,913600
2326,000000	10,848000
2325,000000	10,787100
2324,000000	10,733500
2323,000000	10,648400
2322,000000	10,564600
2321,000000	10,485800
2320,000000	10,393800
2319,000000	10,293000
2318,000000	10,192700
2317,000000	10,090200
2316,000000	9,994400
2315,000000	9,872700
2314,000000	9,761600
2313,000000	9,649700
2312,000000	9,544500
2311,000000	9,454800
2310,000000	9,374000
2309,000000	9,300500
2308,000000	9,240900
2307,000000	9,199800
2306,000000	9,173200
2305,000000	9,151400
2304,000000	9,164900
2303,000000	9,208800
2302,000000	9,233600
2301,000000	9,270700
2300,000000	9,337700
2299,000000	9,422700
2298,000000	9,500600
2297,000000	9,591600
2296,000000	9,684200
2295,000000	9,750500
2294,000000	9,834600
2293,000000	9,911400
2292,000000	9,966700
2291,000000	10,036500
2290,000000	10,061800
2289,000000	10,109400
2288,000000	10,132200
2287,000000	10,143800
2286,000000	10,147700
2285,000000	10,141200
2284,000000	10,118900
2283,000000	10,095500
2282,000000	10,059900
2281,000000	10,023100
2280,000000	9,961300
2279,000000	9,927700
2278,000000	9,890100
2277,000000	9,826200
2276,000000	9,797100
2275,000000	9,755800
2274,000000	9,739800
2273,000000	9,697500
2272,000000	9,694800
2271,000000	9,686500
2270,000000	9,707200
2269,000000	9,750000
2268,000000	9,773700
2267,000000	9,824500
2266,000000	9,908400
2265,000000	10,012200
2264,000000	10,136700
2263,000000	10,253700
2262,000000	10,394800
2261,000000	10,594800
2260,000000	10,767800
2259,000000	10,972400
2258,000000	11,182000
2257,000000	11,412100
2256,000000	11,635400
2255,000000	11,852000
2254,000000	12,097700
2253,000000	12,313200
2252,000000	12,544600
2251,000000	12,739600
2250,000000	12,961600
2249,000000	13,161500
2248,000000	13,361400
2247,000000	13,531400
2246,000000	13,704200
2245,000000	13,854100
2244,000000	13,995800
2243,000000	14,141000
2242,000000	14,247600
2241,000000	14,357900
2240,000000	14,453200
2239,000000	14,558600
2238,000000	14,651200
2237,000000	14,754500
2236,000000	14,804700
2235,000000	14,879700
2234,000000	14,939200
2233,000000	14,994900
2232,000000	15,046800
2231,000000	15,091100
2230,000000	15,107200
2229,000000	15,148200
2228,000000	15,164200
2227,000000	15,158200
2226,000000	15,168900
2225,000000	15,199800
2224,000000	15,189000
2223,000000	15,165000
2222,000000	15,149600
2221,000000	15,125800
2220,000000	15,119000
2219,000000	15,088900
2218,000000	15,051600
2217,000000	15,052600
2216,000000	15,011900
2215,000000	14,971100
2214,000000	14,941100
2213,000000	14,878200
2212,000000	14,873100
2211,000000	14,840800
2210,000000	14,832800
2209,000000	14,808100
2208,000000	14,776300
2207,000000	14,753800
2206,000000	14,740300
2205,000000	14,729400
2204,000000	14,693400
2203,000000	14,688400
2202,000000	14,653000
2201,000000	14,628800
2200,000000	14,630800
2199,000000	14,603000
2198,000000	14,585200
2197,000000	14,574300
2196,000000	14,564500
2195,000000	14,565600
2194,000000	14,549300
2193,000000	14,526500
2192,000000	14,499700
2191,000000	14,489100
2190,000000	14,486400
2189,000000	14,465100
2188,000000	14,458900
2187,000000	14,457400
2186,000000	14,433900
2185,000000	14,430600
2184,000000	14,438000
2183,000000	14,395300
2182,000000	14,374200
2181,000000	14,365700
2180,000000	14,336600
2179,000000	14,336600
2178,000000	14,311300
2177,000000	14,297900
2176,000000	14,306400
2175,000000	14,288200
2174,000000	14,289800
2173,000000	14,299800
2172,000000	14,298300
2171,000000	14,285500
2170,000000	14,303000
2169,000000	14,315700
2168,000000	14,328000
2167,000000	14,355800
2166,000000	14,360700
2165,000000	14,377800
2164,000000	14,391200
2163,000000	14,412400
2162,000000	14,443100
2161,000000	14,474300
2160,000000	14,501300
2159,000000	14,535000
2158,000000	14,565200
2157,000000	14,592200
2156,000000	14,627900
2155,000000	14,675200
2154,000000	14,722300
2153,000000	14,756900
2152,000000	14,802800
2151,000000	14,852300
2150,000000	14,892800
2149,000000	14,938500
2148,000000	14,988600
2147,000000	15,017800
2146,000000	15,070100
2145,000000	15,133400
2144,000000	15,175400
2143,000000	15,205000
2142,000000	15,245600
2141,000000	15,283600
2140,000000	15,305400
2139,000000	15,340600
2138,000000	15,374900
2137,000000	15,404300
2136,000000	15,444000
2135,000000	15,463800
2134,000000	15,500200
2133,000000	15,519900
2132,000000	15,532300
2131,000000	15,562300
2130,000000	15,577400
2129,000000	15,578400
2128,000000	15,587600
2127,000000	15,606100
2126,000000	15,609300
2125,000000	15,597100
2124,000000	15,605900
2123,000000	15,612800
2122,000000	15,596000
2121,000000	15,578700
2120,000000	15,570300
2119,000000	15,567000
2118,000000	15,538400
2117,000000	15,532200
2116,000000	15,508500
2115,000000	15,476900
2114,000000	15,458300
2113,000000	15,434200
2112,000000	15,413000
2111,000000	15,403700
2110,000000	15,369600
2109,000000	15,338600
2108,000000	15,310000
2107,000000	15,281600
2106,000000	15,265300
2105,000000	15,233200
2104,000000	15,195200
2103,000000	15,173200
2102,000000	15,144700
2101,000000	15,115000
2100,000000	15,097600
2099,000000	15,064100
2098,000000	15,033100
2097,000000	15,005100
2096,000000	14,995100
2095,000000	14,964500
2094,000000	14,944600
2093,000000	14,925800
2092,000000	14,905200
2091,000000	14,882000
2090,000000	14,854500
2089,000000	14,839700
2088,000000	14,835700
2087,000000	14,819200
2086,000000	14,792500
2085,000000	14,775000
2084,000000	14,746900
2083,000000	14,720300
2082,000000	14,703100
2081,000000	14,665700
2080,000000	14,633400
2079,000000	14,613500
2078,000000	14,572800
2077,000000	14,527600
2076,000000	14,499600
2075,000000	14,474900
2074,000000	14,432900
2073,000000	14,384600
2072,000000	14,343300
2071,000000	14,294200
2070,000000	14,248400
2069,000000	14,212400
2068,000000	14,149400
2067,000000	14,095800
2066,000000	14,060000
2065,000000	14,014300
2064,000000	13,972700
2063,000000	13,933000
2062,000000	13,880700
2061,000000	13,834800
2060,000000	13,798600
2059,000000	13,769000
2058,000000	13,751900
2057,000000	13,731700
2056,000000	13,699800
2055,000000	13,698900
2054,000000	13,700900
2053,000000	13,687800
2052,000000	13,701000
2051,000000	13,724300
2050,000000	13,766400
2049,000000	13,814300
2048,000000	13,858600
2047,000000	13,919400
2046,000000	13,991400
2045,000000	14,061100
2044,000000	14,142700
2043,000000	14,228100
2042,000000	14,305300
2041,000000	14,374100
2040,000000	14,467200
2039,000000	14,548900
2038,000000	14,623700
2037,000000	14,705100
2036,000000	14,775000
2035,000000	14,834600
2034,000000	14,893800
2033,000000	14,965700
2032,000000	15,025400
2031,000000	15,071600
2030,000000	15,116800
2029,000000	15,153800
2028,000000	15,196700
2027,000000	15,238600
2026,000000	15,289100
2025,000000	15,314800
2024,000000	15,340400
2023,000000	15,350100
2022,000000	15,369000
2021,000000	15,389900
2020,000000	15,410800
2019,000000	15,420500
2018,000000	15,438100
2017,000000	15,436100
2016,000000	15,434300
2015,000000	15,432200
2014,000000	15,426600
2013,000000	15,423000
2012,000000	15,405500
2011,000000	15,395700
2010,000000	15,386600
2009,000000	15,364300
2008,000000	15,353000
2007,000000	15,320400
2006,000000	15,279600
2005,000000	15,262100
2004,000000	15,214700
2003,000000	15,188400
2002,000000	15,134500
2001,000000	15,080200
2000,000000	15,057700
1999,000000	14,992100
1998,000000	14,922700
1997,000000	14,852000
1996,000000	14,806200
1995,000000	14,760700
1994,000000	14,703700
1993,000000	14,619100
1992,000000	14,558300
1991,000000	14,483800
1990,000000	14,409200
1989,000000	14,336200
1988,000000	14,250100
1987,000000	14,165000
1986,000000	14,087900
1985,000000	14,028100
1984,000000	13,934200
1983,000000	13,841900
1982,000000	13,760800
1981,000000	13,698100
1980,000000	13,605400
1979,000000	13,510100
1978,000000	13,440600
1977,000000	13,359000
1976,000000	13,277500
1975,000000	13,188500
1974,000000	13,094200
1973,000000	13,032800
1972,000000	12,935200
1971,000000	12,878300
1970,000000	12,786700
1969,000000	12,688100
1968,000000	12,635400
1967,000000	12,564800
1966,000000	12,468700
1965,000000	12,420600
1964,000000	12,339900
1963,000000	12,265800
1962,000000	12,211100
1961,000000	12,133700
1960,000000	12,052300
1959,000000	11,972000
1958,000000	11,898600
1957,000000	11,836500
1956,000000	11,780800
1955,000000	11,722300
1954,000000	11,655600
1953,000000	11,591000
1952,000000	11,534200
1951,000000	11,485300
1950,000000	11,392700
1949,000000	11,364200
1948,000000	11,296700
1947,000000	11,238200
1946,000000	11,189700
1945,000000	11,149900
1944,000000	11,117800
1943,000000	11,080500
1942,000000	11,054500
1941,000000	11,024000
1940,000000	11,011600
1939,000000	10,996700
1938,000000	10,981300
1937,000000	10,983400
1936,000000	10,979800
1935,000000	10,991000
1934,000000	11,000200
1933,000000	11,020100
1932,000000	11,037000
1931,000000	11,073600
1930,000000	11,144000
1929,000000	11,186100
1928,000000	11,231000
1927,000000	11,315700
1926,000000	11,388000
1925,000000	11,477800
1924,000000	11,569000
1923,000000	11,617500
1922,000000	11,733800
1921,000000	11,862500
1920,000000	11,983100
1919,000000	12,147300
1918,000000	12,287300
1917,000000	12,406300
1916,000000	12,554900
1915,000000	12,684000
1914,000000	12,829300
1913,000000	13,028100
1912,000000	13,244100
1911,000000	13,465600
1910,000000	13,640100
1909,000000	13,816300
1908,000000	13,964200
1907,000000	14,178100
1906,000000	14,402700
1905,000000	14,667400
1904,000000	14,970300
1903,000000	15,246800
1902,000000	15,496100
1901,000000	15,732500
1900,000000	16,025800
1899,000000	16,343100
1898,000000	16,673600
1897,000000	16,956300
1896,000000	17,297300
1895,000000	17,581800
1894,000000	17,851600
1893,000000	18,161300
1892,000000	18,496500
1891,000000	18,912000
1890,000000	19,297100
1889,000000	19,692700
1888,000000	20,080000
1887,000000	20,478300
1886,000000	20,889100
1885,000000	21,308100
1884,000000	21,753900
1883,000000	22,273800
1882,000000	22,815300
1881,000000	23,291200
1880,000000	23,771500
1879,000000	24,234800
1878,000000	24,696900
1877,000000	25,164300
1876,000000	25,610300
1875,000000	26,010300
1874,000000	26,429900
1873,000000	26,826500
1872,000000	27,217500
1871,000000	27,574400
1870,000000	27,902300
1869,000000	28,190100
1868,000000	28,470700
1867,000000	28,719900
1866,000000	28,911100
1865,000000	29,062000
1864,000000	29,216700
1863,000000	29,357000
1862,000000	29,469600
1861,000000	29,603000
1860,000000	29,728800
1859,000000	29,838900
1858,000000	29,941100
1857,000000	30,032200
1856,000000	30,087800
1855,000000	30,121800
1854,000000	30,161700
1853,000000	30,195400
1852,000000	30,194400
1851,000000	30,199500
1850,000000	30,219600
1849,000000	30,217800
1848,000000	30,229400
1847,000000	30,244600
1846,000000	30,209500
1845,000000	30,149700
1844,000000	30,124800
1843,000000	30,088900
1842,000000	30,096100
1841,000000	30,101100
1840,000000	30,108300
1839,000000	30,081700
1838,000000	30,034100
1837,000000	29,982600
1836,000000	29,960800
1835,000000	29,939300
1834,000000	29,883500
1833,000000	29,825900
1832,000000	29,763600
1831,000000	29,698300
1830,000000	29,665400
1829,000000	29,615700
1828,000000	29,545700
1827,000000	29,475700
1826,000000	29,420400
1825,000000	29,387700
1824,000000	29,321800
1823,000000	29,273100
1822,000000	29,242300
1821,000000	29,235200
1820,000000	29,243300
1819,000000	29,228700
1818,000000	29,176900
1817,000000	29,132000
1816,000000	29,113500
1815,000000	29,123600
1814,000000	29,112800
1813,000000	29,083900
1812,000000	29,073900
1811,000000	29,050400
1810,000000	29,022500
1809,000000	28,996200
1808,000000	28,970200
1807,000000	28,928600
1806,000000	28,893800
1805,000000	28,859200
1804,000000	28,805100
1803,000000	28,757400
1802,000000	28,716600
1801,000000	28,685300
1800,000000	28,644400
1799,000000	28,603200
1798,000000	28,553400
1797,000000	28,494700
1796,000000	28,447800
1795,000000	28,416000
1794,000000	28,375300
1793,000000	28,322600
1792,000000	28,283800
1791,000000	28,243400
1790,000000	28,181500
1789,000000	28,129700
1788,000000	28,095100
1787,000000	28,048200
1786,000000	27,998300
1785,000000	27,946700
1784,000000	27,878200
1783,000000	27,808200
1782,000000	27,746500
1781,000000	27,692900
1780,000000	27,634000
1779,000000	27,565900
1778,000000	27,502100
1777,000000	27,439800
1776,000000	27,363500
1775,000000	27,277300
1774,000000	27,191900
1773,000000	27,106900
1772,000000	27,010200
1771,000000	26,905400
1770,000000	26,799300
1769,000000	26,699500
1768,000000	26,601200
1767,000000	26,498400
1766,000000	26,420000
1765,000000	26,351600
1764,000000	26,282200
1763,000000	26,239700
1762,000000	26,232100
1761,000000	26,236100
1760,000000	26,255300
1759,000000	26,300300
1758,000000	26,344200
1757,000000	26,406500
1756,000000	26,471000
1755,000000	26,527200
1754,000000	26,568600
1753,000000	26,597500
1752,000000	26,647600
1751,000000	26,646300
1750,000000	26,638600
1749,000000	26,630700
1748,000000	26,587900
1747,000000	26,540000
1746,000000	26,482900
1745,000000	26,400800
1744,000000	26,305600
1743,000000	26,189000
1742,000000	26,041600
1741,000000	25,875200
1740,000000	25,700700
1739,000000	25,518900
1738,000000	25,321100
1737,000000	25,125700
1736,000000	24,958600
1735,000000	24,824200
1734,000000	24,704400
1733,000000	24,632200
1732,000000	24,615600
1731,000000	24,610900
1730,000000	24,635500
1729,000000	24,695700
1728,000000	24,769900
1727,000000	24,856700
1726,000000	24,951300
1725,000000	25,030100
1724,000000	25,086900
1723,000000	25,138300
1722,000000	25,181000
1721,000000	25,246200
1720,000000	25,266600
1719,000000	25,315100
1718,000000	25,375600
1717,000000	25,433100
1716,000000	25,519300
1715,000000	25,593900
1714,000000	25,671800
1713,000000	25,757900
1712,000000	25,837100
1711,000000	25,897400
1710,000000	25,969000
1709,000000	26,011000
1708,000000	26,019000
1707,000000	26,014500
1706,000000	26,000400
1705,000000	25,985400
1704,000000	25,964700
1703,000000	25,919200
1702,000000	25,833200
1701,000000	25,747400
1700,000000	25,652300
1699,000000	25,509500
1698,000000	25,385700
1697,000000	25,270200
1696,000000	25,172200
1695,000000	25,092500
1694,000000	25,062100
1693,000000	25,091300
1692,000000	25,159600
1691,000000	25,256000
1690,000000	25,371500
1689,000000	25,501100
1688,000000	25,604200
1687,000000	25,687100
1686,000000	25,745500
1685,000000	25,804100
1684,000000	25,858500
1683,000000	25,941700
1682,000000	26,125900
1681,000000	26,395200
1680,000000	26,710600
1679,000000	27,109500
1678,000000	27,560100
1677,000000	28,008600
1676,000000	28,434900
1675,000000	28,836500
1674,000000	29,157000
1673,000000	29,501300
1672,000000	29,785500
1671,000000	30,011400
1670,000000	30,199400
1669,000000	30,368300
1668,000000	30,546300
1667,000000	30,662700
1666,000000	30,789400
1665,000000	30,896400
1664,000000	30,988100
1663,000000	31,097600
1662,000000	31,174400
1661,000000	31,248900
1660,000000	31,302500
1659,000000	31,367100
1658,000000	31,397400
1657,000000	31,439700
1656,000000	31,476400
1655,000000	31,504000
1654,000000	31,513700
1653,000000	31,494100
1652,000000	31,490700
1651,000000	31,512500
1650,000000	31,469700
1649,000000	31,450900
1648,000000	31,420800
1647,000000	31,401700
1646,000000	31,369700
1645,000000	31,338700
1644,000000	31,293100
1643,000000	31,251300
1642,000000	31,190400
1641,000000	31,149000
1640,000000	31,095900
1639,000000	31,038100
1638,000000	30,997700
1637,000000	30,943400
1636,000000	30,887100
1635,000000	30,808600
1634,000000	30,757200
1633,000000	30,691100
1632,000000	30,619600
1631,000000	30,573200
1630,000000	30,478900
1629,000000	30,415500
1628,000000	30,352500
1627,000000	30,258000
1626,000000	30,173700
1625,000000	30,101200
1624,000000	30,038900
1623,000000	29,956400
1622,000000	29,880200
1621,000000	29,810600
1620,000000	29,725700
1619,000000	29,660800
1618,000000	29,591300
1617,000000	29,529700
1616,000000	29,462900
1615,000000	29,375200
1614,000000	29,321900
1613,000000	29,255100
1612,000000	29,176800
1611,000000	29,121400
1610,000000	29,068300
1609,000000	29,007100
1608,000000	28,924600
1607,000000	28,872500
1606,000000	28,792100
1605,000000	28,726300
1604,000000	28,641600
1603,000000	28,597100
1602,000000	28,524800
1601,000000	28,473900
1600,000000	28,407100
1599,000000	28,341600
1598,000000	28,264100
1597,000000	28,202200
1596,000000	28,144700
1595,000000	28,089200
1594,000000	28,024600
1593,000000	27,982900
1592,000000	27,930600
1591,000000	27,867800
1590,000000	27,825900
1589,000000	27,778600
1588,000000	27,737300
1587,000000	27,692000
1586,000000	27,645400
1585,000000	27,609700
1584,000000	27,576300
1583,000000	27,528000
1582,000000	27,488000
1581,000000	27,460700
1580,000000	27,420400
1579,000000	27,392000
1578,000000	27,373700
1577,000000	27,355300
1576,000000	27,337300
1575,000000	27,328000
1574,000000	27,307100
1573,000000	27,304000
1572,000000	27,299600
1571,000000	27,303900
1570,000000	27,286700
1569,000000	27,277300
1568,000000	27,291800
1567,000000	27,306700
1566,000000	27,317800
1565,000000	27,317000
1564,000000	27,328700
1563,000000	27,337400
1562,000000	27,342800
1561,000000	27,353700
1560,000000	27,347800
1559,000000	27,334700
1558,000000	27,334400
1557,000000	27,339400
1556,000000	27,335300
1555,000000	27,312600
1554,000000	27,301600
1553,000000	27,288300
1552,000000	27,263200
1551,000000	27,243800
1550,000000	27,216300
1549,000000	27,175200
1548,000000	27,139300
1547,000000	27,121200
1546,000000	27,093200
1545,000000	27,063200
1544,000000	27,029100
1543,000000	27,014100
1542,000000	26,987700
1541,000000	26,971800
1540,000000	26,959700
1539,000000	26,938700
1538,000000	26,906400
1537,000000	26,875600
1536,000000	26,848200
1535,000000	26,839300
1534,000000	26,822800
1533,000000	26,793200
1532,000000	26,765300
1531,000000	26,731200
1530,000000	26,687100
1529,000000	26,656800
1528,000000	26,609500
1527,000000	26,556500
1526,000000	26,530900
1525,000000	26,498500
1524,000000	26,440800
1523,000000	26,397500
1522,000000	26,351800
1521,000000	26,300400
1520,000000	26,257900
1519,000000	26,210000
1518,000000	26,147800
1517,000000	26,085900
1516,000000	26,035600
1515,000000	25,978600
1514,000000	25,926500
1513,000000	25,872100
1512,000000	25,812800
1511,000000	25,760500
1510,000000	25,703800
1509,000000	25,638400
1508,000000	25,573600
1507,000000	25,508900
1506,000000	25,442800
1505,000000	25,386000
1504,000000	25,324500
1503,000000	25,260400
1502,000000	25,207300
1501,000000	25,152300
1500,000000	25,109100
1499,000000	25,056400
1498,000000	25,002700
1497,000000	24,945900
1496,000000	24,908000
1495,000000	24,871700
1494,000000	24,840400
1493,000000	24,805400
1492,000000	24,768000
1491,000000	24,739700
1490,000000	24,705600
1489,000000	24,673500
1488,000000	24,645900
1487,000000	24,616100
1486,000000	24,590500
1485,000000	24,549600
1484,000000	24,518000
1483,000000	24,520000
1482,000000	24,503100
1481,000000	24,484900
1480,000000	24,474400
1479,000000	24,470400
1478,000000	24,453900
1477,000000	24,448300
1476,000000	24,446000
1475,000000	24,454200
1474,000000	24,460800
1473,000000	24,469700
1472,000000	24,497000
1471,000000	24,514700
1470,000000	24,519400
1469,000000	24,526400
1468,000000	24,535900
1467,000000	24,554400
1466,000000	24,575200
1465,000000	24,590700
1464,000000	24,606700
1463,000000	24,646300
1462,000000	24,672200
1461,000000	24,701900
1460,000000	24,742700
1459,000000	24,792600
1458,000000	24,840100
1457,000000	24,897500
1456,000000	24,950400
1455,000000	25,007600
1454,000000	25,073100
1453,000000	25,139200
1452,000000	25,209700
1451,000000	25,284700
1450,000000	25,366100
1449,000000	25,443800
1448,000000	25,501100
1447,000000	25,581600
1446,000000	25,673400
1445,000000	25,771800
1444,000000	25,865200
1443,000000	25,944700
1442,000000	26,021100
1441,000000	26,123600
1440,000000	26,217300
1439,000000	26,313500
1438,000000	26,423600
1437,000000	26,535500
1436,000000	26,620700
1435,000000	26,710700
1434,000000	26,823700
1433,000000	26,948600
1432,000000	27,083500
1431,000000	27,191900
1430,000000	27,314600
1429,000000	27,422700
1428,000000	27,580500
1427,000000	27,732400
1426,000000	27,879400
1425,000000	28,053100
1424,000000	28,250200
1423,000000	28,446300
1422,000000	28,621300
1421,000000	28,794000
1420,000000	29,011300
1419,000000	29,263300
1418,000000	29,499700
1417,000000	29,680300
1416,000000	29,903800
1415,000000	30,157700
1414,000000	30,433400
1413,000000	30,709500
1412,000000	30,946300
1411,000000	31,186000
1410,000000	31,480700
1409,000000	31,837000
1408,000000	32,197800
1407,000000	32,541100
1406,000000	32,907200
1405,000000	33,257000
1404,000000	33,645500
1403,000000	34,051300
1402,000000	34,407600
1401,000000	34,771500
1400,000000	35,206100
1399,000000	35,577400
1398,000000	35,895900
1397,000000	36,135300
1396,000000	36,468400
1395,000000	36,863700
1394,000000	37,176400
1393,000000	37,428200
1392,000000	37,691200
1391,000000	37,986200
1390,000000	38,314000
1389,000000	38,578900
1388,000000	38,955400
1387,000000	39,389000
1386,000000	39,792500
1385,000000	40,206400
1384,000000	40,685900
1383,000000	41,194400
1382,000000	41,701000
1381,000000	42,145200
1380,000000	42,532900
1379,000000	42,763000
1378,000000	42,982500
1377,000000	43,146400
1376,000000	43,340700
1375,000000	43,507200
1374,000000	43,706700
1373,000000	43,944200
1372,000000	44,225500
1371,000000	44,502600
1370,000000	44,831100
1369,000000	45,111100
1368,000000	45,369400
1367,000000	45,628800
1366,000000	45,834300
1365,000000	46,039600
1364,000000	46,235700
1363,000000	46,385700
1362,000000	46,569500
1361,000000	46,723400
1360,000000	46,856300
1359,000000	46,894000
1358,000000	46,948000
1357,000000	47,054300
1356,000000	47,149600
1355,000000	47,352900
1354,000000	47,624900
1353,000000	47,975600
1352,000000	48,279600
1351,000000	48,728400
1350,000000	49,136500
1349,000000	49,501600
1348,000000	49,863000
1347,000000	50,231600
1346,000000	50,578100
1345,000000	50,841100
1344,000000	51,143100
1343,000000	51,455200
1342,000000	51,730400
1341,000000	52,002700
1340,000000	52,285600
1339,000000	52,559600
1338,000000	52,817500
1337,000000	53,092000
1336,000000	53,339900
1335,000000	53,593700
1334,000000	53,836600
1333,000000	54,091300
1332,000000	54,312000
1331,000000	54,551200
1330,000000	54,770500
1329,000000	54,979500
1328,000000	55,181000
1327,000000	55,388500
1326,000000	55,577000
1325,000000	55,748700
1324,000000	55,925700
1323,000000	56,124700
1322,000000	56,270100
1321,000000	56,431800
1320,000000	56,589600
1319,000000	56,733300
1318,000000	56,863300
1317,000000	57,011100
1316,000000	57,155200
1315,000000	57,284700
1314,000000	57,396400
1313,000000	57,511100
1312,000000	57,623500
1311,000000	57,738600
1310,000000	57,850000
1309,000000	57,930800
1308,000000	58,031200
1307,000000	58,102100
1306,000000	58,181400
1305,000000	58,244400
1304,000000	58,307600
1303,000000	58,364600
1302,000000	58,416900
1301,000000	58,458000
1300,000000	58,490000
1299,000000	58,526300
1298,000000	58,543800
1297,000000	58,563900
1296,000000	58,582100
1295,000000	58,595200
1294,000000	58,612100
1293,000000	58,627900
1292,000000	58,636900
1291,000000	58,615800
1290,000000	58,595400
1289,000000	58,600600
1288,000000	58,563800
1287,000000	58,529800
1286,000000	58,498600
1285,000000	58,464100
1284,000000	58,427200
1283,000000	58,378800
1282,000000	58,327200
1281,000000	58,272500
1280,000000	58,218400
1279,000000	58,157400
1278,000000	58,107600
1277,000000	58,052500
1276,000000	58,000500
1275,000000	57,961800
1274,000000	57,915900
1273,000000	57,868300
1272,000000	57,831500
1271,000000	57,788300
1270,000000	57,758200
1269,000000	57,733900
1268,000000	57,693100
1267,000000	57,661000
1266,000000	57,637600
1265,000000	57,585800
1264,000000	57,545400
1263,000000	57,507400
1262,000000	57,470800
1261,000000	57,447600
1260,000000	57,411300
1259,000000	57,376900
1258,000000	57,334000
1257,000000	57,287900
1256,000000	57,252100
1255,000000	57,217200
1254,000000	57,177600
1253,000000	57,129800
1252,000000	57,067000
1251,000000	57,006600
1250,000000	56,950100
1249,000000	56,889900
1248,000000	56,804100
1247,000000	56,726900
1246,000000	56,651000
1245,000000	56,552100
1244,000000	56,456100
1243,000000	56,373200
1242,000000	56,266600
1241,000000	56,138100
1240,000000	56,024100
1239,000000	55,911100
1238,000000	55,802100
1237,000000	55,693600
1236,000000	55,561500
1235,000000	55,422800
1234,000000	55,292200
1233,000000	55,153000
1232,000000	55,008200
1231,000000	54,859800
1230,000000	54,708300
1229,000000	54,564800
1228,000000	54,407700
1227,000000	54,244400
1226,000000	54,085200
1225,000000	53,929000
1224,000000	53,774600
1223,000000	53,620300
1222,000000	53,455000
1221,000000	53,291400
1220,000000	53,131200
1219,000000	52,975800
1218,000000	52,831700
1217,000000	52,681600
1216,000000	52,541900
1215,000000	52,416500
1214,000000	52,287700
1213,000000	52,151900
1212,000000	52,026200
1211,000000	51,926300
1210,000000	51,822900
1209,000000	51,708100
1208,000000	51,587300
1207,000000	51,489600
1206,000000	51,406100
1205,000000	51,325600
1204,000000	51,262500
1203,000000	51,221800
1202,000000	51,180400
1201,000000	51,141500
1200,000000	51,103900
1199,000000	51,046900
1198,000000	50,989400
1197,000000	50,906600
1196,000000	50,796100
1195,000000	50,659800
1194,000000	50,479800
1193,000000	50,247200
1192,000000	49,984400
1191,000000	49,655700
1190,000000	49,303000
1189,000000	48,957800
1188,000000	48,644100
1187,000000	48,408000
1186,000000	48,246200
1185,000000	48,173400
1184,000000	48,207900
1183,000000	48,350600
1182,000000	48,599600
1181,000000	48,946000
1180,000000	49,329500
1179,000000	49,740200
1178,000000	50,158000
1177,000000	50,515400
1176,000000	50,840400
1175,000000	51,152000
1174,000000	51,414600
1173,000000	51,662900
1172,000000	51,918200
1171,000000	52,182100
1170,000000	52,455800
1169,000000	52,739000
1168,000000	53,014300
1167,000000	53,290600
1166,000000	53,602600
1165,000000	53,889100
1164,000000	54,190900
1163,000000	54,485300
1162,000000	54,810400
1161,000000	55,140200
1160,000000	55,439400
1159,000000	55,740900
1158,000000	56,030900
1157,000000	56,322400
1156,000000	56,596700
1155,000000	56,833900
1154,000000	57,047700
1153,000000	57,224000
1152,000000	57,366500
1151,000000	57,465900
1150,000000	57,561000
1149,000000	57,636900
1148,000000	57,695600
1147,000000	57,766200
1146,000000	57,858200
1145,000000	57,996300
1144,000000	58,196300
1143,000000	58,397800
1142,000000	58,684400
1141,000000	58,989500
1140,000000	59,301600
1139,000000	59,631900
1138,000000	59,968900
1137,000000	60,332900
1136,000000	60,720700
1135,000000	61,105500
1134,000000	61,513300
1133,000000	61,891000
1132,000000	62,199900
1131,000000	62,536500
1130,000000	62,825300
1129,000000	63,111700
1128,000000	63,356100
1127,000000	63,559100
1126,000000	63,724200
1125,000000	63,861800
1124,000000	63,958200
1123,000000	64,079600
1122,000000	64,163000
1121,000000	64,210700
1120,000000	64,278500
1119,000000	64,311300
1118,000000	64,350800
1117,000000	64,390600
1116,000000	64,408900
1115,000000	64,430400
1114,000000	64,404300
1113,000000	64,429400
1112,000000	64,417700
1111,000000	64,410200
1110,000000	64,428100
1109,000000	64,423500
1108,000000	64,410100
1107,000000	64,408900
1106,000000	64,401100
1105,000000	64,389700
1104,000000	64,390800
1103,000000	64,361400
1102,000000	64,352000
1101,000000	64,346000
1100,000000	64,334100
1099,000000	64,309500
1098,000000	64,313400
1097,000000	64,289300
1096,000000	64,242700
1095,000000	64,227300
1094,000000	64,209500
1093,000000	64,197000
1092,000000	64,159200
1091,000000	64,121300
1090,000000	64,085100
1089,000000	64,054400
1088,000000	64,019600
1087,000000	63,966600
1086,000000	63,960100
1085,000000	63,891500
1084,000000	63,872000
1083,000000	63,805800
1082,000000	63,786000
1081,000000	63,749700
1080,000000	63,708600
1079,000000	63,654800
1078,000000	63,617000
1077,000000	63,604000
1076,000000	63,539400
1075,000000	63,520100
1074,000000	63,486200
1073,000000	63,445100
1072,000000	63,413900
1071,000000	63,375100
1070,000000	63,353600
1069,000000	63,319100
1068,000000	63,268100
1067,000000	63,238600
1066,000000	63,223800
1065,000000	63,187400
1064,000000	63,149900
1063,000000	63,125400
1062,000000	63,081900
1061,000000	63,056100
1060,000000	63,018000
1059,000000	62,998500
1058,000000	62,961700
1057,000000	62,928700
1056,000000	62,888400
1055,000000	62,853400
1054,000000	62,835700
1053,000000	62,793100
1052,000000	62,736200
1051,000000	62,724600
1050,000000	62,702600
1049,000000	62,674200
1048,000000	62,668800
1047,000000	62,647700
1046,000000	62,641000
1045,000000	62,627800
1044,000000	62,595500
1043,000000	62,595600
1042,000000	62,580700
1041,000000	62,569700
1040,000000	62,572000
1039,000000	62,571200
1038,000000	62,543600
1037,000000	62,528800
1036,000000	62,518600
1035,000000	62,508000
1034,000000	62,500100
1033,000000	62,469000
1032,000000	62,457400
1031,000000	62,437800
1030,000000	62,418000
1029,000000	62,389200
1028,000000	62,389100
1027,000000	62,379300
1026,000000	62,360500
1025,000000	62,358600
1024,000000	62,331000
1023,000000	62,326800
1022,000000	62,305000
1021,000000	62,300800
1020,000000	62,296500
1019,000000	62,298800
1018,000000	62,289100
1017,000000	62,297700
1016,000000	62,307700
1015,000000	62,308700
1014,000000	62,317400
1013,000000	62,344100
1012,000000	62,370700
1011,000000	62,388200
1010,000000	62,419800
1009,000000	62,470000
1008,000000	62,508700
1007,000000	62,557300
1006,000000	62,615400
1005,000000	62,663500
1004,000000	62,718200
1003,000000	62,793700
1002,000000	62,860200
1001,000000	62,917200
1000,000000	62,979800
999,000000	63,067800
998,000000	63,142000
997,000000	63,220300
996,000000	63,302900
995,000000	63,386700
994,000000	63,463700
993,000000	63,539800
992,000000	63,621300
991,000000	63,703300
990,000000	63,795400
989,000000	63,887000
988,000000	63,978200
987,000000	64,068400
986,000000	64,183100
985,000000	64,295500
984,000000	64,407200
983,000000	64,530300
982,000000	64,661500
981,000000	64,778100
980,000000	64,910900
979,000000	65,048200
978,000000	65,183200
977,000000	65,301800
976,000000	65,443700
975,000000	65,591900
974,000000	65,722900
973,000000	65,836900
972,000000	65,967900
971,000000	66,099300
970,000000	66,219900
969,000000	66,348000
968,000000	66,455900
967,000000	66,565300
966,000000	66,654200
965,000000	66,781600
964,000000	66,885300
963,000000	66,987600
962,000000	67,113400
961,000000	67,225700
960,000000	67,344400
959,000000	67,446300
958,000000	67,560000
957,000000	67,674200
956,000000	67,768500
955,000000	67,883100
954,000000	67,980900
953,000000	68,067500
952,000000	68,178200
951,000000	68,265400
950,000000	68,324800
949,000000	68,417000
948,000000	68,495900
947,000000	68,562000
946,000000	68,659200
945,000000	68,736400
944,000000	68,785700
943,000000	68,863600
942,000000	68,965200
941,000000	69,045400
940,000000	69,108200
939,000000	69,178000
938,000000	69,269000
937,000000	69,358300
936,000000	69,442700
935,000000	69,533100
934,000000	69,617000
933,000000	69,717000
932,000000	69,802500
931,000000	69,887600
930,000000	69,963800
929,000000	70,044900
928,000000	70,120500
927,000000	70,189200
926,000000	70,273100
925,000000	70,353700
924,000000	70,416600
923,000000	70,484000
922,000000	70,545500
921,000000	70,601400
920,000000	70,653000
919,000000	70,712400
918,000000	70,761600
917,000000	70,828300
916,000000	70,886100
915,000000	70,918600
914,000000	70,942800
913,000000	70,993800
912,000000	71,058100
911,000000	71,099500
910,000000	71,127800
909,000000	71,164200
908,000000	71,201400
907,000000	71,244000
906,000000	71,303900
905,000000	71,368800
904,000000	71,415900
903,000000	71,486600
902,000000	71,549900
901,000000	71,622800
900,000000	71,705000
899,000000	71,797400
898,000000	71,899300
897,000000	71,993800
896,000000	72,105400
895,000000	72,217900
894,000000	72,330300
893,000000	72,460800
892,000000	72,591400
891,000000	72,721100
890,000000	72,850900
889,000000	72,977500
888,000000	73,128600
887,000000	73,277600
886,000000	73,438400
885,000000	73,574000
884,000000	73,706000
883,000000	73,874200
882,000000	74,015200
881,000000	74,142600
880,000000	74,291800
879,000000	74,424400
878,000000	74,555500
877,000000	74,664200
876,000000	74,772100
875,000000	74,844600
874,000000	74,876000
873,000000	74,886900
872,000000	74,857000
871,000000	74,842400
870,000000	74,816500
869,000000	74,887900
868,000000	74,998600
867,000000	75,116700
866,000000	75,264700
865,000000	75,390100
864,000000	75,492200
863,000000	75,615400
862,000000	75,748300
861,000000	75,847200
860,000000	75,969500
859,000000	76,089200
858,000000	76,252000
857,000000	77,308600
856,000000	76,677000
855,000000	77,111000
854,000000	77,618400
853,000000	77,672200
852,000000	77,540300
851,000000	77,169900
850,000000	77,446100
849,000000	77,272800
848,000000	77,354500
847,000000	78,226400
846,000000	77,990800
845,000000	78,679900
844,000000	78,628100
843,000000	78,726600
842,000000	79,097400
841,000000	79,599600
840,000000	79,709500
839,000000	79,755500
838,000000	80,114600
837,000000	80,518600
836,000000	80,769400
835,000000	81,190500
834,000000	81,488800
833,000000	81,791900
832,000000	81,796700
831,000000	82,089800
830,000000	82,802200
829,000000	82,980600
828,000000	83,256600
827,000000	83,600600
826,000000	83,842100
825,000000	83,940200
824,000000	84,106700
823,000000	84,562600
822,000000	85,113400
821,000000	85,315200
820,000000	85,535300
819,000000	86,084800
818,000000	86,201000
817,000000	86,548000
816,000000	86,945000
815,000000	87,332000
814,000000	87,459700
813,000000	87,855900
812,000000	88,050100
811,000000	88,249900
810,000000	88,508900
809,000000	88,421000
808,000000	88,447400
807,000000	88,886800
806,000000	88,856000
805,000000	88,735200
804,000000	89,019000
803,000000	88,893900
802,000000	89,057900
801,000000	89,183000
800,000000	89,024600
799,000000	89,301900
798,000000	89,275700
797,000000	89,077500
796,000000	89,463400
795,000000	89,304600
794,000000	89,445200
793,000000	89,489900
792,000000	89,527600
791,000000	89,614500
790,000000	89,705800
789,000000	89,765900
788,000000	89,964300
787,000000	90,130600
786,000000	90,410700
785,000000	90,309800
784,000000	90,621700
783,000000	90,745700
782,000000	90,992900
781,000000	91,070500
780,000000	91,432000
779,000000	91,627100
778,000000	91,566100
777,000000	91,956200
776,000000	91,885900
775,000000	92,112100
774,000000	92,047800
773,000000	92,113900
772,000000	92,039100
771,000000	91,902400
770,000000	92,163900
769,000000	92,138700
768,000000	92,030100
767,000000	91,951100
766,000000	91,962300
765,000000	91,993300
764,000000	91,881100
763,000000	91,962200
762,000000	91,905600
761,000000	91,851500
760,000000	91,768900
759,000000	91,641200
758,000000	91,606900
757,000000	91,514500
756,000000	91,463200
755,000000	91,351600
754,000000	91,292000
753,000000	91,160700
752,000000	91,090900
751,000000	90,945400
750,000000	90,976600
749,000000	90,725600
748,000000	90,666200
747,000000	90,522800
746,000000	90,373500
745,000000	90,268500
744,000000	90,126100
743,000000	89,984100
742,000000	89,826300
741,000000	89,584100
740,000000	89,198700
739,000000	88,963000
738,000000	88,617500
737,000000	88,197300
736,000000	87,868600
735,000000	87,386200
734,000000	86,976000
733,000000	86,529300
732,000000	86,135800
731,000000	85,623700
730,000000	85,202700
729,000000	84,831900
728,000000	84,360300
727,000000	83,932400
726,000000	83,512900
725,000000	83,128400
724,000000	82,780200
723,000000	82,381700
722,000000	82,121600
721,000000	81,808500
720,000000	81,505300
719,000000	81,153000
718,000000	80,834800
717,000000	80,625300
716,000000	80,373500
715,000000	80,190400
714,000000	79,930400
713,000000	79,794700
712,000000	79,712100
711,000000	79,593700
710,000000	79,564800
709,000000	79,544100
708,000000	79,609600
707,000000	79,664300
706,000000	79,742100
705,000000	79,861700
704,000000	79,950600
703,000000	79,995900
702,000000	80,043000
701,000000	80,108800
700,000000	80,126300
699,000000	80,228900
698,000000	80,274100
697,000000	80,273900
696,000000	80,319800
695,000000	80,351400
694,000000	80,417900
693,000000	80,462800
692,000000	80,521900
691,000000	80,553900
690,000000	80,651300
689,000000	80,778900
688,000000	80,857300
687,000000	80,877800
686,000000	80,820000
685,000000	80,786400
684,000000	80,638500
683,000000	80,489900
682,000000	80,311200
681,000000	80,032500
680,000000	79,726600
679,000000	79,438900
678,000000	79,101400
677,000000	78,712700
676,000000	78,251500
675,000000	77,818700
674,000000	77,332300
673,000000	76,758500
672,000000	76,157200
671,000000	75,551900
670,000000	74,825300
669,000000	74,014300
668,000000	73,190700
667,000000	72,299200
666,000000	71,325300
665,000000	70,313300
664,000000	69,203500
663,000000	68,040200
662,000000	66,872900
661,000000	65,695500
660,000000	64,512300
659,000000	63,350800
658,000000	62,204900
657,000000	61,170800
656,000000	60,217700
655,000000	59,306000
654,000000	58,496900
653,000000	57,757700
652,000000	57,151500
651,000000	56,695200
650,000000	56,365600
649,000000	56,200400
648,000000	56,173800
647,000000	56,304600
646,000000	56,627600
645,000000	57,051900
644,000000	57,605200
643,000000	58,305500
642,000000	59,105000
641,000000	60,001600
640,000000	61,007900
639,000000	62,084900
638,000000	63,180000
637,000000	64,354000
636,000000	65,538300
635,000000	66,716300
634,000000	67,871900
633,000000	68,982400
632,000000	70,129000
631,000000	71,189900
630,000000	72,141600
629,000000	73,064100
628,000000	73,925600
627,000000	74,721600
626,000000	75,484000
625,000000	76,223200
624,000000	76,923300
623,000000	77,591700
622,000000	78,281100
621,000000	78,998100
620,000000	79,735800
619,000000	80,432400
618,000000	81,134000
617,000000	81,790600
616,000000	82,413700
615,000000	82,984400
614,000000	83,546200
613,000000	84,039300
612,000000	84,452100
611,000000	84,874700
610,000000	85,248600
609,000000	85,591500
608,000000	85,904600
607,000000	86,173200
606,000000	86,467100
605,000000	86,716800
604,000000	86,952900
603,000000	87,132100
602,000000	87,341500
601,000000	87,564600
600,000000	87,754700
599,000000	87,894800
598,000000	88,001000
597,000000	88,067600
596,000000	88,141000
595,000000	88,216900
594,000000	88,225300
593,000000	88,245900
592,000000	88,229500
591,000000	88,181300
590,000000	88,129600
589,000000	88,094200
588,000000	88,047400
587,000000	88,008500
586,000000	87,948300
585,000000	87,913000
584,000000	87,786600
583,000000	87,688000
582,000000	87,581800
581,000000	87,497300
580,000000	87,364200
579,000000	87,187500
578,000000	87,021700
577,000000	86,821800
576,000000	86,624000
575,000000	86,427800
574,000000	86,180100
573,000000	85,905000
572,000000	85,632400
571,000000	85,319000
570,000000	85,029500
569,000000	84,794300
568,000000	84,467600
567,000000	84,238000
566,000000	83,958200
565,000000	83,611300
564,000000	83,295600
563,000000	82,989900
562,000000	82,648400
561,000000	82,284500
560,000000	81,904800
559,000000	81,437600
558,000000	81,039800
557,000000	80,522700
556,000000	80,011200
555,000000	79,486400
554,000000	78,886500
553,000000	78,332400
552,000000	77,761200
551,000000	77,152500
550,000000	76,559200
549,000000	75,942100
548,000000	75,319100
547,000000	74,720700
546,000000	74,051200
545,000000	73,303500
544,000000	72,573700
543,000000	71,735500
542,000000	70,869200
541,000000	69,961000
540,000000	68,953200
539,000000	67,957500
538,000000	66,901500
537,000000	65,760400
536,000000	64,576300
535,000000	63,342200
534,000000	61,994200
533,000000	60,649600
532,000000	59,238300
531,000000	57,748700
530,000000	56,307300
529,000000	54,802600
528,000000	53,294300
527,000000	51,815300
526,000000	50,395800
525,000000	49,018300
524,000000	47,666400
523,000000	46,380300
522,000000	45,197500
521,000000	44,109100
520,000000	43,166700
519,000000	42,239900
518,000000	41,502900
517,000000	40,860700
516,000000	40,323100
515,000000	39,862700
514,000000	39,472800
513,000000	39,172600
512,000000	38,904900
511,000000	38,720600
510,000000	38,545900
509,000000	38,373300
508,000000	38,234000
507,000000	38,081200
506,000000	37,943100
505,000000	37,732800
504,000000	37,529300
503,000000	37,257100
502,000000	37,004400
501,000000	36,694600
500,000000	36,378400
499,000000	36,025200
498,000000	35,660000
497,000000	35,206300
496,000000	34,781200
495,000000	34,301700
494,000000	33,822100
493,000000	33,368700
492,000000	32,904800
491,000000	32,463400
490,000000	32,068400
489,000000	31,658000
488,000000	31,297300
487,000000	30,988700
486,000000	30,743200
485,000000	30,518400
484,000000	30,288900
483,000000	30,099700
482,000000	29,968300
481,000000	29,852500
480,000000	29,764800
479,000000	29,701300
478,000000	29,681900
477,000000	29,674900
476,000000	29,679200
475,000000	29,704800
474,000000	29,751200
473,000000	29,810600
472,000000	29,852800
471,000000	29,925800
470,000000	29,970600
469,000000	30,008600
468,000000	30,043800
467,000000	30,077400
466,000000	30,098100
465,000000	30,141800
464,000000	30,153500
463,000000	30,151000
462,000000	30,115200
461,000000	30,090500
460,000000	30,018700
459,000000	29,945100
458,000000	29,867100
457,000000	29,747300
456,000000	29,704100
455,000000	29,509100
454,000000	29,421400
453,000000	29,251200
452,000000	29,116000
451,000000	28,913500
450,000000	28,739900
449,000000	28,553200
448,000000	28,350200
447,000000	28,123500
446,000000	27,861800
445,000000	27,595000
444,000000	27,353000
443,000000	27,037200
442,000000	26,734300
441,000000	26,415100
440,000000	26,054900
439,000000	25,754500
438,000000	25,378100
437,000000	25,009600
436,000000	24,633100
435,000000	24,195600
434,000000	23,792400
433,000000	23,334500
432,000000	22,870600
431,000000	22,399400
430,000000	21,928400
429,000000	21,410800
428,000000	20,869500
427,000000	20,344200
426,000000	19,814500
425,000000	19,289100
424,000000	18,713000
423,000000	18,146700
422,000000	17,600800
421,000000	17,046000
420,000000	16,482500
419,000000	15,926700
418,000000	15,368100
417,000000	14,835500
416,000000	14,334400
415,000000	13,880900
414,000000	13,364300
413,000000	12,930800
412,000000	12,491300
411,000000	12,056900
410,000000	11,682800
409,000000	11,319800
408,000000	10,975900
407,000000	10,654600
406,000000	10,346600
405,000000	10,067700
404,000000	9,791100
403,000000	9,555500
402,000000	9,335000
401,000000	9,120000
400,000000	8,928000
399,000000	8,718200
398,000000	8,565400
397,000000	8,414700
396,000000	8,276700
395,000000	8,159400
394,000000	8,020500
393,000000	7,909200
392,000000	7,820600
391,000000	7,712600
390,000000	7,612000
389,000000	7,519000
388,000000	7,423200
387,000000	7,351200
386,000000	7,277000
385,000000	7,213300
384,000000	7,124700
383,000000	7,051900
382,000000	7,012000
381,000000	6,974100
380,000000	6,917800
379,000000	6,843800
378,000000	6,784900
377,000000	6,733600
376,000000	6,759200
375,000000	6,607600
374,000000	6,214600
373,000000	6,402400
372,000000	6,499700
371,000000	6,295300
370,000000	6,389000
369,000000	6,414400
368,000000	6,435700
367,000000	6,446300
366,000000	6,320700
365,000000	6,366200
364,000000	6,234200
363,000000	6,259900
362,000000	6,284400
361,000000	6,252800
360,000000	6,201400
359,000000	6,218700
358,000000	6,320600
357,000000	6,234000
356,000000	6,168200
355,000000	5,991600
354,000000	5,959800
353,000000	6,058400
352,000000	6,084800
351,000000	6,124300
350,000000	6,061300
349,000000	6,088100
348,000000	6,090900
347,000000	5,910200
346,000000	5,935600
345,000000	6,002600
344,000000	5,871400
343,000000	5,892000
342,000000	5,959300
341,000000	6,170900
340,000000	6,245900
339,000000	6,078800
338,000000	6,113400
337,000000	6,106400
336,000000	5,980400
335,000000	5,938000
334,000000	5,929600
333,000000	5,887600
332,000000	6,034800
331,000000	6,131600
330,000000	5,910500
329,000000	6,162500
328,000000	6,251300
327,000000	6,028100
326,000000	6,571000
325,000000	6,815300
324,000000	6,299000
323,000000	6,229300
322,000000	6,228300
321,000000	6,282100
320,000000	6,880300
319,000000	7,206800
318,000000	6,782700
317,000000	6,827000
316,000000	6,357400
315,000000	5,803700
314,000000	5,795500
313,000000	5,790900
312,000000	5,843300
311,000000	5,843400
310,000000	5,828000
309,000000	5,834800
308,000000	5,866900
307,000000	5,856100
306,000000	5,856100
305,000000	5,855800
304,000000	5,869400
303,000000	5,856600
302,000000	5,866900
301,000000	5,841100
300,000000	5,815500
299,000000	5,826000
298,000000	5,826900
297,000000	5,867500
296,000000	5,883800
295,000000	5,879400
294,000000	5,855300
293,000000	5,877000
292,000000	5,894400
291,000000	5,871300
290,000000	5,863000
289,000000	5,901100
288,000000	5,874700
287,000000	5,881200
286,000000	5,909500
285,000000	5,917000
284,000000	5,907300
283,000000	5,914400
282,000000	5,914100
281,000000	5,924800
280,000000	5,904800
279,000000	5,947700
278,000000	5,939700
277,000000	5,920400
276,000000	5,866400
275,000000	5,893000
274,000000	5,904100
273,000000	5,908800
272,000000	5,984700
271,000000	5,985500
270,000000	6,005500
269,000000	6,000300
268,000000	6,008600
267,000000	6,049000
266,000000	6,051000
265,000000	6,085700
264,000000	6,111300
263,000000	6,154100
262,000000	6,119900
261,000000	6,144900
260,000000	6,158500
259,000000	6,242100
258,000000	6,231600
257,000000	6,215500
256,000000	6,209800
255,000000	6,256200
254,000000	6,212200
253,000000	6,242500
252,000000	6,273400
251,000000	6,311000
250,000000	6,318300
