PE UV       SUBTECH     SPECTRUM    ASCII       PEDS        4.00        
   -1
CICIMAUCR0209-1.ASC
24/06/06
15:18:11.00
24/06/06
15:18:11.00
Vinicio Soto Monge
C. cupreomarginata. Sex F. Dorsal
250,000000
1
Lambda 1050
1050L1511233
PerkinElmer UV WinLab 6.3.2.0749 / 2.02.05 Lambda 900 UV/VIS/NIR, Aug  7 2015 09:38:08

0
0
3350/servo 860,8/2
0
0
UV/VIS
1
1
1
DoubleDePol,CommonBeamDepol,RBeamAtt,SBeamAtt,60mm sphere, WB InGaAs Detector
0
0
0
0
Program
Program
3350/servo 860,8/2
3350/0,2 860,8/0,2
3350/0,2 860,8/0,2
0
15.00
 
 
 
0
 
860,8
319,2
860,8
Front
100
on
S:100 R:100
0
0
0
0
 
0
 
 
 
0
 
 
0
0
0
0
0
 
 
 
 
0
0


0
0
#HDR
-1
-1
#GR
nm
%R
1.0
0.0
2500,000000
-1,000000
2251
8
73,309700
5,091300
#DATA
2500,000000	9,672600
2499,000000	9,573200
2498,000000	9,730400
2497,000000	9,520700
2496,000000	9,390800
2495,000000	9,508300
2494,000000	9,507300
2493,000000	9,520000
2492,000000	9,412400
2491,000000	9,456100
2490,000000	9,346800
2489,000000	9,427800
2488,000000	9,373500
2487,000000	9,396000
2486,000000	9,317000
2485,000000	9,362000
2484,000000	9,430700
2483,000000	9,321400
2482,000000	9,344400
2481,000000	9,363100
2480,000000	9,303500
2479,000000	9,383100
2478,000000	9,374100
2477,000000	9,370900
2476,000000	9,360900
2475,000000	9,311700
2474,000000	9,370700
2473,000000	9,381500
2472,000000	9,405700
2471,000000	9,430400
2470,000000	9,451400
2469,000000	9,420300
2468,000000	9,491700
2467,000000	9,488100
2466,000000	9,495100
2465,000000	9,541200
2464,000000	9,555700
2463,000000	9,574000
2462,000000	9,626700
2461,000000	9,680500
2460,000000	9,711800
2459,000000	9,770700
2458,000000	9,822800
2457,000000	9,879700
2456,000000	9,930400
2455,000000	9,996900
2454,000000	10,080200
2453,000000	10,140400
2452,000000	10,230400
2451,000000	10,313200
2450,000000	10,375200
2449,000000	10,455100
2448,000000	10,535900
2447,000000	10,612100
2446,000000	10,701300
2445,000000	10,782100
2444,000000	10,866100
2443,000000	10,932000
2442,000000	11,019500
2441,000000	11,115000
2440,000000	11,178700
2439,000000	11,267200
2438,000000	11,344500
2437,000000	11,427100
2436,000000	11,513000
2435,000000	11,591900
2434,000000	11,654800
2433,000000	11,721900
2432,000000	11,807800
2431,000000	11,854300
2430,000000	11,913200
2429,000000	11,984500
2428,000000	12,053900
2427,000000	12,111600
2426,000000	12,173300
2425,000000	12,230000
2424,000000	12,272000
2423,000000	12,323200
2422,000000	12,377000
2421,000000	12,421900
2420,000000	12,500000
2419,000000	12,546600
2418,000000	12,583100
2417,000000	12,614700
2416,000000	12,649900
2415,000000	12,705800
2414,000000	12,745800
2413,000000	12,781800
2412,000000	12,819800
2411,000000	12,853500
2410,000000	12,880400
2409,000000	12,927000
2408,000000	12,960600
2407,000000	12,988800
2406,000000	13,022900
2405,000000	13,058000
2404,000000	13,098900
2403,000000	13,103700
2402,000000	13,133200
2401,000000	13,174200
2400,000000	13,202800
2399,000000	13,222600
2398,000000	13,211700
2397,000000	13,218800
2396,000000	13,251700
2395,000000	13,274700
2394,000000	13,308600
2393,000000	13,349000
2392,000000	13,376500
2391,000000	13,380400
2390,000000	13,390400
2389,000000	13,390900
2388,000000	13,399200
2387,000000	13,408200
2386,000000	13,414500
2385,000000	13,431700
2384,000000	13,436800
2383,000000	13,435100
2382,000000	13,425300
2381,000000	13,410600
2380,000000	13,407000
2379,000000	13,401200
2378,000000	13,389000
2377,000000	13,365800
2376,000000	13,336100
2375,000000	13,329500
2374,000000	13,311000
2373,000000	13,282600
2372,000000	13,270700
2371,000000	13,247100
2370,000000	13,214500
2369,000000	13,178800
2368,000000	13,141300
2367,000000	13,103800
2366,000000	13,064300
2365,000000	13,025500
2364,000000	12,976100
2363,000000	12,930400
2362,000000	12,881200
2361,000000	12,816100
2360,000000	12,758500
2359,000000	12,720000
2358,000000	12,676700
2357,000000	12,613300
2356,000000	12,578900
2355,000000	12,549000
2354,000000	12,499200
2353,000000	12,456600
2352,000000	12,442000
2351,000000	12,443800
2350,000000	12,436300
2349,000000	12,431000
2348,000000	12,417800
2347,000000	12,420800
2346,000000	12,461400
2345,000000	12,495500
2344,000000	12,503000
2343,000000	12,528300
2342,000000	12,554400
2341,000000	12,570000
2340,000000	12,604400
2339,000000	12,618200
2338,000000	12,631300
2337,000000	12,628900
2336,000000	12,635400
2335,000000	12,646500
2334,000000	12,639000
2333,000000	12,620000
2332,000000	12,607600
2331,000000	12,586200
2330,000000	12,541700
2329,000000	12,500600
2328,000000	12,456000
2327,000000	12,406800
2326,000000	12,346500
2325,000000	12,289100
2324,000000	12,229300
2323,000000	12,171100
2322,000000	12,096800
2321,000000	11,996000
2320,000000	11,886600
2319,000000	11,796500
2318,000000	11,708800
2317,000000	11,576700
2316,000000	11,478100
2315,000000	11,379300
2314,000000	11,244500
2313,000000	11,126600
2312,000000	11,035500
2311,000000	10,937800
2310,000000	10,837500
2309,000000	10,749700
2308,000000	10,677800
2307,000000	10,618000
2306,000000	10,579400
2305,000000	10,551300
2304,000000	10,547100
2303,000000	10,553500
2302,000000	10,575700
2301,000000	10,635900
2300,000000	10,681800
2299,000000	10,745500
2298,000000	10,811100
2297,000000	10,881900
2296,000000	10,967200
2295,000000	11,065200
2294,000000	11,117700
2293,000000	11,172000
2292,000000	11,254700
2291,000000	11,322000
2290,000000	11,358900
2289,000000	11,399300
2288,000000	11,424300
2287,000000	11,445800
2286,000000	11,455000
2285,000000	11,438800
2284,000000	11,434600
2283,000000	11,422600
2282,000000	11,399700
2281,000000	11,348800
2280,000000	11,314100
2279,000000	11,285700
2278,000000	11,232200
2277,000000	11,194100
2276,000000	11,142700
2275,000000	11,114400
2274,000000	11,091500
2273,000000	11,067100
2272,000000	11,046100
2271,000000	11,048800
2270,000000	11,050700
2269,000000	11,060400
2268,000000	11,110700
2267,000000	11,167100
2266,000000	11,234000
2265,000000	11,325300
2264,000000	11,444800
2263,000000	11,569500
2262,000000	11,734800
2261,000000	11,898900
2260,000000	12,092100
2259,000000	12,306900
2258,000000	12,509300
2257,000000	12,748200
2256,000000	12,996000
2255,000000	13,203800
2254,000000	13,448100
2253,000000	13,691900
2252,000000	13,924100
2251,000000	14,154500
2250,000000	14,365100
2249,000000	14,566100
2248,000000	14,788800
2247,000000	14,951700
2246,000000	15,125900
2245,000000	15,280000
2244,000000	15,451300
2243,000000	15,568300
2242,000000	15,684300
2241,000000	15,809700
2240,000000	15,909000
2239,000000	16,026800
2238,000000	16,110800
2237,000000	16,194100
2236,000000	16,252800
2235,000000	16,333000
2234,000000	16,375200
2233,000000	16,431300
2232,000000	16,462200
2231,000000	16,487100
2230,000000	16,502200
2229,000000	16,547700
2228,000000	16,546300
2227,000000	16,551900
2226,000000	16,551300
2225,000000	16,539900
2224,000000	16,511800
2223,000000	16,479100
2222,000000	16,471700
2221,000000	16,446500
2220,000000	16,391700
2219,000000	16,363500
2218,000000	16,332500
2217,000000	16,302300
2216,000000	16,252600
2215,000000	16,179000
2214,000000	16,147200
2213,000000	16,100500
2212,000000	16,066900
2211,000000	16,025600
2210,000000	15,990000
2209,000000	15,958300
2208,000000	15,921300
2207,000000	15,888700
2206,000000	15,878300
2205,000000	15,840200
2204,000000	15,840000
2203,000000	15,809800
2202,000000	15,759400
2201,000000	15,725000
2200,000000	15,721600
2199,000000	15,715100
2198,000000	15,679500
2197,000000	15,683300
2196,000000	15,657900
2195,000000	15,635100
2194,000000	15,613500
2193,000000	15,604300
2192,000000	15,569400
2191,000000	15,555900
2190,000000	15,530000
2189,000000	15,545100
2188,000000	15,526100
2187,000000	15,515700
2186,000000	15,499800
2185,000000	15,481100
2184,000000	15,473800
2183,000000	15,459600
2182,000000	15,432100
2181,000000	15,434700
2180,000000	15,401100
2179,000000	15,378600
2178,000000	15,391000
2177,000000	15,401100
2176,000000	15,376500
2175,000000	15,372800
2174,000000	15,396200
2173,000000	15,391800
2172,000000	15,390900
2171,000000	15,422600
2170,000000	15,433200
2169,000000	15,428800
2168,000000	15,453500
2167,000000	15,495600
2166,000000	15,511400
2165,000000	15,544700
2164,000000	15,591500
2163,000000	15,625400
2162,000000	15,660300
2161,000000	15,691800
2160,000000	15,758600
2159,000000	15,795100
2158,000000	15,833100
2157,000000	15,872500
2156,000000	15,922800
2155,000000	15,998100
2154,000000	16,058000
2153,000000	16,097900
2152,000000	16,145200
2151,000000	16,220800
2150,000000	16,278800
2149,000000	16,336400
2148,000000	16,401000
2147,000000	16,454000
2146,000000	16,523700
2145,000000	16,592000
2144,000000	16,641500
2143,000000	16,685300
2142,000000	16,745200
2141,000000	16,797100
2140,000000	16,832400
2139,000000	16,868800
2138,000000	16,913100
2137,000000	16,950700
2136,000000	17,011500
2135,000000	17,037700
2134,000000	17,072300
2133,000000	17,110600
2132,000000	17,115800
2131,000000	17,128700
2130,000000	17,163100
2129,000000	17,180900
2128,000000	17,195100
2127,000000	17,197200
2126,000000	17,188300
2125,000000	17,178600
2124,000000	17,191700
2123,000000	17,181400
2122,000000	17,173900
2121,000000	17,173300
2120,000000	17,160200
2119,000000	17,120900
2118,000000	17,090800
2117,000000	17,091700
2116,000000	17,069200
2115,000000	17,036900
2114,000000	17,012600
2113,000000	16,990500
2112,000000	16,962300
2111,000000	16,916000
2110,000000	16,881200
2109,000000	16,832600
2108,000000	16,789300
2107,000000	16,756700
2106,000000	16,733300
2105,000000	16,707100
2104,000000	16,660000
2103,000000	16,625200
2102,000000	16,596600
2101,000000	16,551500
2100,000000	16,526700
2099,000000	16,499900
2098,000000	16,466000
2097,000000	16,432100
2096,000000	16,386800
2095,000000	16,361000
2094,000000	16,334000
2093,000000	16,308900
2092,000000	16,291900
2091,000000	16,266700
2090,000000	16,253800
2089,000000	16,224700
2088,000000	16,187700
2087,000000	16,171500
2086,000000	16,141500
2085,000000	16,103900
2084,000000	16,069600
2083,000000	16,053800
2082,000000	16,021100
2081,000000	15,972600
2080,000000	15,933800
2079,000000	15,888500
2078,000000	15,839400
2077,000000	15,789500
2076,000000	15,723000
2075,000000	15,665800
2074,000000	15,612200
2073,000000	15,547800
2072,000000	15,485700
2071,000000	15,428000
2070,000000	15,356500
2069,000000	15,282900
2068,000000	15,221800
2067,000000	15,146900
2066,000000	15,064700
2065,000000	14,986800
2064,000000	14,914100
2063,000000	14,839500
2062,000000	14,777600
2061,000000	14,713700
2060,000000	14,651900
2059,000000	14,596800
2058,000000	14,536800
2057,000000	14,482300
2056,000000	14,435500
2055,000000	14,415900
2054,000000	14,392700
2053,000000	14,366800
2052,000000	14,370600
2051,000000	14,375300
2050,000000	14,392500
2049,000000	14,429300
2048,000000	14,474700
2047,000000	14,525700
2046,000000	14,580200
2045,000000	14,649400
2044,000000	14,718100
2043,000000	14,786500
2042,000000	14,874100
2041,000000	14,948800
2040,000000	15,042900
2039,000000	15,130600
2038,000000	15,218100
2037,000000	15,295100
2036,000000	15,378400
2035,000000	15,439900
2034,000000	15,507300
2033,000000	15,582800
2032,000000	15,645400
2031,000000	15,690900
2030,000000	15,731400
2029,000000	15,781800
2028,000000	15,824400
2027,000000	15,867300
2026,000000	15,888500
2025,000000	15,918000
2024,000000	15,939900
2023,000000	15,965200
2022,000000	15,987400
2021,000000	15,995500
2020,000000	16,007400
2019,000000	16,017000
2018,000000	16,030500
2017,000000	16,033200
2016,000000	16,028600
2015,000000	16,024600
2014,000000	16,019900
2013,000000	16,002100
2012,000000	15,991000
2011,000000	15,992800
2010,000000	15,959200
2009,000000	15,928200
2008,000000	15,905200
2007,000000	15,877900
2006,000000	15,829000
2005,000000	15,803900
2004,000000	15,780500
2003,000000	15,736300
2002,000000	15,696100
2001,000000	15,644800
2000,000000	15,597700
1999,000000	15,536700
1998,000000	15,485300
1997,000000	15,417800
1996,000000	15,349500
1995,000000	15,284300
1994,000000	15,237200
1993,000000	15,142800
1992,000000	15,074800
1991,000000	15,010500
1990,000000	14,936000
1989,000000	14,857700
1988,000000	14,756100
1987,000000	14,703300
1986,000000	14,631200
1985,000000	14,527100
1984,000000	14,446200
1983,000000	14,363300
1982,000000	14,283400
1981,000000	14,196300
1980,000000	14,108900
1979,000000	14,029200
1978,000000	13,936200
1977,000000	13,842200
1976,000000	13,767500
1975,000000	13,694800
1974,000000	13,595600
1973,000000	13,529100
1972,000000	13,440400
1971,000000	13,358700
1970,000000	13,268000
1969,000000	13,186700
1968,000000	13,106700
1967,000000	13,034900
1966,000000	12,967000
1965,000000	12,903600
1964,000000	12,845700
1963,000000	12,762000
1962,000000	12,677100
1961,000000	12,598700
1960,000000	12,532000
1959,000000	12,452500
1958,000000	12,395300
1957,000000	12,315200
1956,000000	12,244400
1955,000000	12,184800
1954,000000	12,108600
1953,000000	12,054200
1952,000000	11,987700
1951,000000	11,918200
1950,000000	11,873000
1949,000000	11,812200
1948,000000	11,774900
1947,000000	11,736500
1946,000000	11,678600
1945,000000	11,648200
1944,000000	11,590300
1943,000000	11,559900
1942,000000	11,534300
1941,000000	11,512000
1940,000000	11,507500
1939,000000	11,497400
1938,000000	11,479300
1937,000000	11,462500
1936,000000	11,456700
1935,000000	11,472100
1934,000000	11,465000
1933,000000	11,487800
1932,000000	11,536100
1931,000000	11,572100
1930,000000	11,629400
1929,000000	11,692500
1928,000000	11,723400
1927,000000	11,793500
1926,000000	11,867600
1925,000000	11,928800
1924,000000	12,007400
1923,000000	12,133800
1922,000000	12,226600
1921,000000	12,354100
1920,000000	12,472600
1919,000000	12,602700
1918,000000	12,733400
1917,000000	12,883800
1916,000000	13,024600
1915,000000	13,188000
1914,000000	13,329600
1913,000000	13,501500
1912,000000	13,699800
1911,000000	13,898500
1910,000000	14,101400
1909,000000	14,303300
1908,000000	14,514600
1907,000000	14,748900
1906,000000	14,975300
1905,000000	15,229400
1904,000000	15,522700
1903,000000	15,798400
1902,000000	16,069600
1901,000000	16,358600
1900,000000	16,640500
1899,000000	16,974400
1898,000000	17,309600
1897,000000	17,662200
1896,000000	17,983400
1895,000000	18,299100
1894,000000	18,624900
1893,000000	18,977200
1892,000000	19,350000
1891,000000	19,792000
1890,000000	20,242500
1889,000000	20,673900
1888,000000	21,091200
1887,000000	21,533000
1886,000000	21,977000
1885,000000	22,445100
1884,000000	22,937100
1883,000000	23,456700
1882,000000	24,005500
1881,000000	24,501700
1880,000000	25,023800
1879,000000	25,469200
1878,000000	25,927600
1877,000000	26,389200
1876,000000	26,842800
1875,000000	27,276200
1874,000000	27,693400
1873,000000	28,120400
1872,000000	28,534400
1871,000000	28,894200
1870,000000	29,254000
1869,000000	29,571600
1868,000000	29,878400
1867,000000	30,122000
1866,000000	30,324500
1865,000000	30,460400
1864,000000	30,622900
1863,000000	30,761600
1862,000000	30,871600
1861,000000	31,042400
1860,000000	31,184900
1859,000000	31,340800
1858,000000	31,466300
1857,000000	31,563100
1856,000000	31,641000
1855,000000	31,699800
1854,000000	31,744400
1853,000000	31,812900
1852,000000	31,826200
1851,000000	31,839500
1850,000000	31,881300
1849,000000	31,878500
1848,000000	31,885800
1847,000000	31,926800
1846,000000	31,927500
1845,000000	31,887900
1844,000000	31,843700
1843,000000	31,791800
1842,000000	31,784800
1841,000000	31,819300
1840,000000	31,834000
1839,000000	31,818100
1838,000000	31,788500
1837,000000	31,745300
1836,000000	31,706200
1835,000000	31,688700
1834,000000	31,639300
1833,000000	31,582300
1832,000000	31,505300
1831,000000	31,447500
1830,000000	31,419100
1829,000000	31,383500
1828,000000	31,325800
1827,000000	31,251000
1826,000000	31,188900
1825,000000	31,147800
1824,000000	31,085900
1823,000000	31,039500
1822,000000	31,003700
1821,000000	30,983900
1820,000000	30,983500
1819,000000	30,974300
1818,000000	30,921900
1817,000000	30,875100
1816,000000	30,834400
1815,000000	30,821100
1814,000000	30,817600
1813,000000	30,797600
1812,000000	30,779800
1811,000000	30,749200
1810,000000	30,725500
1809,000000	30,690400
1808,000000	30,633200
1807,000000	30,591800
1806,000000	30,549600
1805,000000	30,501900
1804,000000	30,459900
1803,000000	30,409800
1802,000000	30,370000
1801,000000	30,336500
1800,000000	30,283200
1799,000000	30,233000
1798,000000	30,174100
1797,000000	30,114500
1796,000000	30,066400
1795,000000	30,040000
1794,000000	30,005100
1793,000000	29,950500
1792,000000	29,901200
1791,000000	29,843400
1790,000000	29,800300
1789,000000	29,759900
1788,000000	29,704000
1787,000000	29,657900
1786,000000	29,611100
1785,000000	29,569900
1784,000000	29,524600
1783,000000	29,462500
1782,000000	29,401300
1781,000000	29,348200
1780,000000	29,284000
1779,000000	29,219600
1778,000000	29,166000
1777,000000	29,095200
1776,000000	29,018500
1775,000000	28,938000
1774,000000	28,858800
1773,000000	28,770900
1772,000000	28,681700
1771,000000	28,599400
1770,000000	28,498200
1769,000000	28,384700
1768,000000	28,290000
1767,000000	28,191600
1766,000000	28,102700
1765,000000	28,026200
1764,000000	27,949400
1763,000000	27,904800
1762,000000	27,901300
1761,000000	27,903600
1760,000000	27,919000
1759,000000	27,957100
1758,000000	28,005500
1757,000000	28,058700
1756,000000	28,138400
1755,000000	28,195600
1754,000000	28,245200
1753,000000	28,292300
1752,000000	28,331200
1751,000000	28,350900
1750,000000	28,366400
1749,000000	28,365700
1748,000000	28,358600
1747,000000	28,323600
1746,000000	28,266200
1745,000000	28,200400
1744,000000	28,117900
1743,000000	28,015800
1742,000000	27,910900
1741,000000	27,755800
1740,000000	27,577900
1739,000000	27,424400
1738,000000	27,230700
1737,000000	27,047400
1736,000000	26,867600
1735,000000	26,722000
1734,000000	26,601800
1733,000000	26,505700
1732,000000	26,427100
1731,000000	26,397600
1730,000000	26,418600
1729,000000	26,465900
1728,000000	26,512600
1727,000000	26,570000
1726,000000	26,645200
1725,000000	26,711400
1724,000000	26,782900
1723,000000	26,861900
1722,000000	26,917300
1721,000000	26,984900
1720,000000	27,059300
1719,000000	27,148200
1718,000000	27,222700
1717,000000	27,321700
1716,000000	27,421800
1715,000000	27,535800
1714,000000	27,667800
1713,000000	27,768500
1712,000000	27,864400
1711,000000	27,975700
1710,000000	28,058400
1709,000000	28,104900
1708,000000	28,165000
1707,000000	28,190500
1706,000000	28,196400
1705,000000	28,214400
1704,000000	28,208000
1703,000000	28,180400
1702,000000	28,134000
1701,000000	28,076100
1700,000000	28,000900
1699,000000	27,900600
1698,000000	27,789200
1697,000000	27,690800
1696,000000	27,594600
1695,000000	27,543800
1694,000000	27,508300
1693,000000	27,514200
1692,000000	27,567400
1691,000000	27,644800
1690,000000	27,730900
1689,000000	27,837700
1688,000000	27,937100
1687,000000	28,004300
1686,000000	28,061300
1685,000000	28,129600
1684,000000	28,217800
1683,000000	28,319700
1682,000000	28,488100
1681,000000	28,723100
1680,000000	29,014200
1679,000000	29,382100
1678,000000	29,783600
1677,000000	30,193900
1676,000000	30,567500
1675,000000	30,942900
1674,000000	31,274700
1673,000000	31,561300
1672,000000	31,825300
1671,000000	32,081900
1670,000000	32,281700
1669,000000	32,449200
1668,000000	32,615200
1667,000000	32,733900
1666,000000	32,852800
1665,000000	32,979200
1664,000000	33,074600
1663,000000	33,172700
1662,000000	33,263100
1661,000000	33,326500
1660,000000	33,389100
1659,000000	33,460300
1658,000000	33,512900
1657,000000	33,541800
1656,000000	33,565000
1655,000000	33,580500
1654,000000	33,604700
1653,000000	33,624500
1652,000000	33,624200
1651,000000	33,613800
1650,000000	33,599000
1649,000000	33,549500
1648,000000	33,546400
1647,000000	33,490700
1646,000000	33,481600
1645,000000	33,432700
1644,000000	33,373900
1643,000000	33,342600
1642,000000	33,303200
1641,000000	33,257400
1640,000000	33,211200
1639,000000	33,171100
1638,000000	33,121200
1637,000000	33,071000
1636,000000	33,004400
1635,000000	32,934400
1634,000000	32,874900
1633,000000	32,823800
1632,000000	32,750700
1631,000000	32,671100
1630,000000	32,637000
1629,000000	32,549900
1628,000000	32,465100
1627,000000	32,387400
1626,000000	32,314400
1625,000000	32,229600
1624,000000	32,145600
1623,000000	32,085700
1622,000000	32,003100
1621,000000	31,941500
1620,000000	31,869100
1619,000000	31,778800
1618,000000	31,717600
1617,000000	31,654600
1616,000000	31,575600
1615,000000	31,496300
1614,000000	31,424800
1613,000000	31,355000
1612,000000	31,289700
1611,000000	31,214300
1610,000000	31,128900
1609,000000	31,043800
1608,000000	30,981300
1607,000000	30,894600
1606,000000	30,829800
1605,000000	30,749400
1604,000000	30,670100
1603,000000	30,589700
1602,000000	30,519100
1601,000000	30,436500
1600,000000	30,362200
1599,000000	30,287800
1598,000000	30,205300
1597,000000	30,120800
1596,000000	30,052300
1595,000000	29,982800
1594,000000	29,922100
1593,000000	29,855700
1592,000000	29,786500
1591,000000	29,734200
1590,000000	29,675800
1589,000000	29,609700
1588,000000	29,555500
1587,000000	29,496600
1586,000000	29,435300
1585,000000	29,378400
1584,000000	29,310900
1583,000000	29,260600
1582,000000	29,208200
1581,000000	29,163300
1580,000000	29,122400
1579,000000	29,067100
1578,000000	29,022000
1577,000000	28,973600
1576,000000	28,951300
1575,000000	28,918000
1574,000000	28,894000
1573,000000	28,869200
1572,000000	28,847700
1571,000000	28,818400
1570,000000	28,804700
1569,000000	28,803100
1568,000000	28,784400
1567,000000	28,770000
1566,000000	28,767200
1565,000000	28,767700
1564,000000	28,752500
1563,000000	28,742700
1562,000000	28,727600
1561,000000	28,715100
1560,000000	28,719900
1559,000000	28,702600
1558,000000	28,681000
1557,000000	28,661200
1556,000000	28,626700
1555,000000	28,607100
1554,000000	28,581900
1553,000000	28,545500
1552,000000	28,493300
1551,000000	28,449900
1550,000000	28,417200
1549,000000	28,371400
1548,000000	28,316300
1547,000000	28,272300
1546,000000	28,229600
1545,000000	28,171100
1544,000000	28,123100
1543,000000	28,097300
1542,000000	28,057300
1541,000000	28,016700
1540,000000	27,980300
1539,000000	27,950800
1538,000000	27,906700
1537,000000	27,873200
1536,000000	27,845600
1535,000000	27,812100
1534,000000	27,774200
1533,000000	27,733500
1532,000000	27,700000
1531,000000	27,659800
1530,000000	27,628000
1529,000000	27,581900
1528,000000	27,527500
1527,000000	27,487400
1526,000000	27,448400
1525,000000	27,392000
1524,000000	27,341200
1523,000000	27,294600
1522,000000	27,241000
1521,000000	27,198000
1520,000000	27,146500
1519,000000	27,097700
1518,000000	27,042800
1517,000000	26,980400
1516,000000	26,923100
1515,000000	26,868100
1514,000000	26,797300
1513,000000	26,735300
1512,000000	26,681800
1511,000000	26,617300
1510,000000	26,554300
1509,000000	26,501700
1508,000000	26,439100
1507,000000	26,362900
1506,000000	26,295600
1505,000000	26,224200
1504,000000	26,164900
1503,000000	26,114600
1502,000000	26,045200
1501,000000	25,980200
1500,000000	25,923900
1499,000000	25,875200
1498,000000	25,821000
1497,000000	25,770100
1496,000000	25,719800
1495,000000	25,664500
1494,000000	25,608300
1493,000000	25,576900
1492,000000	25,541500
1491,000000	25,498900
1490,000000	25,462400
1489,000000	25,431400
1488,000000	25,387600
1487,000000	25,363100
1486,000000	25,338800
1485,000000	25,296500
1484,000000	25,251400
1483,000000	25,210900
1482,000000	25,196400
1481,000000	25,183100
1480,000000	25,155900
1479,000000	25,139800
1478,000000	25,124000
1477,000000	25,103900
1476,000000	25,092600
1475,000000	25,084600
1474,000000	25,083200
1473,000000	25,101600
1472,000000	25,119500
1471,000000	25,114800
1470,000000	25,121300
1469,000000	25,117400
1468,000000	25,111200
1467,000000	25,130100
1466,000000	25,152400
1465,000000	25,162600
1464,000000	25,170200
1463,000000	25,178900
1462,000000	25,213300
1461,000000	25,243400
1460,000000	25,252700
1459,000000	25,313900
1458,000000	25,343600
1457,000000	25,368100
1456,000000	25,416500
1455,000000	25,487500
1454,000000	25,529900
1453,000000	25,594500
1452,000000	25,658600
1451,000000	25,716100
1450,000000	25,791000
1449,000000	25,841200
1448,000000	25,882100
1447,000000	25,952300
1446,000000	26,034600
1445,000000	26,145600
1444,000000	26,209900
1443,000000	26,273900
1442,000000	26,348600
1441,000000	26,425400
1440,000000	26,511700
1439,000000	26,601800
1438,000000	26,703600
1437,000000	26,802600
1436,000000	26,882400
1435,000000	26,995700
1434,000000	27,096900
1433,000000	27,197700
1432,000000	27,322200
1431,000000	27,428900
1430,000000	27,557200
1429,000000	27,676200
1428,000000	27,817900
1427,000000	27,984000
1426,000000	28,121800
1425,000000	28,269100
1424,000000	28,448000
1423,000000	28,632900
1422,000000	28,828100
1421,000000	28,984700
1420,000000	29,213100
1419,000000	29,452300
1418,000000	29,649000
1417,000000	29,877700
1416,000000	30,064300
1415,000000	30,326000
1414,000000	30,597900
1413,000000	30,871400
1412,000000	31,128200
1411,000000	31,361700
1410,000000	31,668300
1409,000000	32,017100
1408,000000	32,351600
1407,000000	32,684100
1406,000000	33,043800
1405,000000	33,396600
1404,000000	33,782600
1403,000000	34,086800
1402,000000	34,478800
1401,000000	34,862600
1400,000000	35,301500
1399,000000	35,656700
1398,000000	35,961900
1397,000000	36,221700
1396,000000	36,565200
1395,000000	36,947000
1394,000000	37,282900
1393,000000	37,534300
1392,000000	37,808500
1391,000000	38,159300
1390,000000	38,512500
1389,000000	38,838200
1388,000000	39,221300
1387,000000	39,664900
1386,000000	40,078300
1385,000000	40,510100
1384,000000	40,981100
1383,000000	41,484600
1382,000000	41,955900
1381,000000	42,381200
1380,000000	42,767100
1379,000000	42,926000
1378,000000	43,257200
1377,000000	43,445500
1376,000000	43,640800
1375,000000	43,838500
1374,000000	44,028100
1373,000000	44,239400
1372,000000	44,479000
1371,000000	44,755300
1370,000000	45,057200
1369,000000	45,313300
1368,000000	45,557700
1367,000000	45,791800
1366,000000	46,030100
1365,000000	46,179600
1364,000000	46,369700
1363,000000	46,540600
1362,000000	46,716400
1361,000000	46,853400
1360,000000	47,005700
1359,000000	47,065700
1358,000000	47,115000
1357,000000	47,204600
1356,000000	47,340000
1355,000000	47,508700
1354,000000	47,708700
1353,000000	47,999300
1352,000000	48,245500
1351,000000	48,606200
1350,000000	48,957900
1349,000000	49,304900
1348,000000	49,608900
1347,000000	49,937100
1346,000000	50,201600
1345,000000	50,465000
1344,000000	50,730500
1343,000000	51,024100
1342,000000	51,271800
1341,000000	51,531200
1340,000000	51,777200
1339,000000	52,011900
1338,000000	52,237000
1337,000000	52,473500
1336,000000	52,693300
1335,000000	52,919200
1334,000000	53,129700
1333,000000	53,329800
1332,000000	53,558100
1331,000000	53,746300
1330,000000	53,948800
1329,000000	54,139600
1328,000000	54,318200
1327,000000	54,506500
1326,000000	54,671800
1325,000000	54,825000
1324,000000	54,964200
1323,000000	55,123400
1322,000000	55,271100
1321,000000	55,415700
1320,000000	55,563200
1319,000000	55,702100
1318,000000	55,819600
1317,000000	55,933600
1316,000000	56,050300
1315,000000	56,169700
1314,000000	56,274300
1313,000000	56,391500
1312,000000	56,483100
1311,000000	56,564400
1310,000000	56,657200
1309,000000	56,747800
1308,000000	56,836900
1307,000000	56,923900
1306,000000	56,990800
1305,000000	57,039000
1304,000000	57,103000
1303,000000	57,169500
1302,000000	57,233600
1301,000000	57,270700
1300,000000	57,299000
1299,000000	57,338700
1298,000000	57,381500
1297,000000	57,402000
1296,000000	57,424000
1295,000000	57,454600
1294,000000	57,469100
1293,000000	57,483500
1292,000000	57,480400
1291,000000	57,494300
1290,000000	57,504200
1289,000000	57,504900
1288,000000	57,492800
1287,000000	57,471700
1286,000000	57,461700
1285,000000	57,426600
1284,000000	57,410300
1283,000000	57,381900
1282,000000	57,353000
1281,000000	57,325100
1280,000000	57,291500
1279,000000	57,253500
1278,000000	57,223200
1277,000000	57,203000
1276,000000	57,171000
1275,000000	57,134800
1274,000000	57,122000
1273,000000	57,099500
1272,000000	57,077200
1271,000000	57,060900
1270,000000	57,039200
1269,000000	57,011700
1268,000000	56,992100
1267,000000	56,981000
1266,000000	56,959900
1265,000000	56,937200
1264,000000	56,918800
1263,000000	56,887700
1262,000000	56,871400
1261,000000	56,863300
1260,000000	56,847700
1259,000000	56,823500
1258,000000	56,804500
1257,000000	56,777300
1256,000000	56,753900
1255,000000	56,733100
1254,000000	56,704100
1253,000000	56,673300
1252,000000	56,626900
1251,000000	56,575100
1250,000000	56,520600
1249,000000	56,476200
1248,000000	56,441800
1247,000000	56,365300
1246,000000	56,293500
1245,000000	56,222500
1244,000000	56,159300
1243,000000	56,067900
1242,000000	55,980000
1241,000000	55,905800
1240,000000	55,816300
1239,000000	55,728800
1238,000000	55,642600
1237,000000	55,537300
1236,000000	55,433600
1235,000000	55,345000
1234,000000	55,247900
1233,000000	55,134100
1232,000000	55,031300
1231,000000	54,926300
1230,000000	54,810600
1229,000000	54,687400
1228,000000	54,568500
1227,000000	54,463600
1226,000000	54,350900
1225,000000	54,220400
1224,000000	54,080400
1223,000000	53,963700
1222,000000	53,842800
1221,000000	53,715200
1220,000000	53,591500
1219,000000	53,478000
1218,000000	53,364200
1217,000000	53,249200
1216,000000	53,139600
1215,000000	53,031800
1214,000000	52,925300
1213,000000	52,816600
1212,000000	52,730300
1211,000000	52,638400
1210,000000	52,539800
1209,000000	52,444700
1208,000000	52,360100
1207,000000	52,283000
1206,000000	52,211200
1205,000000	52,133000
1204,000000	52,085600
1203,000000	52,037800
1202,000000	51,994100
1201,000000	51,955100
1200,000000	51,909900
1199,000000	51,869100
1198,000000	51,819300
1197,000000	51,756500
1196,000000	51,666800
1195,000000	51,560400
1194,000000	51,433400
1193,000000	51,248800
1192,000000	51,030600
1191,000000	50,786200
1190,000000	50,509400
1189,000000	50,226200
1188,000000	49,973800
1187,000000	49,754300
1186,000000	49,603000
1185,000000	49,528000
1184,000000	49,541000
1183,000000	49,621000
1182,000000	49,804000
1181,000000	50,063100
1180,000000	50,363700
1179,000000	50,688000
1178,000000	51,023100
1177,000000	51,342200
1176,000000	51,637900
1175,000000	51,883400
1174,000000	52,114900
1173,000000	52,334100
1172,000000	52,564400
1171,000000	52,773400
1170,000000	53,015000
1169,000000	53,243600
1168,000000	53,484500
1167,000000	53,729400
1166,000000	53,980200
1165,000000	54,236700
1164,000000	54,510700
1163,000000	54,764900
1162,000000	55,054700
1161,000000	55,329600
1160,000000	55,610000
1159,000000	55,881100
1158,000000	56,161500
1157,000000	56,424400
1156,000000	56,664400
1155,000000	56,898600
1154,000000	57,108600
1153,000000	57,298200
1152,000000	57,466000
1151,000000	57,567400
1150,000000	57,685500
1149,000000	57,777400
1148,000000	57,882000
1147,000000	57,961600
1146,000000	58,077900
1145,000000	58,213400
1144,000000	58,372100
1143,000000	58,563300
1142,000000	58,806400
1141,000000	59,049500
1140,000000	59,328700
1139,000000	59,616100
1138,000000	59,909200
1137,000000	60,190400
1136,000000	60,535000
1135,000000	60,866400
1134,000000	61,216900
1133,000000	61,541400
1132,000000	61,805100
1131,000000	62,092400
1130,000000	62,340500
1129,000000	62,560900
1128,000000	62,788500
1127,000000	62,957700
1126,000000	63,096200
1125,000000	63,205500
1124,000000	63,308400
1123,000000	63,398300
1122,000000	63,492700
1121,000000	63,551100
1120,000000	63,587400
1119,000000	63,626900
1118,000000	63,648400
1117,000000	63,692200
1116,000000	63,719700
1115,000000	63,723000
1114,000000	63,741900
1113,000000	63,731800
1112,000000	63,748700
1111,000000	63,739000
1110,000000	63,748200
1109,000000	63,747400
1108,000000	63,748700
1107,000000	63,745100
1106,000000	63,756300
1105,000000	63,744200
1104,000000	63,752000
1103,000000	63,744700
1102,000000	63,738300
1101,000000	63,739700
1100,000000	63,743300
1099,000000	63,731300
1098,000000	63,732000
1097,000000	63,713000
1096,000000	63,724200
1095,000000	63,730000
1094,000000	63,714300
1093,000000	63,684600
1092,000000	63,666800
1091,000000	63,650800
1090,000000	63,659200
1089,000000	63,629300
1088,000000	63,600400
1087,000000	63,577700
1086,000000	63,574700
1085,000000	63,542600
1084,000000	63,518100
1083,000000	63,475400
1082,000000	63,471400
1081,000000	63,439900
1080,000000	63,414500
1079,000000	63,368500
1078,000000	63,369200
1077,000000	63,348700
1076,000000	63,335800
1075,000000	63,307100
1074,000000	63,279700
1073,000000	63,241300
1072,000000	63,214800
1071,000000	63,189800
1070,000000	63,179200
1069,000000	63,161900
1068,000000	63,134800
1067,000000	63,119300
1066,000000	63,102500
1065,000000	63,084200
1064,000000	63,073700
1063,000000	63,057300
1062,000000	63,031400
1061,000000	63,009900
1060,000000	62,993100
1059,000000	62,988500
1058,000000	62,951700
1057,000000	62,911600
1056,000000	62,898000
1055,000000	62,887800
1054,000000	62,867500
1053,000000	62,845300
1052,000000	62,835100
1051,000000	62,826300
1050,000000	62,824000
1049,000000	62,802100
1048,000000	62,798000
1047,000000	62,792000
1046,000000	62,792400
1045,000000	62,793200
1044,000000	62,786700
1043,000000	62,803400
1042,000000	62,796600
1041,000000	62,790300
1040,000000	62,799900
1039,000000	62,804300
1038,000000	62,809700
1037,000000	62,807400
1036,000000	62,812900
1035,000000	62,797000
1034,000000	62,798900
1033,000000	62,790200
1032,000000	62,797900
1031,000000	62,790000
1030,000000	62,772200
1029,000000	62,776900
1028,000000	62,768100
1027,000000	62,748500
1026,000000	62,754800
1025,000000	62,745400
1024,000000	62,732100
1023,000000	62,729800
1022,000000	62,731600
1021,000000	62,723900
1020,000000	62,707400
1019,000000	62,714100
1018,000000	62,705200
1017,000000	62,708100
1016,000000	62,710700
1015,000000	62,734400
1014,000000	62,736400
1013,000000	62,759400
1012,000000	62,794200
1011,000000	62,816600
1010,000000	62,848200
1009,000000	62,891400
1008,000000	62,933500
1007,000000	62,979100
1006,000000	63,048300
1005,000000	63,097900
1004,000000	63,131700
1003,000000	63,189400
1002,000000	63,239300
1001,000000	63,306800
1000,000000	63,343200
999,000000	63,410300
998,000000	63,453800
997,000000	63,501200
996,000000	63,550800
995,000000	63,607900
994,000000	63,675500
993,000000	63,751700
992,000000	63,814700
991,000000	63,872800
990,000000	63,926600
989,000000	63,998300
988,000000	64,077000
987,000000	64,168200
986,000000	64,243000
985,000000	64,308200
984,000000	64,394800
983,000000	64,493900
982,000000	64,584000
981,000000	64,671000
980,000000	64,762700
979,000000	64,860300
978,000000	64,948300
977,000000	65,047600
976,000000	65,156500
975,000000	65,253800
974,000000	65,354800
973,000000	65,449200
972,000000	65,560500
971,000000	65,672500
970,000000	65,770700
969,000000	65,883300
968,000000	66,004900
967,000000	66,122000
966,000000	66,240700
965,000000	66,358300
964,000000	66,466600
963,000000	66,591200
962,000000	66,724100
961,000000	66,848100
960,000000	66,969900
959,000000	67,094100
958,000000	67,231200
957,000000	67,372700
956,000000	67,502500
955,000000	67,619400
954,000000	67,762300
953,000000	67,900800
952,000000	68,033500
951,000000	68,166600
950,000000	68,300200
949,000000	68,426100
948,000000	68,550900
947,000000	68,678500
946,000000	68,802200
945,000000	68,932400
944,000000	69,048800
943,000000	69,162300
942,000000	69,278500
941,000000	69,397500
940,000000	69,504900
939,000000	69,611200
938,000000	69,724100
937,000000	69,836100
936,000000	69,931700
935,000000	70,026700
934,000000	70,139000
933,000000	70,243100
932,000000	70,353100
931,000000	70,453200
930,000000	70,538400
929,000000	70,620100
928,000000	70,717200
927,000000	70,789900
926,000000	70,866000
925,000000	70,949800
924,000000	71,037100
923,000000	71,113300
922,000000	71,194200
921,000000	71,275400
920,000000	71,344500
919,000000	71,415100
918,000000	71,503600
917,000000	71,578100
916,000000	71,638300
915,000000	71,684500
914,000000	71,752200
913,000000	71,797000
912,000000	71,846500
911,000000	71,903800
910,000000	71,955500
909,000000	72,013100
908,000000	72,063800
907,000000	72,122100
906,000000	72,181400
905,000000	72,230300
904,000000	72,274900
903,000000	72,338500
902,000000	72,391900
901,000000	72,462100
900,000000	72,529800
899,000000	72,593000
898,000000	72,645200
897,000000	72,684100
896,000000	72,734000
895,000000	72,804800
894,000000	72,872100
893,000000	72,926200
892,000000	72,949800
891,000000	72,983300
890,000000	73,020100
889,000000	73,048300
888,000000	73,085900
887,000000	73,125200
886,000000	73,149700
885,000000	73,180600
884,000000	73,213400
883,000000	73,234200
882,000000	73,241600
881,000000	73,265700
880,000000	73,270300
879,000000	73,285900
878,000000	73,309700
877,000000	73,299300
876,000000	73,281400
875,000000	73,244700
874,000000	73,184400
873,000000	73,098400
872,000000	72,979100
871,000000	72,859100
870,000000	72,786200
869,000000	72,751800
868,000000	72,730800
867,000000	72,739200
866,000000	72,704000
865,000000	72,690500
864,000000	72,640500
863,000000	72,599600
862,000000	72,543800
861,000000	72,537800
860,000000	72,478900
859,000000	72,397100
858,000000	72,375900
857,000000	72,190900
856,000000	71,702700
855,000000	72,036300
854,000000	71,898400
853,000000	71,606300
852,000000	71,402800
851,000000	71,377900
850,000000	71,399600
849,000000	70,823500
848,000000	71,380000
847,000000	71,158100
846,000000	70,802000
845,000000	70,800800
844,000000	70,563600
843,000000	70,458300
842,000000	70,568000
841,000000	70,404700
840,000000	70,171000
839,000000	70,040600
838,000000	69,903200
837,000000	69,657900
836,000000	69,217100
835,000000	69,468700
834,000000	69,288800
833,000000	69,218100
832,000000	68,880000
831,000000	68,988700
830,000000	68,645600
829,000000	68,575300
828,000000	68,539700
827,000000	68,208400
826,000000	67,981700
825,000000	68,041100
824,000000	67,925100
823,000000	67,594600
822,000000	67,418500
821,000000	67,355400
820,000000	67,011700
819,000000	67,114900
818,000000	67,141700
817,000000	66,798000
816,000000	66,552000
815,000000	66,485900
814,000000	66,326600
813,000000	66,330900
812,000000	65,937100
811,000000	65,976100
810,000000	65,828900
809,000000	65,454500
808,000000	65,453900
807,000000	65,233300
806,000000	65,132800
805,000000	65,101900
804,000000	64,797300
803,000000	64,794600
802,000000	64,497300
801,000000	64,251200
800,000000	64,040300
799,000000	64,019300
798,000000	63,790600
797,000000	63,629600
796,000000	63,271000
795,000000	63,175800
794,000000	63,082100
793,000000	62,821400
792,000000	62,547900
791,000000	62,104100
790,000000	61,991100
789,000000	61,951600
788,000000	61,592000
787,000000	61,349300
786,000000	61,028300
785,000000	60,809700
784,000000	60,475600
783,000000	60,288400
782,000000	60,279600
781,000000	59,858200
780,000000	59,597200
779,000000	59,302500
778,000000	59,039300
777,000000	58,909900
776,000000	58,688200
775,000000	58,404000
774,000000	58,309400
773,000000	57,949800
772,000000	57,732000
771,000000	57,547600
770,000000	57,362300
769,000000	57,092400
768,000000	56,955800
767,000000	56,648400
766,000000	56,438700
765,000000	56,144300
764,000000	55,997300
763,000000	55,908300
762,000000	55,605600
761,000000	55,369900
760,000000	55,185000
759,000000	55,122800
758,000000	54,812400
757,000000	54,591500
756,000000	54,438800
755,000000	54,236500
754,000000	54,050900
753,000000	53,776500
752,000000	53,519600
751,000000	53,390300
750,000000	53,219900
749,000000	52,966700
748,000000	52,802500
747,000000	52,552100
746,000000	52,405900
745,000000	52,292700
744,000000	52,046600
743,000000	51,920200
742,000000	51,846700
741,000000	51,729700
740,000000	51,506200
739,000000	51,326400
738,000000	51,247400
737,000000	51,125900
736,000000	51,031700
735,000000	50,849900
734,000000	50,653800
733,000000	50,502100
732,000000	50,332600
731,000000	50,196300
730,000000	50,048200
729,000000	49,926100
728,000000	49,728500
727,000000	49,542800
726,000000	49,394400
725,000000	49,191900
724,000000	49,102900
723,000000	48,885700
722,000000	48,760600
721,000000	48,649600
720,000000	48,460900
719,000000	48,255800
718,000000	48,035900
717,000000	47,878800
716,000000	47,769100
715,000000	47,623400
714,000000	47,501300
713,000000	47,327100
712,000000	47,210100
711,000000	47,103400
710,000000	47,039200
709,000000	46,989700
708,000000	46,947300
707,000000	46,902500
706,000000	46,872800
705,000000	46,806600
704,000000	46,827600
703,000000	46,856800
702,000000	46,879200
701,000000	46,901000
700,000000	46,926200
699,000000	46,978600
698,000000	47,017600
697,000000	47,096400
696,000000	47,237800
695,000000	47,335600
694,000000	47,434400
693,000000	47,573000
692,000000	47,716300
691,000000	47,824700
690,000000	47,955700
689,000000	48,101400
688,000000	48,215700
687,000000	48,382600
686,000000	48,489400
685,000000	48,643500
684,000000	48,834400
683,000000	48,968400
682,000000	49,107100
681,000000	49,233400
680,000000	49,346400
679,000000	49,475600
678,000000	49,612100
677,000000	49,701200
676,000000	49,807800
675,000000	49,870800
674,000000	49,935300
673,000000	50,033600
672,000000	50,077300
671,000000	50,089500
670,000000	50,122500
669,000000	50,133900
668,000000	50,082300
667,000000	49,998000
666,000000	49,918800
665,000000	49,814700
664,000000	49,724800
663,000000	49,590100
662,000000	49,425400
661,000000	49,274100
660,000000	49,107500
659,000000	48,964600
658,000000	48,771200
657,000000	48,569600
656,000000	48,398000
655,000000	48,251900
654,000000	48,127500
653,000000	47,980100
652,000000	47,867700
651,000000	47,759000
650,000000	47,684500
649,000000	47,674000
648,000000	47,641900
647,000000	47,671100
646,000000	47,729500
645,000000	47,790100
644,000000	47,940800
643,000000	48,135900
642,000000	48,347200
641,000000	48,617700
640,000000	48,900700
639,000000	49,203400
638,000000	49,525500
637,000000	49,867700
636,000000	50,257400
635,000000	50,658400
634,000000	51,061400
633,000000	51,449200
632,000000	51,858200
631,000000	52,308000
630,000000	52,731000
629,000000	53,175700
628,000000	53,627700
627,000000	54,099300
626,000000	54,564700
625,000000	55,014300
624,000000	55,468400
623,000000	55,908200
622,000000	56,322000
621,000000	56,755500
620,000000	57,189400
619,000000	57,540600
618,000000	57,836500
617,000000	58,166200
616,000000	58,481400
615,000000	58,773300
614,000000	59,063800
613,000000	59,320900
612,000000	59,555200
611,000000	59,750700
610,000000	59,953900
609,000000	60,129100
608,000000	60,321400
607,000000	60,491300
606,000000	60,675200
605,000000	60,901800
604,000000	61,053600
603,000000	61,226700
602,000000	61,413400
601,000000	61,590300
600,000000	61,752700
599,000000	61,919800
598,000000	62,059000
597,000000	62,167700
596,000000	62,283100
595,000000	62,332600
594,000000	62,385600
593,000000	62,387800
592,000000	62,408800
591,000000	62,372800
590,000000	62,314500
589,000000	62,284100
588,000000	62,247900
587,000000	62,163300
586,000000	62,070900
585,000000	61,994400
584,000000	61,941200
583,000000	61,862000
582,000000	61,763400
581,000000	61,717000
580,000000	61,642100
579,000000	61,556800
578,000000	61,424700
577,000000	61,304100
576,000000	61,204600
575,000000	61,064900
574,000000	60,846500
573,000000	60,624900
572,000000	60,411000
571,000000	60,132400
570,000000	59,841600
569,000000	59,535600
568,000000	59,191000
567,000000	58,859800
566,000000	58,500700
565,000000	58,125200
564,000000	57,759200
563,000000	57,330100
562,000000	56,870800
561,000000	56,395600
560,000000	55,881300
559,000000	55,288800
558,000000	54,738600
557,000000	54,167900
556,000000	53,519500
555,000000	52,811900
554,000000	52,079200
553,000000	51,335400
552,000000	50,532200
551,000000	49,687700
550,000000	48,858200
549,000000	47,997300
548,000000	47,134600
547,000000	46,279200
546,000000	45,385600
545,000000	44,506400
544,000000	43,618300
543,000000	42,685300
542,000000	41,785900
541,000000	40,912300
540,000000	40,068400
539,000000	39,247100
538,000000	38,446200
537,000000	37,673600
536,000000	36,923900
535,000000	36,208300
534,000000	35,466000
533,000000	34,776900
532,000000	34,102100
531,000000	33,484300
530,000000	32,873700
529,000000	32,302900
528,000000	31,720700
527,000000	31,222600
526,000000	30,705400
525,000000	30,175200
524,000000	29,667800
523,000000	29,174600
522,000000	28,720900
521,000000	28,278600
520,000000	27,843900
519,000000	27,431400
518,000000	27,012900
517,000000	26,566800
516,000000	26,149100
515,000000	25,745300
514,000000	25,370800
513,000000	24,989000
512,000000	24,619400
511,000000	24,258200
510,000000	23,920900
509,000000	23,547100
508,000000	23,214700
507,000000	22,921500
506,000000	22,606600
505,000000	22,304200
504,000000	22,000900
503,000000	21,738900
502,000000	21,461000
501,000000	21,244600
500,000000	20,969500
499,000000	20,721300
498,000000	20,430200
497,000000	20,257000
496,000000	19,983100
495,000000	19,772000
494,000000	19,508700
493,000000	19,314200
492,000000	19,091900
491,000000	18,861500
490,000000	18,642700
489,000000	18,472600
488,000000	18,266100
487,000000	18,026000
486,000000	17,847700
485,000000	17,638900
484,000000	17,427600
483,000000	17,235300
482,000000	17,025900
481,000000	16,810900
480,000000	16,587400
479,000000	16,369700
478,000000	16,159900
477,000000	15,950800
476,000000	15,741800
475,000000	15,537200
474,000000	15,317900
473,000000	15,072900
472,000000	14,870100
471,000000	14,661400
470,000000	14,471400
469,000000	14,288900
468,000000	14,122100
467,000000	13,886600
466,000000	13,691200
465,000000	13,505900
464,000000	13,331500
463,000000	13,157200
462,000000	12,983600
461,000000	12,784600
460,000000	12,590900
459,000000	12,464800
458,000000	12,271100
457,000000	12,119200
456,000000	11,977200
455,000000	11,803600
454,000000	11,640500
453,000000	11,468900
452,000000	11,332600
451,000000	11,196700
450,000000	11,001700
449,000000	10,839300
448,000000	10,691300
447,000000	10,535400
446,000000	10,373200
445,000000	10,204000
444,000000	10,062400
443,000000	9,910300
442,000000	9,766500
441,000000	9,594500
440,000000	9,474700
439,000000	9,312400
438,000000	9,152200
437,000000	9,013900
436,000000	8,878200
435,000000	8,723600
434,000000	8,595100
433,000000	8,494300
432,000000	8,365100
431,000000	8,232600
430,000000	8,117100
429,000000	8,019100
428,000000	7,927400
427,000000	7,832500
426,000000	7,741000
425,000000	7,653800
424,000000	7,572900
423,000000	7,478900
422,000000	7,403000
421,000000	7,347000
420,000000	7,288800
419,000000	7,202700
418,000000	7,140600
417,000000	7,098200
416,000000	7,038000
415,000000	6,997700
414,000000	6,953000
413,000000	6,899800
412,000000	6,854600
411,000000	6,799700
410,000000	6,743000
409,000000	6,713100
408,000000	6,678500
407,000000	6,648300
406,000000	6,599900
405,000000	6,562700
404,000000	6,532700
403,000000	6,497700
402,000000	6,468200
401,000000	6,429200
400,000000	6,375100
399,000000	6,320000
398,000000	6,325900
397,000000	6,308900
396,000000	6,272700
395,000000	6,245600
394,000000	6,181100
393,000000	6,155000
392,000000	6,135900
391,000000	6,103100
390,000000	6,060000
389,000000	6,040100
388,000000	6,013500
387,000000	6,004700
386,000000	6,000400
385,000000	5,964800
384,000000	5,916300
383,000000	5,876500
382,000000	5,853000
381,000000	5,831000
380,000000	5,788500
379,000000	5,787200
378,000000	5,740600
377,000000	5,717900
376,000000	5,693700
375,000000	5,508900
374,000000	5,365400
373,000000	5,405900
372,000000	5,259000
371,000000	5,313400
370,000000	5,429200
369,000000	5,670000
368,000000	5,520300
367,000000	5,342400
366,000000	5,458400
365,000000	5,483400
364,000000	5,333300
363,000000	5,509400
362,000000	5,501000
361,000000	5,349900
360,000000	5,394500
359,000000	5,374800
358,000000	5,394500
357,000000	5,446800
356,000000	5,366200
355,000000	5,334200
354,000000	5,371300
353,000000	5,514300
352,000000	5,425600
351,000000	5,377500
350,000000	5,607800
349,000000	5,563400
348,000000	5,469000
347,000000	5,402900
346,000000	5,307100
345,000000	5,562200
344,000000	5,717700
343,000000	5,652000
342,000000	5,621600
341,000000	5,467300
340,000000	5,689500
339,000000	5,701800
338,000000	5,350800
337,000000	5,303800
336,000000	5,267300
335,000000	5,145200
334,000000	5,091300
333,000000	5,309900
332,000000	5,398200
331,000000	5,501900
330,000000	5,713600
329,000000	5,653800
328,000000	5,727100
327,000000	6,157500
326,000000	6,096100
325,000000	5,503500
324,000000	5,601900
323,000000	5,666700
322,000000	5,415300
321,000000	5,749800
320,000000	6,095800
319,000000	6,449900
318,000000	6,985000
317,000000	7,415700
316,000000	6,327100
315,000000	5,330700
314,000000	5,301900
313,000000	5,284100
312,000000	5,306300
311,000000	5,361500
310,000000	5,392000
309,000000	5,379600
308,000000	5,355000
307,000000	5,351500
306,000000	5,413800
305,000000	5,422900
304,000000	5,379600
303,000000	5,397900
302,000000	5,411900
301,000000	5,418000
300,000000	5,392600
299,000000	5,405900
298,000000	5,481200
297,000000	5,467100
296,000000	5,454000
295,000000	5,461700
294,000000	5,495300
293,000000	5,534500
292,000000	5,579800
291,000000	5,595500
290,000000	5,602100
289,000000	5,552700
288,000000	5,512700
287,000000	5,542700
286,000000	5,578700
285,000000	5,648000
284,000000	5,661700
283,000000	5,687500
282,000000	5,688200
281,000000	5,661400
280,000000	5,653700
279,000000	5,708900
278,000000	5,705400
277,000000	5,722200
276,000000	5,789500
275,000000	5,822000
274,000000	5,794400
273,000000	5,792400
272,000000	5,822900
271,000000	5,881900
270,000000	5,889000
269,000000	5,888400
268,000000	5,878400
267,000000	5,962300
266,000000	6,002400
265,000000	5,965400
264,000000	6,057900
263,000000	6,071300
262,000000	6,089600
261,000000	6,126600
260,000000	6,129300
259,000000	6,167900
258,000000	6,147100
257,000000	6,181800
256,000000	6,174300
255,000000	6,212500
254,000000	6,202700
253,000000	6,261300
252,000000	6,307100
251,000000	6,309200
250,000000	6,296800
