PE UV       SUBTECH     SPECTRUM    ASCII       PEDS        4.00        
   -1
CICIMAUCR0252-2.Sample.ASC
24/06/24
17:12:54.00
24/06/24
17:12:54.00
Vinicio Soto Monge
C. resplendens. Sex F.Dorsal. 
250,000000
1
Lambda 1050
1050L1511233
PerkinElmer UV WinLab 6.3.2.0749 / 2.02.05 Lambda 900 UV/VIS/NIR, Aug  7 2015 09:38:08

0
0
3350/servo 860,8/2
0
0
UV/VIS
1
1
1
DoubleDePol,CommonBeamDepol,RBeamAtt,SBeamAtt,60mm sphere, WB InGaAs Detector
0
0
0
0
Program
Program
3350/servo 860,8/2
3350/0,2 860,8/0,2
3350/0,2 860,8/0,2
0
15.00
 
 
 
0
 
860,8
319,2
860,8
Front
100
on
S:100 R:100
0
0
0
0
 
0
 
 
 
0
 
 
0
0
0
0
0
 
 
 
 
0
0


0
0
#HDR
-1
-1
#GR
nm
%R
1.0
0.0
2500,000000
-1,000000
2251
8
89,128300
5,475100
#DATA
2500,000000	7,965700
2499,000000	7,964200
2498,000000	8,072900
2497,000000	7,975300
2496,000000	8,014200
2495,000000	7,907700
2494,000000	7,928700
2493,000000	7,778800
2492,000000	7,934600
2491,000000	7,905200
2490,000000	7,974400
2489,000000	7,815600
2488,000000	7,880700
2487,000000	7,894800
2486,000000	7,917800
2485,000000	7,783300
2484,000000	7,832800
2483,000000	7,854900
2482,000000	7,820700
2481,000000	7,753700
2480,000000	7,806700
2479,000000	7,863900
2478,000000	7,863100
2477,000000	7,838700
2476,000000	7,883200
2475,000000	7,897300
2474,000000	7,878400
2473,000000	7,858500
2472,000000	7,886800
2471,000000	7,880900
2470,000000	7,864100
2469,000000	7,892900
2468,000000	7,932300
2467,000000	7,941500
2466,000000	7,980700
2465,000000	7,997200
2464,000000	8,019000
2463,000000	8,022800
2462,000000	8,087400
2461,000000	8,101700
2460,000000	8,149200
2459,000000	8,140800
2458,000000	8,198300
2457,000000	8,219200
2456,000000	8,266600
2455,000000	8,314500
2454,000000	8,362600
2453,000000	8,417500
2452,000000	8,478700
2451,000000	8,556000
2450,000000	8,594700
2449,000000	8,630700
2448,000000	8,699700
2447,000000	8,760700
2446,000000	8,811200
2445,000000	8,872300
2444,000000	8,941100
2443,000000	8,981700
2442,000000	9,054600
2441,000000	9,107900
2440,000000	9,154800
2439,000000	9,241900
2438,000000	9,282200
2437,000000	9,336200
2436,000000	9,403300
2435,000000	9,446100
2434,000000	9,496600
2433,000000	9,567500
2432,000000	9,616500
2431,000000	9,691000
2430,000000	9,715500
2429,000000	9,771500
2428,000000	9,835100
2427,000000	9,884300
2426,000000	9,938000
2425,000000	9,987400
2424,000000	10,039900
2423,000000	10,088200
2422,000000	10,115100
2421,000000	10,145700
2420,000000	10,189100
2419,000000	10,229800
2418,000000	10,267800
2417,000000	10,301300
2416,000000	10,352400
2415,000000	10,388900
2414,000000	10,412800
2413,000000	10,451300
2412,000000	10,498700
2411,000000	10,523300
2410,000000	10,559700
2409,000000	10,588200
2408,000000	10,608500
2407,000000	10,649400
2406,000000	10,663400
2405,000000	10,680800
2404,000000	10,718200
2403,000000	10,750400
2402,000000	10,766200
2401,000000	10,804500
2400,000000	10,826500
2399,000000	10,854000
2398,000000	10,876000
2397,000000	10,894000
2396,000000	10,906200
2395,000000	10,910800
2394,000000	10,950900
2393,000000	10,972500
2392,000000	10,970200
2391,000000	10,998300
2390,000000	11,026800
2389,000000	11,043100
2388,000000	11,058000
2387,000000	11,064800
2386,000000	11,087500
2385,000000	11,094500
2384,000000	11,100900
2383,000000	11,115200
2382,000000	11,121500
2381,000000	11,118900
2380,000000	11,118700
2379,000000	11,118700
2378,000000	11,118400
2377,000000	11,120400
2376,000000	11,121000
2375,000000	11,125100
2374,000000	11,110500
2373,000000	11,101600
2372,000000	11,107400
2371,000000	11,081000
2370,000000	11,070800
2369,000000	11,080700
2368,000000	11,058600
2367,000000	11,046400
2366,000000	11,034000
2365,000000	11,013100
2364,000000	11,000600
2363,000000	10,983100
2362,000000	10,960000
2361,000000	10,941500
2360,000000	10,920800
2359,000000	10,892700
2358,000000	10,849500
2357,000000	10,817500
2356,000000	10,810500
2355,000000	10,805900
2354,000000	10,795800
2353,000000	10,773700
2352,000000	10,758200
2351,000000	10,748600
2350,000000	10,757500
2349,000000	10,764100
2348,000000	10,760800
2347,000000	10,779500
2346,000000	10,801800
2345,000000	10,808400
2344,000000	10,816500
2343,000000	10,854000
2342,000000	10,881700
2341,000000	10,901300
2340,000000	10,931600
2339,000000	10,949900
2338,000000	10,962000
2337,000000	10,995700
2336,000000	11,002100
2335,000000	11,007600
2334,000000	11,014300
2333,000000	11,018700
2332,000000	11,022800
2331,000000	11,037900
2330,000000	11,025300
2329,000000	11,004400
2328,000000	11,011800
2327,000000	10,990000
2326,000000	10,950500
2325,000000	10,937900
2324,000000	10,894600
2323,000000	10,854100
2322,000000	10,829000
2321,000000	10,794600
2320,000000	10,737800
2319,000000	10,689200
2318,000000	10,623600
2317,000000	10,565900
2316,000000	10,502700
2315,000000	10,445600
2314,000000	10,385200
2313,000000	10,304000
2312,000000	10,246100
2311,000000	10,184100
2310,000000	10,122900
2309,000000	10,089100
2308,000000	10,056400
2307,000000	10,036100
2306,000000	10,007100
2305,000000	9,986800
2304,000000	9,989400
2303,000000	9,987800
2302,000000	9,995000
2301,000000	10,036400
2300,000000	10,069100
2299,000000	10,102700
2298,000000	10,143400
2297,000000	10,198900
2296,000000	10,265700
2295,000000	10,325100
2294,000000	10,371900
2293,000000	10,426300
2292,000000	10,471600
2291,000000	10,538300
2290,000000	10,563600
2289,000000	10,611300
2288,000000	10,641500
2287,000000	10,672700
2286,000000	10,689900
2285,000000	10,698400
2284,000000	10,717700
2283,000000	10,734000
2282,000000	10,740000
2281,000000	10,717000
2280,000000	10,705200
2279,000000	10,703000
2278,000000	10,682800
2277,000000	10,668900
2276,000000	10,656400
2275,000000	10,620800
2274,000000	10,608900
2273,000000	10,616500
2272,000000	10,616500
2271,000000	10,601700
2270,000000	10,599100
2269,000000	10,629700
2268,000000	10,640000
2267,000000	10,696700
2266,000000	10,766400
2265,000000	10,806700
2264,000000	10,880100
2263,000000	10,979400
2262,000000	11,070100
2261,000000	11,204600
2260,000000	11,325300
2259,000000	11,447100
2258,000000	11,587400
2257,000000	11,769700
2256,000000	11,917000
2255,000000	12,076300
2254,000000	12,233700
2253,000000	12,405800
2252,000000	12,568200
2251,000000	12,727500
2250,000000	12,882200
2249,000000	13,046200
2248,000000	13,174100
2247,000000	13,302000
2246,000000	13,430500
2245,000000	13,568300
2244,000000	13,654700
2243,000000	13,762700
2242,000000	13,850400
2241,000000	13,950400
2240,000000	14,015000
2239,000000	14,092300
2238,000000	14,163000
2237,000000	14,222800
2236,000000	14,270000
2235,000000	14,329000
2234,000000	14,366500
2233,000000	14,404100
2232,000000	14,402700
2231,000000	14,442200
2230,000000	14,470800
2229,000000	14,487700
2228,000000	14,502000
2227,000000	14,493000
2226,000000	14,487200
2225,000000	14,471800
2224,000000	14,460500
2223,000000	14,435700
2222,000000	14,418100
2221,000000	14,369800
2220,000000	14,351600
2219,000000	14,309000
2218,000000	14,274900
2217,000000	14,238200
2216,000000	14,206200
2215,000000	14,177300
2214,000000	14,129800
2213,000000	14,092500
2212,000000	14,036000
2211,000000	14,015800
2210,000000	13,993500
2209,000000	13,942800
2208,000000	13,915900
2207,000000	13,895400
2206,000000	13,875100
2205,000000	13,844300
2204,000000	13,835500
2203,000000	13,807400
2202,000000	13,785400
2201,000000	13,763600
2200,000000	13,732800
2199,000000	13,736500
2198,000000	13,695900
2197,000000	13,692900
2196,000000	13,669400
2195,000000	13,644000
2194,000000	13,650800
2193,000000	13,617800
2192,000000	13,606700
2191,000000	13,589900
2190,000000	13,547400
2189,000000	13,549600
2188,000000	13,523600
2187,000000	13,531200
2186,000000	13,509600
2185,000000	13,499100
2184,000000	13,483000
2183,000000	13,463300
2182,000000	13,435900
2181,000000	13,422400
2180,000000	13,424000
2179,000000	13,389100
2178,000000	13,374100
2177,000000	13,367800
2176,000000	13,364400
2175,000000	13,365000
2174,000000	13,361900
2173,000000	13,336900
2172,000000	13,330300
2171,000000	13,332000
2170,000000	13,322700
2169,000000	13,354500
2168,000000	13,361900
2167,000000	13,368800
2166,000000	13,384000
2165,000000	13,391100
2164,000000	13,404600
2163,000000	13,432700
2162,000000	13,446300
2161,000000	13,474800
2160,000000	13,497200
2159,000000	13,544300
2158,000000	13,553500
2157,000000	13,597600
2156,000000	13,635200
2155,000000	13,673700
2154,000000	13,702700
2153,000000	13,770300
2152,000000	13,813200
2151,000000	13,862300
2150,000000	13,919600
2149,000000	13,956000
2148,000000	14,005800
2147,000000	14,049700
2146,000000	14,095100
2145,000000	14,141600
2144,000000	14,181100
2143,000000	14,245600
2142,000000	14,303900
2141,000000	14,330600
2140,000000	14,386000
2139,000000	14,420700
2138,000000	14,452200
2137,000000	14,486100
2136,000000	14,541700
2135,000000	14,573400
2134,000000	14,601600
2133,000000	14,649700
2132,000000	14,689400
2131,000000	14,702300
2130,000000	14,730100
2129,000000	14,757400
2128,000000	14,761500
2127,000000	14,778400
2126,000000	14,814700
2125,000000	14,840400
2124,000000	14,838000
2123,000000	14,850000
2122,000000	14,863600
2121,000000	14,866500
2120,000000	14,873800
2119,000000	14,882800
2118,000000	14,866600
2117,000000	14,866900
2116,000000	14,872300
2115,000000	14,871300
2114,000000	14,858800
2113,000000	14,857000
2112,000000	14,858600
2111,000000	14,840200
2110,000000	14,832000
2109,000000	14,811700
2108,000000	14,793600
2107,000000	14,775000
2106,000000	14,754900
2105,000000	14,748600
2104,000000	14,721700
2103,000000	14,706300
2102,000000	14,695700
2101,000000	14,676200
2100,000000	14,664700
2099,000000	14,643500
2098,000000	14,625300
2097,000000	14,617800
2096,000000	14,607200
2095,000000	14,598100
2094,000000	14,581300
2093,000000	14,552000
2092,000000	14,532500
2091,000000	14,526400
2090,000000	14,521800
2089,000000	14,512500
2088,000000	14,505700
2087,000000	14,493800
2086,000000	14,478300
2085,000000	14,453800
2084,000000	14,448200
2083,000000	14,427600
2082,000000	14,391700
2081,000000	14,359300
2080,000000	14,316600
2079,000000	14,287600
2078,000000	14,252600
2077,000000	14,220500
2076,000000	14,180800
2075,000000	14,132500
2074,000000	14,082400
2073,000000	14,015900
2072,000000	13,971600
2071,000000	13,929000
2070,000000	13,864000
2069,000000	13,798300
2068,000000	13,728000
2067,000000	13,666300
2066,000000	13,612200
2065,000000	13,549800
2064,000000	13,486500
2063,000000	13,410300
2062,000000	13,344800
2061,000000	13,298600
2060,000000	13,253400
2059,000000	13,194800
2058,000000	13,132500
2057,000000	13,082300
2056,000000	13,053000
2055,000000	13,036500
2054,000000	13,018000
2053,000000	13,005100
2052,000000	13,017700
2051,000000	13,028500
2050,000000	13,049800
2049,000000	13,090500
2048,000000	13,132800
2047,000000	13,156900
2046,000000	13,201200
2045,000000	13,263900
2044,000000	13,327200
2043,000000	13,387000
2042,000000	13,467000
2041,000000	13,534800
2040,000000	13,590600
2039,000000	13,650500
2038,000000	13,716900
2037,000000	13,757200
2036,000000	13,809900
2035,000000	13,871300
2034,000000	13,924000
2033,000000	13,958000
2032,000000	13,997500
2031,000000	14,036700
2030,000000	14,071200
2029,000000	14,094800
2028,000000	14,123900
2027,000000	14,148800
2026,000000	14,137600
2025,000000	14,157400
2024,000000	14,179300
2023,000000	14,192800
2022,000000	14,197100
2021,000000	14,200900
2020,000000	14,210100
2019,000000	14,208300
2018,000000	14,204900
2017,000000	14,201700
2016,000000	14,177200
2015,000000	14,167000
2014,000000	14,167400
2013,000000	14,145400
2012,000000	14,140600
2011,000000	14,117200
2010,000000	14,074800
2009,000000	14,062800
2008,000000	14,030600
2007,000000	13,986100
2006,000000	13,956300
2005,000000	13,934100
2004,000000	13,880700
2003,000000	13,853200
2002,000000	13,801200
2001,000000	13,746800
2000,000000	13,690000
1999,000000	13,653500
1998,000000	13,594700
1997,000000	13,544200
1996,000000	13,484300
1995,000000	13,418900
1994,000000	13,343000
1993,000000	13,295600
1992,000000	13,244700
1991,000000	13,177400
1990,000000	13,098400
1989,000000	13,028000
1988,000000	12,960900
1987,000000	12,909900
1986,000000	12,826900
1985,000000	12,761400
1984,000000	12,689600
1983,000000	12,614400
1982,000000	12,519900
1981,000000	12,453200
1980,000000	12,372900
1979,000000	12,318800
1978,000000	12,238200
1977,000000	12,165100
1976,000000	12,087600
1975,000000	12,004100
1974,000000	11,929500
1973,000000	11,877800
1972,000000	11,812800
1971,000000	11,729800
1970,000000	11,669600
1969,000000	11,589700
1968,000000	11,528200
1967,000000	11,457700
1966,000000	11,398500
1965,000000	11,325300
1964,000000	11,272200
1963,000000	11,200700
1962,000000	11,133200
1961,000000	11,076700
1960,000000	11,016400
1959,000000	10,939500
1958,000000	10,885000
1957,000000	10,839100
1956,000000	10,784500
1955,000000	10,745500
1954,000000	10,675600
1953,000000	10,622500
1952,000000	10,580400
1951,000000	10,520200
1950,000000	10,469700
1949,000000	10,440000
1948,000000	10,366800
1947,000000	10,346500
1946,000000	10,279000
1945,000000	10,277300
1944,000000	10,242000
1943,000000	10,197800
1942,000000	10,186100
1941,000000	10,168100
1940,000000	10,134000
1939,000000	10,118500
1938,000000	10,145000
1937,000000	10,151300
1936,000000	10,145400
1935,000000	10,168600
1934,000000	10,155700
1933,000000	10,175300
1932,000000	10,208500
1931,000000	10,215400
1930,000000	10,271100
1929,000000	10,320600
1928,000000	10,370400
1927,000000	10,457100
1926,000000	10,524500
1925,000000	10,605300
1924,000000	10,666600
1923,000000	10,732700
1922,000000	10,837500
1921,000000	10,928900
1920,000000	11,085200
1919,000000	11,243800
1918,000000	11,326500
1917,000000	11,448100
1916,000000	11,604700
1915,000000	11,694300
1914,000000	11,855200
1913,000000	12,019200
1912,000000	12,245300
1911,000000	12,457800
1910,000000	12,593800
1909,000000	12,812500
1908,000000	12,948700
1907,000000	13,144200
1906,000000	13,387100
1905,000000	13,668400
1904,000000	13,966100
1903,000000	14,233900
1902,000000	14,519000
1901,000000	14,796400
1900,000000	15,084500
1899,000000	15,421300
1898,000000	15,823100
1897,000000	16,158700
1896,000000	16,513200
1895,000000	16,808500
1894,000000	17,113900
1893,000000	17,477200
1892,000000	17,860400
1891,000000	18,310400
1890,000000	18,761200
1889,000000	19,182800
1888,000000	19,605800
1887,000000	20,033300
1886,000000	20,445000
1885,000000	20,872600
1884,000000	21,321900
1883,000000	21,780800
1882,000000	22,218500
1881,000000	22,645900
1880,000000	23,081200
1879,000000	23,477500
1878,000000	23,843800
1877,000000	24,228700
1876,000000	24,602200
1875,000000	24,961100
1874,000000	25,312700
1873,000000	25,652200
1872,000000	25,982800
1871,000000	26,278500
1870,000000	26,559700
1869,000000	26,808400
1868,000000	27,072800
1867,000000	27,237900
1866,000000	27,417300
1865,000000	27,572300
1864,000000	27,732500
1863,000000	27,879500
1862,000000	27,996600
1861,000000	28,149900
1860,000000	28,288700
1859,000000	28,414500
1858,000000	28,511600
1857,000000	28,601500
1856,000000	28,683900
1855,000000	28,731100
1854,000000	28,813300
1853,000000	28,863700
1852,000000	28,893900
1851,000000	28,947400
1850,000000	28,997600
1849,000000	29,049200
1848,000000	29,084500
1847,000000	29,090600
1846,000000	29,065900
1845,000000	29,026800
1844,000000	29,028500
1843,000000	29,043000
1842,000000	29,079700
1841,000000	29,106900
1840,000000	29,088800
1839,000000	29,069500
1838,000000	29,065000
1837,000000	29,056300
1836,000000	29,021900
1835,000000	28,982500
1834,000000	28,949200
1833,000000	28,913100
1832,000000	28,893600
1831,000000	28,868400
1830,000000	28,859200
1829,000000	28,829200
1828,000000	28,792600
1827,000000	28,736700
1826,000000	28,684600
1825,000000	28,644500
1824,000000	28,614000
1823,000000	28,626200
1822,000000	28,648500
1821,000000	28,652100
1820,000000	28,620700
1819,000000	28,579400
1818,000000	28,538100
1817,000000	28,521100
1816,000000	28,524800
1815,000000	28,525300
1814,000000	28,503900
1813,000000	28,494200
1812,000000	28,484300
1811,000000	28,456500
1810,000000	28,453500
1809,000000	28,409000
1808,000000	28,380400
1807,000000	28,378800
1806,000000	28,361700
1805,000000	28,330700
1804,000000	28,294700
1803,000000	28,269800
1802,000000	28,263100
1801,000000	28,239900
1800,000000	28,191200
1799,000000	28,141800
1798,000000	28,109000
1797,000000	28,086800
1796,000000	28,051100
1795,000000	28,033200
1794,000000	28,017900
1793,000000	27,983800
1792,000000	27,956300
1791,000000	27,933800
1790,000000	27,907400
1789,000000	27,875200
1788,000000	27,841900
1787,000000	27,834400
1786,000000	27,818700
1785,000000	27,777900
1784,000000	27,751000
1783,000000	27,724800
1782,000000	27,680300
1781,000000	27,647800
1780,000000	27,626300
1779,000000	27,591900
1778,000000	27,542900
1777,000000	27,494300
1776,000000	27,448200
1775,000000	27,398000
1774,000000	27,349300
1773,000000	27,289900
1772,000000	27,238200
1771,000000	27,198400
1770,000000	27,139800
1769,000000	27,061400
1768,000000	27,001900
1767,000000	26,953600
1766,000000	26,894700
1765,000000	26,841300
1764,000000	26,802900
1763,000000	26,775300
1762,000000	26,766500
1761,000000	26,782500
1760,000000	26,790400
1759,000000	26,822600
1758,000000	26,855700
1757,000000	26,898600
1756,000000	26,942000
1755,000000	26,983000
1754,000000	27,022400
1753,000000	27,052100
1752,000000	27,077500
1751,000000	27,097100
1750,000000	27,110300
1749,000000	27,116400
1748,000000	27,110500
1747,000000	27,095300
1746,000000	27,062700
1745,000000	27,033700
1744,000000	26,968200
1743,000000	26,896700
1742,000000	26,813300
1741,000000	26,724200
1740,000000	26,620900
1739,000000	26,520700
1738,000000	26,409700
1737,000000	26,282400
1736,000000	26,173700
1735,000000	26,083700
1734,000000	25,984100
1733,000000	25,917900
1732,000000	25,872600
1731,000000	25,863600
1730,000000	25,864900
1729,000000	25,879300
1728,000000	25,903500
1727,000000	25,955600
1726,000000	26,011200
1725,000000	26,036200
1724,000000	26,086600
1723,000000	26,131700
1722,000000	26,174700
1721,000000	26,231000
1720,000000	26,287800
1719,000000	26,369900
1718,000000	26,462100
1717,000000	26,532000
1716,000000	26,619900
1715,000000	26,723600
1714,000000	26,830400
1713,000000	26,919300
1712,000000	27,012200
1711,000000	27,098700
1710,000000	27,162500
1709,000000	27,208200
1708,000000	27,279800
1707,000000	27,298300
1706,000000	27,315700
1705,000000	27,328100
1704,000000	27,337600
1703,000000	27,325100
1702,000000	27,302000
1701,000000	27,277900
1700,000000	27,240800
1699,000000	27,197100
1698,000000	27,119500
1697,000000	27,056700
1696,000000	27,018300
1695,000000	26,976500
1694,000000	26,948600
1693,000000	26,958700
1692,000000	26,989100
1691,000000	27,025200
1690,000000	27,096100
1689,000000	27,141500
1688,000000	27,195400
1687,000000	27,258000
1686,000000	27,304600
1685,000000	27,377000
1684,000000	27,461700
1683,000000	27,573600
1682,000000	27,677500
1681,000000	27,867800
1680,000000	28,060900
1679,000000	28,312700
1678,000000	28,561300
1677,000000	28,829900
1676,000000	29,076600
1675,000000	29,344100
1674,000000	29,548500
1673,000000	29,748300
1672,000000	29,927200
1671,000000	30,091300
1670,000000	30,227600
1669,000000	30,347800
1668,000000	30,477200
1667,000000	30,601100
1666,000000	30,695700
1665,000000	30,794700
1664,000000	30,868000
1663,000000	30,932900
1662,000000	31,005900
1661,000000	31,056900
1660,000000	31,100000
1659,000000	31,166800
1658,000000	31,216900
1657,000000	31,225900
1656,000000	31,257300
1655,000000	31,281100
1654,000000	31,273800
1653,000000	31,288000
1652,000000	31,314000
1651,000000	31,315600
1650,000000	31,297900
1649,000000	31,271700
1648,000000	31,265800
1647,000000	31,234300
1646,000000	31,234100
1645,000000	31,203600
1644,000000	31,181000
1643,000000	31,152300
1642,000000	31,113200
1641,000000	31,094500
1640,000000	31,064500
1639,000000	31,011200
1638,000000	30,989000
1637,000000	30,959700
1636,000000	30,906900
1635,000000	30,854500
1634,000000	30,832700
1633,000000	30,769200
1632,000000	30,721200
1631,000000	30,685100
1630,000000	30,621500
1629,000000	30,559600
1628,000000	30,518600
1627,000000	30,476600
1626,000000	30,421700
1625,000000	30,354000
1624,000000	30,313900
1623,000000	30,261100
1622,000000	30,205000
1621,000000	30,148500
1620,000000	30,093500
1619,000000	30,044300
1618,000000	30,003200
1617,000000	29,956800
1616,000000	29,912400
1615,000000	29,843500
1614,000000	29,802700
1613,000000	29,740900
1612,000000	29,697800
1611,000000	29,657800
1610,000000	29,623500
1609,000000	29,559600
1608,000000	29,497300
1607,000000	29,457300
1606,000000	29,408200
1605,000000	29,351800
1604,000000	29,292100
1603,000000	29,236000
1602,000000	29,186700
1601,000000	29,127300
1600,000000	29,065800
1599,000000	29,014900
1598,000000	28,954000
1597,000000	28,905200
1596,000000	28,861500
1595,000000	28,807200
1594,000000	28,754300
1593,000000	28,719200
1592,000000	28,664500
1591,000000	28,609300
1590,000000	28,568800
1589,000000	28,537100
1588,000000	28,481900
1587,000000	28,451800
1586,000000	28,417800
1585,000000	28,370000
1584,000000	28,323000
1583,000000	28,276000
1582,000000	28,242600
1581,000000	28,199900
1580,000000	28,168600
1579,000000	28,131000
1578,000000	28,102400
1577,000000	28,081200
1576,000000	28,048900
1575,000000	28,028000
1574,000000	28,007400
1573,000000	27,979900
1572,000000	27,969200
1571,000000	27,948800
1570,000000	27,939700
1569,000000	27,914600
1568,000000	27,907200
1567,000000	27,894000
1566,000000	27,887000
1565,000000	27,885500
1564,000000	27,867200
1563,000000	27,868000
1562,000000	27,851300
1561,000000	27,842200
1560,000000	27,820500
1559,000000	27,801300
1558,000000	27,784800
1557,000000	27,754400
1556,000000	27,727700
1555,000000	27,685000
1554,000000	27,659100
1553,000000	27,623900
1552,000000	27,581500
1551,000000	27,550400
1550,000000	27,501700
1549,000000	27,454100
1548,000000	27,395100
1547,000000	27,337500
1546,000000	27,300500
1545,000000	27,260500
1544,000000	27,215900
1543,000000	27,172700
1542,000000	27,150700
1541,000000	27,125300
1540,000000	27,082100
1539,000000	27,053800
1538,000000	27,020000
1537,000000	26,985600
1536,000000	26,948700
1535,000000	26,910700
1534,000000	26,876400
1533,000000	26,827100
1532,000000	26,783500
1531,000000	26,754900
1530,000000	26,714600
1529,000000	26,651400
1528,000000	26,593200
1527,000000	26,541700
1526,000000	26,501500
1525,000000	26,462700
1524,000000	26,419700
1523,000000	26,368300
1522,000000	26,311900
1521,000000	26,248200
1520,000000	26,188700
1519,000000	26,147000
1518,000000	26,088500
1517,000000	26,016300
1516,000000	25,966000
1515,000000	25,911100
1514,000000	25,849800
1513,000000	25,781900
1512,000000	25,713000
1511,000000	25,657200
1510,000000	25,602600
1509,000000	25,532100
1508,000000	25,462500
1507,000000	25,409200
1506,000000	25,345500
1505,000000	25,274900
1504,000000	25,220200
1503,000000	25,160600
1502,000000	25,090000
1501,000000	25,025400
1500,000000	24,969500
1499,000000	24,917900
1498,000000	24,852800
1497,000000	24,801100
1496,000000	24,754300
1495,000000	24,699400
1494,000000	24,651100
1493,000000	24,614200
1492,000000	24,581700
1491,000000	24,540500
1490,000000	24,495900
1489,000000	24,455300
1488,000000	24,421000
1487,000000	24,404800
1486,000000	24,380000
1485,000000	24,345600
1484,000000	24,314300
1483,000000	24,280500
1482,000000	24,246100
1481,000000	24,233800
1480,000000	24,218200
1479,000000	24,187600
1478,000000	24,156400
1477,000000	24,135800
1476,000000	24,129800
1475,000000	24,133200
1474,000000	24,134300
1473,000000	24,143400
1472,000000	24,157100
1471,000000	24,155200
1470,000000	24,151200
1469,000000	24,153900
1468,000000	24,149500
1467,000000	24,170400
1466,000000	24,201000
1465,000000	24,206700
1464,000000	24,222000
1463,000000	24,253300
1462,000000	24,265100
1461,000000	24,302500
1460,000000	24,334200
1459,000000	24,374600
1458,000000	24,409600
1457,000000	24,438600
1456,000000	24,491400
1455,000000	24,535500
1454,000000	24,601000
1453,000000	24,642200
1452,000000	24,716500
1451,000000	24,804900
1450,000000	24,855600
1449,000000	24,898500
1448,000000	24,931500
1447,000000	24,997600
1446,000000	25,093400
1445,000000	25,172600
1444,000000	25,215500
1443,000000	25,279300
1442,000000	25,376200
1441,000000	25,446800
1440,000000	25,533900
1439,000000	25,609900
1438,000000	25,692300
1437,000000	25,791300
1436,000000	25,872400
1435,000000	25,958500
1434,000000	26,070000
1433,000000	26,188000
1432,000000	26,291200
1431,000000	26,412200
1430,000000	26,509800
1429,000000	26,619600
1428,000000	26,771400
1427,000000	26,897100
1426,000000	27,046700
1425,000000	27,199500
1424,000000	27,359200
1423,000000	27,530500
1422,000000	27,713000
1421,000000	27,865600
1420,000000	28,045500
1419,000000	28,278400
1418,000000	28,474800
1417,000000	28,648100
1416,000000	28,851800
1415,000000	29,093900
1414,000000	29,357100
1413,000000	29,586000
1412,000000	29,791700
1411,000000	30,045200
1410,000000	30,368400
1409,000000	30,679700
1408,000000	30,973200
1407,000000	31,286600
1406,000000	31,597600
1405,000000	31,922300
1404,000000	32,229900
1403,000000	32,553900
1402,000000	32,890600
1401,000000	33,269000
1400,000000	33,660400
1399,000000	33,960200
1398,000000	34,221100
1397,000000	34,524600
1396,000000	34,904000
1395,000000	35,264200
1394,000000	35,554400
1393,000000	35,820300
1392,000000	36,129100
1391,000000	36,485000
1390,000000	36,799600
1389,000000	37,170700
1388,000000	37,571300
1387,000000	37,972800
1386,000000	38,348500
1385,000000	38,746200
1384,000000	39,229100
1383,000000	39,618500
1382,000000	40,029600
1381,000000	40,381100
1380,000000	40,666000
1379,000000	40,889000
1378,000000	41,132100
1377,000000	41,335100
1376,000000	41,529400
1375,000000	41,694000
1374,000000	41,862100
1373,000000	42,074800
1372,000000	42,330300
1371,000000	42,573100
1370,000000	42,785500
1369,000000	43,002300
1368,000000	43,254800
1367,000000	43,426100
1366,000000	43,595600
1365,000000	43,753500
1364,000000	43,948600
1363,000000	44,068400
1362,000000	44,275000
1361,000000	44,401900
1360,000000	44,453300
1359,000000	44,454200
1358,000000	44,583000
1357,000000	44,687300
1356,000000	44,817700
1355,000000	44,966100
1354,000000	45,132600
1353,000000	45,349100
1352,000000	45,565000
1351,000000	45,894400
1350,000000	46,194800
1349,000000	46,466900
1348,000000	46,775300
1347,000000	47,023800
1346,000000	47,274900
1345,000000	47,490800
1344,000000	47,733600
1343,000000	47,995700
1342,000000	48,242700
1341,000000	48,458500
1340,000000	48,702800
1339,000000	48,929000
1338,000000	49,158300
1337,000000	49,362600
1336,000000	49,599100
1335,000000	49,823100
1334,000000	50,024200
1333,000000	50,252700
1332,000000	50,448800
1331,000000	50,645400
1330,000000	50,845800
1329,000000	51,047300
1328,000000	51,226200
1327,000000	51,402500
1326,000000	51,591800
1325,000000	51,750000
1324,000000	51,931300
1323,000000	52,090800
1322,000000	52,244500
1321,000000	52,415200
1320,000000	52,551900
1319,000000	52,701600
1318,000000	52,832800
1317,000000	52,969300
1316,000000	53,098200
1315,000000	53,235000
1314,000000	53,357100
1313,000000	53,486100
1312,000000	53,578900
1311,000000	53,676100
1310,000000	53,791600
1309,000000	53,901000
1308,000000	53,998700
1307,000000	54,076600
1306,000000	54,158300
1305,000000	54,232500
1304,000000	54,298700
1303,000000	54,362200
1302,000000	54,414100
1301,000000	54,472900
1300,000000	54,528400
1299,000000	54,570500
1298,000000	54,626100
1297,000000	54,658700
1296,000000	54,691800
1295,000000	54,727700
1294,000000	54,767500
1293,000000	54,784900
1292,000000	54,808300
1291,000000	54,833000
1290,000000	54,850500
1289,000000	54,849100
1288,000000	54,843500
1287,000000	54,839900
1286,000000	54,834700
1285,000000	54,830700
1284,000000	54,823600
1283,000000	54,796500
1282,000000	54,771500
1281,000000	54,749700
1280,000000	54,731100
1279,000000	54,702600
1278,000000	54,694400
1277,000000	54,677500
1276,000000	54,651500
1275,000000	54,620200
1274,000000	54,599300
1273,000000	54,580300
1272,000000	54,573300
1271,000000	54,554600
1270,000000	54,547700
1269,000000	54,545600
1268,000000	54,532900
1267,000000	54,517100
1266,000000	54,500100
1265,000000	54,473400
1264,000000	54,457800
1263,000000	54,450100
1262,000000	54,420300
1261,000000	54,389000
1260,000000	54,362500
1259,000000	54,332000
1258,000000	54,308500
1257,000000	54,284000
1256,000000	54,251100
1255,000000	54,205200
1254,000000	54,169400
1253,000000	54,133700
1252,000000	54,086600
1251,000000	54,031300
1250,000000	53,987400
1249,000000	53,940000
1248,000000	53,885200
1247,000000	53,813700
1246,000000	53,749700
1245,000000	53,675300
1244,000000	53,601600
1243,000000	53,523200
1242,000000	53,437700
1241,000000	53,341500
1240,000000	53,248100
1239,000000	53,164700
1238,000000	53,079200
1237,000000	52,985800
1236,000000	52,889900
1235,000000	52,802300
1234,000000	52,712700
1233,000000	52,606500
1232,000000	52,499900
1231,000000	52,400300
1230,000000	52,287900
1229,000000	52,172500
1228,000000	52,064500
1227,000000	51,938400
1226,000000	51,803500
1225,000000	51,687200
1224,000000	51,586700
1223,000000	51,470200
1222,000000	51,335800
1221,000000	51,225400
1220,000000	51,111800
1219,000000	50,983900
1218,000000	50,878300
1217,000000	50,771900
1216,000000	50,666600
1215,000000	50,567900
1214,000000	50,460000
1213,000000	50,357300
1212,000000	50,271300
1211,000000	50,189300
1210,000000	50,104600
1209,000000	50,007800
1208,000000	49,926700
1207,000000	49,847600
1206,000000	49,767400
1205,000000	49,705300
1204,000000	49,658700
1203,000000	49,619900
1202,000000	49,575900
1201,000000	49,539800
1200,000000	49,503900
1199,000000	49,462500
1198,000000	49,413500
1197,000000	49,355900
1196,000000	49,286600
1195,000000	49,187800
1194,000000	49,067000
1193,000000	48,908900
1192,000000	48,727600
1191,000000	48,521800
1190,000000	48,300100
1189,000000	48,081800
1188,000000	47,876500
1187,000000	47,724100
1186,000000	47,632300
1185,000000	47,590400
1184,000000	47,610900
1183,000000	47,693700
1182,000000	47,862200
1181,000000	48,101300
1180,000000	48,365400
1179,000000	48,641200
1178,000000	48,922600
1177,000000	49,201400
1176,000000	49,444500
1175,000000	49,673600
1174,000000	49,887300
1173,000000	50,071500
1172,000000	50,272700
1171,000000	50,487300
1170,000000	50,691500
1169,000000	50,901900
1168,000000	51,132600
1167,000000	51,356800
1166,000000	51,591100
1165,000000	51,824200
1164,000000	52,073600
1163,000000	52,321000
1162,000000	52,585100
1161,000000	52,848900
1160,000000	53,112200
1159,000000	53,379300
1158,000000	53,630400
1157,000000	53,882300
1156,000000	54,130800
1155,000000	54,355900
1154,000000	54,551200
1153,000000	54,749100
1152,000000	54,901400
1151,000000	55,028500
1150,000000	55,154300
1149,000000	55,264300
1148,000000	55,376100
1147,000000	55,490600
1146,000000	55,633200
1145,000000	55,777700
1144,000000	55,955900
1143,000000	56,167000
1142,000000	56,415200
1141,000000	56,701200
1140,000000	56,983000
1139,000000	57,278400
1138,000000	57,595800
1137,000000	57,921000
1136,000000	58,293400
1135,000000	58,646400
1134,000000	59,014400
1133,000000	59,316100
1132,000000	59,603300
1131,000000	59,922200
1130,000000	60,223700
1129,000000	60,453400
1128,000000	60,656500
1127,000000	60,846900
1126,000000	61,003800
1125,000000	61,137000
1124,000000	61,232800
1123,000000	61,328600
1122,000000	61,410100
1121,000000	61,483300
1120,000000	61,517900
1119,000000	61,567700
1118,000000	61,618700
1117,000000	61,650600
1116,000000	61,693200
1115,000000	61,699800
1114,000000	61,722000
1113,000000	61,730000
1112,000000	61,746700
1111,000000	61,743900
1110,000000	61,771700
1109,000000	61,786200
1108,000000	61,796600
1107,000000	61,804300
1106,000000	61,819500
1105,000000	61,833500
1104,000000	61,840600
1103,000000	61,854700
1102,000000	61,854500
1101,000000	61,860600
1100,000000	61,873800
1099,000000	61,881500
1098,000000	61,866000
1097,000000	61,879800
1096,000000	61,878900
1095,000000	61,864400
1094,000000	61,859000
1093,000000	61,857800
1092,000000	61,846300
1091,000000	61,853500
1090,000000	61,838700
1089,000000	61,829900
1088,000000	61,785100
1087,000000	61,788700
1086,000000	61,767700
1085,000000	61,718200
1084,000000	61,698600
1083,000000	61,671500
1082,000000	61,664500
1081,000000	61,632300
1080,000000	61,597400
1079,000000	61,571700
1078,000000	61,549800
1077,000000	61,530700
1076,000000	61,488100
1075,000000	61,453500
1074,000000	61,446400
1073,000000	61,420700
1072,000000	61,401800
1071,000000	61,354200
1070,000000	61,309900
1069,000000	61,307200
1068,000000	61,276900
1067,000000	61,245100
1066,000000	61,228000
1065,000000	61,200800
1064,000000	61,169800
1063,000000	61,158800
1062,000000	61,139700
1061,000000	61,104700
1060,000000	61,080200
1059,000000	61,056300
1058,000000	61,024600
1057,000000	61,003100
1056,000000	60,983700
1055,000000	60,951400
1054,000000	60,924100
1053,000000	60,918800
1052,000000	60,870800
1051,000000	60,860000
1050,000000	60,841200
1049,000000	60,823800
1048,000000	60,808600
1047,000000	60,804900
1046,000000	60,788700
1045,000000	60,774800
1044,000000	60,763500
1043,000000	60,751000
1042,000000	60,763800
1041,000000	60,757900
1040,000000	60,752900
1039,000000	60,758800
1038,000000	60,741100
1037,000000	60,744400
1036,000000	60,753100
1035,000000	60,747300
1034,000000	60,765000
1033,000000	60,769600
1032,000000	60,772300
1031,000000	60,789900
1030,000000	60,792800
1029,000000	60,787900
1028,000000	60,801900
1027,000000	60,830000
1026,000000	60,849300
1025,000000	60,858500
1024,000000	60,864800
1023,000000	60,903300
1022,000000	60,915000
1021,000000	60,971800
1020,000000	61,012500
1019,000000	61,054000
1018,000000	61,087000
1017,000000	61,140400
1016,000000	61,199000
1015,000000	61,243400
1014,000000	61,301200
1013,000000	61,364400
1012,000000	61,422400
1011,000000	61,504800
1010,000000	61,587900
1009,000000	61,673500
1008,000000	61,759800
1007,000000	61,851900
1006,000000	61,959700
1005,000000	62,042700
1004,000000	62,134000
1003,000000	62,221700
1002,000000	62,322200
1001,000000	62,422800
1000,000000	62,508800
999,000000	62,599300
998,000000	62,684400
997,000000	62,775500
996,000000	62,862700
995,000000	62,946000
994,000000	63,050600
993,000000	63,149000
992,000000	63,231900
991,000000	63,342500
990,000000	63,435800
989,000000	63,532200
988,000000	63,637600
987,000000	63,726100
986,000000	63,831400
985,000000	63,949300
984,000000	64,060100
983,000000	64,167600
982,000000	64,296800
981,000000	64,409100
980,000000	64,522900
979,000000	64,648300
978,000000	64,778200
977,000000	64,898900
976,000000	65,011300
975,000000	65,138700
974,000000	65,274700
973,000000	65,419700
972,000000	65,550000
971,000000	65,673800
970,000000	65,810000
969,000000	65,936600
968,000000	66,080100
967,000000	66,235900
966,000000	66,373800
965,000000	66,510600
964,000000	66,667600
963,000000	66,828000
962,000000	66,981300
961,000000	67,124900
960,000000	67,274800
959,000000	67,433500
958,000000	67,589200
957,000000	67,732100
956,000000	67,861900
955,000000	67,995000
954,000000	68,137100
953,000000	68,281900
952,000000	68,427100
951,000000	68,554000
950,000000	68,676100
949,000000	68,809500
948,000000	68,934500
947,000000	69,052500
946,000000	69,178600
945,000000	69,286900
944,000000	69,386600
943,000000	69,506400
942,000000	69,597700
941,000000	69,679900
940,000000	69,777600
939,000000	69,862500
938,000000	69,963600
937,000000	70,053700
936,000000	70,120100
935,000000	70,200600
934,000000	70,294300
933,000000	70,362600
932,000000	70,422800
931,000000	70,489900
930,000000	70,549300
929,000000	70,633300
928,000000	70,699100
927,000000	70,755400
926,000000	70,827800
925,000000	70,911000
924,000000	70,964100
923,000000	71,008900
922,000000	71,073500
921,000000	71,147500
920,000000	71,215000
919,000000	71,260000
918,000000	71,340300
917,000000	71,404500
916,000000	71,455300
915,000000	71,508900
914,000000	71,566700
913,000000	71,642800
912,000000	71,701500
911,000000	71,761100
910,000000	71,825600
909,000000	71,897000
908,000000	71,967500
907,000000	72,042200
906,000000	72,117100
905,000000	72,192200
904,000000	72,264500
903,000000	72,332400
902,000000	72,419800
901,000000	72,499700
900,000000	72,585200
899,000000	72,663100
898,000000	72,733600
897,000000	72,801100
896,000000	72,876200
895,000000	72,962200
894,000000	73,029600
893,000000	73,078900
892,000000	73,137200
891,000000	73,197100
890,000000	73,260700
889,000000	73,322800
888,000000	73,371200
887,000000	73,421600
886,000000	73,463000
885,000000	73,525500
884,000000	73,575400
883,000000	73,623400
882,000000	73,684900
881,000000	73,733600
880,000000	73,781900
879,000000	73,844700
878,000000	73,877400
877,000000	73,901500
876,000000	73,933300
875,000000	73,946500
874,000000	73,941600
873,000000	73,907600
872,000000	73,873900
871,000000	73,873700
870,000000	73,948400
869,000000	74,045700
868,000000	74,184600
867,000000	74,337200
866,000000	74,469400
865,000000	74,598700
864,000000	74,730700
863,000000	74,858300
862,000000	75,005500
861,000000	75,149200
860,000000	75,286800
859,000000	75,421500
858,000000	75,582600
857,000000	76,304700
856,000000	76,513300
855,000000	76,843000
854,000000	77,033000
853,000000	77,438100
852,000000	77,370000
851,000000	76,921500
850,000000	77,470200
849,000000	77,821400
848,000000	78,251200
847,000000	78,354200
846,000000	78,375800
845,000000	78,657800
844,000000	78,415900
843,000000	78,683900
842,000000	78,824100
841,000000	78,990400
840,000000	79,292000
839,000000	79,313900
838,000000	79,572600
837,000000	79,498000
836,000000	79,614300
835,000000	79,769100
834,000000	79,808800
833,000000	79,812600
832,000000	79,812400
831,000000	79,972500
830,000000	80,121600
829,000000	80,208200
828,000000	80,241300
827,000000	80,594600
826,000000	80,537400
825,000000	80,608600
824,000000	80,845700
823,000000	80,992400
822,000000	80,992300
821,000000	81,355100
820,000000	81,471600
819,000000	81,663100
818,000000	81,930200
817,000000	82,015500
816,000000	82,148400
815,000000	82,620200
814,000000	82,506900
813,000000	82,774300
812,000000	83,049200
811,000000	83,164700
810,000000	83,429800
809,000000	83,383000
808,000000	83,532900
807,000000	83,611400
806,000000	83,773200
805,000000	83,925700
804,000000	84,137000
803,000000	83,968700
802,000000	83,978000
801,000000	83,891000
800,000000	84,011300
799,000000	83,942200
798,000000	83,939600
797,000000	83,899400
796,000000	83,764800
795,000000	83,601100
794,000000	83,596500
793,000000	83,480200
792,000000	83,605100
791,000000	83,346400
790,000000	83,494400
789,000000	83,351600
788,000000	83,240200
787,000000	83,366800
786,000000	83,493000
785,000000	83,673900
784,000000	83,566300
783,000000	83,713600
782,000000	83,717800
781,000000	84,096400
780,000000	84,071900
779,000000	84,417400
778,000000	84,522000
777,000000	84,561800
776,000000	84,758600
775,000000	85,024800
774,000000	85,091000
773,000000	85,348400
772,000000	85,384300
771,000000	85,677300
770,000000	85,739900
769,000000	85,859200
768,000000	86,014900
767,000000	86,001900
766,000000	86,061000
765,000000	86,036300
764,000000	86,182400
763,000000	86,104100
762,000000	86,048800
761,000000	85,915800
760,000000	85,742400
759,000000	85,703000
758,000000	85,393800
757,000000	85,248700
756,000000	84,929100
755,000000	84,857400
754,000000	84,686600
753,000000	84,463500
752,000000	84,215000
751,000000	83,980900
750,000000	83,776100
749,000000	83,518700
748,000000	83,262300
747,000000	82,972400
746,000000	82,726300
745,000000	82,474400
744,000000	82,236300
743,000000	81,876800
742,000000	81,631800
741,000000	81,357600
740,000000	81,145100
739,000000	80,764100
738,000000	80,469100
737,000000	80,116900
736,000000	79,895200
735,000000	79,579900
734,000000	79,284900
733,000000	79,057300
732,000000	78,699200
731,000000	78,344500
730,000000	77,979500
729,000000	77,636600
728,000000	77,362000
727,000000	76,913300
726,000000	76,470000
725,000000	76,044400
724,000000	75,637500
723,000000	75,130900
722,000000	74,721600
721,000000	74,263500
720,000000	73,898200
719,000000	73,484100
718,000000	73,089100
717,000000	72,859900
716,000000	72,573200
715,000000	72,295500
714,000000	72,139600
713,000000	71,994600
712,000000	71,898300
711,000000	71,809100
710,000000	71,686600
709,000000	71,627000
708,000000	71,545700
707,000000	71,444900
706,000000	71,403200
705,000000	71,394900
704,000000	71,358500
703,000000	71,277200
702,000000	71,231200
701,000000	71,253900
700,000000	71,251900
699,000000	71,336100
698,000000	71,327500
697,000000	71,340200
696,000000	71,317400
695,000000	71,423800
694,000000	71,515900
693,000000	71,563600
692,000000	71,585200
691,000000	71,506300
690,000000	71,553200
689,000000	71,489700
688,000000	71,375800
687,000000	71,287600
686,000000	71,140600
685,000000	71,061500
684,000000	70,820800
683,000000	70,673800
682,000000	70,556900
681,000000	70,418400
680,000000	70,283900
679,000000	70,137000
678,000000	70,040900
677,000000	69,930100
676,000000	69,749900
675,000000	69,647100
674,000000	69,473200
673,000000	69,210500
672,000000	68,887100
671,000000	68,596700
670,000000	68,256300
669,000000	67,828200
668,000000	67,395800
667,000000	66,894800
666,000000	66,344800
665,000000	65,784300
664,000000	65,241400
663,000000	64,686800
662,000000	64,105000
661,000000	63,565400
660,000000	62,988500
659,000000	62,356200
658,000000	61,746000
657,000000	61,164300
656,000000	60,561300
655,000000	59,899000
654,000000	59,190700
653,000000	58,443100
652,000000	57,722600
651,000000	56,982500
650,000000	56,257400
649,000000	55,573300
648,000000	54,959100
647,000000	54,451900
646,000000	54,002800
645,000000	53,674900
644,000000	53,496300
643,000000	53,470600
642,000000	53,574200
641,000000	53,781300
640,000000	54,114800
639,000000	54,554800
638,000000	55,060900
637,000000	55,651500
636,000000	56,342500
635,000000	57,095800
634,000000	57,922600
633,000000	58,835100
632,000000	59,827700
631,000000	60,859800
630,000000	61,918300
629,000000	63,028400
628,000000	64,137200
627,000000	65,266500
626,000000	66,410200
625,000000	67,520100
624,000000	68,638700
623,000000	69,728600
622,000000	70,775700
621,000000	71,787700
620,000000	72,732000
619,000000	73,608300
618,000000	74,454400
617,000000	75,256200
616,000000	75,997400
615,000000	76,739500
614,000000	77,468200
613,000000	78,163600
612,000000	78,889800
611,000000	79,553800
610,000000	80,194000
609,000000	80,826000
608,000000	81,416900
607,000000	81,990000
606,000000	82,560400
605,000000	83,090200
604,000000	83,583400
603,000000	84,069900
602,000000	84,517700
601,000000	84,898200
600,000000	85,247100
599,000000	85,571300
598,000000	85,927800
597,000000	86,246600
596,000000	86,607300
595,000000	86,945400
594,000000	87,230200
593,000000	87,510400
592,000000	87,751500
591,000000	88,018400
590,000000	88,236700
589,000000	88,420900
588,000000	88,616500
587,000000	88,735200
586,000000	88,888900
585,000000	89,012100
584,000000	89,055400
583,000000	89,121300
582,000000	89,128300
581,000000	89,119500
580,000000	89,119400
579,000000	89,071400
578,000000	89,039700
577,000000	89,016000
576,000000	88,971500
575,000000	88,961300
574,000000	88,869100
573,000000	88,759800
572,000000	88,724800
571,000000	88,619500
570,000000	88,555800
569,000000	88,487600
568,000000	88,373400
567,000000	88,251900
566,000000	88,110800
565,000000	87,903300
564,000000	87,719000
563,000000	87,530800
562,000000	87,308600
561,000000	87,064100
560,000000	86,787800
559,000000	86,444600
558,000000	86,140900
557,000000	85,844400
556,000000	85,466600
555,000000	85,125400
554,000000	84,731700
553,000000	84,360200
552,000000	83,974000
551,000000	83,551700
550,000000	83,097600
549,000000	82,604100
548,000000	82,117700
547,000000	81,615500
546,000000	81,021300
545,000000	80,408400
544,000000	79,815600
543,000000	79,128400
542,000000	78,429600
541,000000	77,688200
540,000000	76,888700
539,000000	76,095200
538,000000	75,239900
537,000000	74,376800
536,000000	73,451700
535,000000	72,423800
534,000000	71,383400
533,000000	70,227900
532,000000	69,037700
531,000000	67,726300
530,000000	66,449800
529,000000	65,044400
528,000000	63,615000
527,000000	62,168800
526,000000	60,637700
525,000000	59,112800
524,000000	57,584700
523,000000	56,016300
522,000000	54,429400
521,000000	52,953500
520,000000	51,463400
519,000000	50,080000
518,000000	48,738500
517,000000	47,444000
516,000000	46,229300
515,000000	45,110400
514,000000	44,072100
513,000000	43,109200
512,000000	42,223900
511,000000	41,424100
510,000000	40,742800
509,000000	40,093500
508,000000	39,497600
507,000000	38,991200
506,000000	38,478200
505,000000	38,017500
504,000000	37,494000
503,000000	37,083900
502,000000	36,616300
501,000000	36,144000
500,000000	35,671300
499,000000	35,209000
498,000000	34,716300
497,000000	34,194800
496,000000	33,670800
495,000000	33,069200
494,000000	32,501300
493,000000	31,970700
492,000000	31,404900
491,000000	30,852500
490,000000	30,288800
489,000000	29,771100
488,000000	29,313100
487,000000	28,903400
486,000000	28,531200
485,000000	28,178700
484,000000	27,923000
483,000000	27,703100
482,000000	27,537100
481,000000	27,371200
480,000000	27,327300
479,000000	27,220400
478,000000	27,212500
477,000000	27,217900
476,000000	27,224500
475,000000	27,231400
474,000000	27,255000
473,000000	27,256200
472,000000	27,280800
471,000000	27,299600
470,000000	27,302200
469,000000	27,274400
468,000000	27,251200
467,000000	27,204600
466,000000	27,166200
465,000000	27,094900
464,000000	27,025600
463,000000	26,937700
462,000000	26,872800
461,000000	26,775200
460,000000	26,667200
459,000000	26,564700
458,000000	26,477500
457,000000	26,330100
456,000000	26,184000
455,000000	26,048400
454,000000	25,858200
453,000000	25,729600
452,000000	25,552500
451,000000	25,399900
450,000000	25,195300
449,000000	24,970100
448,000000	24,741000
447,000000	24,520000
446,000000	24,292100
445,000000	24,002100
444,000000	23,742700
443,000000	23,473600
442,000000	23,165600
441,000000	22,875200
440,000000	22,544600
439,000000	22,201600
438,000000	21,827900
437,000000	21,482700
436,000000	21,089900
435,000000	20,702100
434,000000	20,261500
433,000000	19,842000
432,000000	19,439700
431,000000	18,945100
430,000000	18,495100
429,000000	18,046300
428,000000	17,557000
427,000000	17,062600
426,000000	16,564400
425,000000	16,090700
424,000000	15,592100
423,000000	15,089000
422,000000	14,583100
421,000000	14,114700
420,000000	13,637000
419,000000	13,171100
418,000000	12,724800
417,000000	12,320600
416,000000	11,935700
415,000000	11,521500
414,000000	11,131000
413,000000	10,785600
412,000000	10,457700
411,000000	10,148500
410,000000	9,855100
409,000000	9,584900
408,000000	9,354900
407,000000	9,123300
406,000000	8,909300
405,000000	8,728800
404,000000	8,540400
403,000000	8,371700
402,000000	8,225600
401,000000	8,082000
400,000000	7,957300
399,000000	7,850600
398,000000	7,739000
397,000000	7,619400
396,000000	7,537600
395,000000	7,472500
394,000000	7,391800
393,000000	7,306200
392,000000	7,238500
391,000000	7,171900
390,000000	7,118500
389,000000	7,050800
388,000000	6,991000
387,000000	6,932300
386,000000	6,890300
385,000000	6,854200
384,000000	6,794700
383,000000	6,736900
382,000000	6,689500
381,000000	6,663700
380,000000	6,604800
379,000000	6,568200
378,000000	6,534400
377,000000	6,507900
376,000000	6,463600
375,000000	6,388000
374,000000	6,222400
373,000000	6,036100
372,000000	6,181100
371,000000	6,167800
370,000000	6,148500
369,000000	6,195300
368,000000	6,284000
367,000000	6,043500
366,000000	6,028600
365,000000	6,010300
364,000000	5,950700
363,000000	6,008300
362,000000	5,989900
361,000000	5,958400
360,000000	5,915100
359,000000	5,941700
358,000000	5,953300
357,000000	5,905300
356,000000	5,943100
355,000000	5,856700
354,000000	5,909700
353,000000	6,018500
352,000000	6,043400
351,000000	5,959900
350,000000	5,933800
349,000000	5,844100
348,000000	5,733900
347,000000	5,733400
346,000000	5,698900
345,000000	5,783800
344,000000	5,873100
343,000000	5,727700
342,000000	5,560400
341,000000	5,535500
340,000000	5,488200
339,000000	5,484000
338,000000	5,602300
337,000000	5,659900
336,000000	5,613500
335,000000	5,621300
334,000000	5,679500
333,000000	5,516600
332,000000	5,490200
331,000000	5,634100
330,000000	5,594600
329,000000	5,696700
328,000000	5,903900
327,000000	6,163000
326,000000	6,430100
325,000000	6,339700
324,000000	6,176000
323,000000	6,153300
322,000000	6,556200
321,000000	6,815500
320,000000	6,372000
319,000000	6,076400
318,000000	6,246100
317,000000	6,524500
316,000000	6,017100
315,000000	5,526500
314,000000	5,494700
313,000000	5,488700
312,000000	5,519700
311,000000	5,532300
310,000000	5,527600
309,000000	5,530800
308,000000	5,523600
307,000000	5,475100
306,000000	5,485200
305,000000	5,478300
304,000000	5,476200
303,000000	5,532100
302,000000	5,547800
301,000000	5,520700
300,000000	5,529900
299,000000	5,505700
298,000000	5,547900
297,000000	5,565200
296,000000	5,575400
295,000000	5,560500
294,000000	5,539400
293,000000	5,560600
292,000000	5,562900
291,000000	5,511500
290,000000	5,540100
289,000000	5,553900
288,000000	5,528300
287,000000	5,510700
286,000000	5,542000
285,000000	5,563100
284,000000	5,598200
283,000000	5,638800
282,000000	5,666400
281,000000	5,629300
280,000000	5,582900
279,000000	5,586000
278,000000	5,600700
277,000000	5,604100
276,000000	5,597100
275,000000	5,630200
274,000000	5,615100
273,000000	5,610000
272,000000	5,655700
271,000000	5,711800
270,000000	5,735300
269,000000	5,757600
268,000000	5,738800
267,000000	5,742800
266,000000	5,773300
265,000000	5,753200
264,000000	5,768200
263,000000	5,790500
262,000000	5,828100
261,000000	5,872500
260,000000	5,918100
259,000000	5,951600
258,000000	5,972300
257,000000	5,976900
256,000000	5,949500
255,000000	6,005200
254,000000	5,997600
253,000000	5,965500
252,000000	6,012300
251,000000	5,991900
250,000000	6,022600
