PE UV       SUBTECH     SPECTRUM    ASCII       PEDS        4.00        
   -1
CICIMAUCR0261-3.Sample.ASC
24/07/01
14:00:31.00
24/07/01
14:00:31.00
Vinicio Soto Monge
C. resplendens. Sex M. Dorsal.
250,000000
1
Lambda 1050
1050L1511233
PerkinElmer UV WinLab 6.3.2.0749 / 2.02.05 Lambda 900 UV/VIS/NIR, Aug  7 2015 09:38:08

0
0
3350/servo 860,8/2
0
0
UV/VIS
1
1
1
DoubleDePol,CommonBeamDepol,RBeamAtt,SBeamAtt,60mm sphere, WB InGaAs Detector
0
0
0
0
Program
Program
3350/servo 860,8/2
3350/0,2 860,8/0,2
3350/0,2 860,8/0,2
0
15.00
 
 
 
0
 
860,8
319,2
860,8
Front
100
on
S:100 R:100
0
0
0
0
 
0
 
 
 
0
 
 
0
0
0
0
0
 
 
 
 
0
0


0
0
#HDR
-1
-1
#GR
nm
%R
1.0
0.0
2500,000000
-1,000000
2251
8
92,022100
5,605900
#DATA
2500,000000	9,161400
2499,000000	9,094600
2498,000000	9,074200
2497,000000	9,170000
2496,000000	8,987800
2495,000000	8,983500
2494,000000	8,964900
2493,000000	8,948000
2492,000000	8,875400
2491,000000	8,853300
2490,000000	8,891800
2489,000000	8,987700
2488,000000	8,924800
2487,000000	8,874300
2486,000000	8,905200
2485,000000	8,932100
2484,000000	8,940900
2483,000000	8,908000
2482,000000	8,949400
2481,000000	8,903100
2480,000000	8,798400
2479,000000	8,867500
2478,000000	8,898000
2477,000000	8,863400
2476,000000	8,945700
2475,000000	8,890100
2474,000000	8,909000
2473,000000	8,913400
2472,000000	8,893000
2471,000000	8,915100
2470,000000	8,957300
2469,000000	8,921800
2468,000000	8,923000
2467,000000	8,976800
2466,000000	8,938400
2465,000000	8,997600
2464,000000	9,028700
2463,000000	9,024700
2462,000000	9,039200
2461,000000	9,062700
2460,000000	9,099100
2459,000000	9,113700
2458,000000	9,185100
2457,000000	9,225000
2456,000000	9,246500
2455,000000	9,300500
2454,000000	9,366500
2453,000000	9,384000
2452,000000	9,450300
2451,000000	9,496900
2450,000000	9,559700
2449,000000	9,609600
2448,000000	9,655300
2447,000000	9,720100
2446,000000	9,774100
2445,000000	9,826000
2444,000000	9,893100
2443,000000	9,963500
2442,000000	10,004200
2441,000000	10,083700
2440,000000	10,161600
2439,000000	10,203500
2438,000000	10,263400
2437,000000	10,325900
2436,000000	10,377400
2435,000000	10,441300
2434,000000	10,499000
2433,000000	10,535700
2432,000000	10,591200
2431,000000	10,631000
2430,000000	10,690900
2429,000000	10,729100
2428,000000	10,777500
2427,000000	10,836900
2426,000000	10,881100
2425,000000	10,933400
2424,000000	10,980600
2423,000000	11,022000
2422,000000	11,066700
2421,000000	11,106700
2420,000000	11,137300
2419,000000	11,176500
2418,000000	11,200200
2417,000000	11,235000
2416,000000	11,272000
2415,000000	11,308500
2414,000000	11,347000
2413,000000	11,380900
2412,000000	11,416100
2411,000000	11,425900
2410,000000	11,444600
2409,000000	11,487500
2408,000000	11,532400
2407,000000	11,567100
2406,000000	11,573700
2405,000000	11,591200
2404,000000	11,640100
2403,000000	11,687800
2402,000000	11,729300
2401,000000	11,784000
2400,000000	11,805000
2399,000000	11,829200
2398,000000	11,842900
2397,000000	11,878900
2396,000000	11,909400
2395,000000	11,938300
2394,000000	11,965800
2393,000000	11,977000
2392,000000	12,009200
2391,000000	12,042800
2390,000000	12,059500
2389,000000	12,069700
2388,000000	12,110100
2387,000000	12,132300
2386,000000	12,138700
2385,000000	12,157700
2384,000000	12,179800
2383,000000	12,186000
2382,000000	12,191300
2381,000000	12,200200
2380,000000	12,208400
2379,000000	12,213000
2378,000000	12,208200
2377,000000	12,211400
2376,000000	12,220400
2375,000000	12,210700
2374,000000	12,208300
2373,000000	12,219700
2372,000000	12,210600
2371,000000	12,207700
2370,000000	12,198600
2369,000000	12,185500
2368,000000	12,182600
2367,000000	12,171000
2366,000000	12,149800
2365,000000	12,125800
2364,000000	12,104200
2363,000000	12,073900
2362,000000	12,051900
2361,000000	12,019600
2360,000000	11,993400
2359,000000	11,972800
2358,000000	11,947500
2357,000000	11,931000
2356,000000	11,905400
2355,000000	11,880400
2354,000000	11,865300
2353,000000	11,852300
2352,000000	11,840000
2351,000000	11,837400
2350,000000	11,839100
2349,000000	11,851500
2348,000000	11,865700
2347,000000	11,874800
2346,000000	11,896300
2345,000000	11,921300
2344,000000	11,953800
2343,000000	11,986200
2342,000000	12,001000
2341,000000	12,028100
2340,000000	12,056100
2339,000000	12,077900
2338,000000	12,092600
2337,000000	12,104400
2336,000000	12,123600
2335,000000	12,120000
2334,000000	12,119000
2333,000000	12,124500
2332,000000	12,111200
2331,000000	12,089800
2330,000000	12,069600
2329,000000	12,059400
2328,000000	12,045900
2327,000000	12,008100
2326,000000	11,960400
2325,000000	11,913800
2324,000000	11,869400
2323,000000	11,806100
2322,000000	11,741400
2321,000000	11,694500
2320,000000	11,646500
2319,000000	11,575300
2318,000000	11,482400
2317,000000	11,408500
2316,000000	11,351100
2315,000000	11,275600
2314,000000	11,173000
2313,000000	11,084900
2312,000000	11,015700
2311,000000	10,940100
2310,000000	10,865200
2309,000000	10,801900
2308,000000	10,764000
2307,000000	10,739100
2306,000000	10,701800
2305,000000	10,673500
2304,000000	10,660500
2303,000000	10,674800
2302,000000	10,690500
2301,000000	10,700000
2300,000000	10,753600
2299,000000	10,791000
2298,000000	10,846400
2297,000000	10,906400
2296,000000	10,963300
2295,000000	11,017100
2294,000000	11,083300
2293,000000	11,142100
2292,000000	11,184200
2291,000000	11,216800
2290,000000	11,249300
2289,000000	11,284800
2288,000000	11,308800
2287,000000	11,322600
2286,000000	11,337600
2285,000000	11,324800
2284,000000	11,311900
2283,000000	11,274500
2282,000000	11,262800
2281,000000	11,222500
2280,000000	11,200500
2279,000000	11,155300
2278,000000	11,124500
2277,000000	11,077300
2276,000000	11,038400
2275,000000	11,009000
2274,000000	10,981500
2273,000000	10,947800
2272,000000	10,928100
2271,000000	10,886600
2270,000000	10,908300
2269,000000	10,914600
2268,000000	10,912600
2267,000000	10,949500
2266,000000	10,991400
2265,000000	11,062300
2264,000000	11,161900
2263,000000	11,248000
2262,000000	11,355100
2261,000000	11,473400
2260,000000	11,599600
2259,000000	11,760300
2258,000000	11,902700
2257,000000	12,075200
2256,000000	12,243300
2255,000000	12,416900
2254,000000	12,589800
2253,000000	12,751500
2252,000000	12,920000
2251,000000	13,103900
2250,000000	13,263000
2249,000000	13,378100
2248,000000	13,523800
2247,000000	13,649200
2246,000000	13,786900
2245,000000	13,904300
2244,000000	13,999100
2243,000000	14,109000
2242,000000	14,198400
2241,000000	14,296700
2240,000000	14,367700
2239,000000	14,444400
2238,000000	14,496900
2237,000000	14,553600
2236,000000	14,577400
2235,000000	14,631700
2234,000000	14,680000
2233,000000	14,717100
2232,000000	14,765100
2231,000000	14,753500
2230,000000	14,782200
2229,000000	14,776700
2228,000000	14,799100
2227,000000	14,804200
2226,000000	14,808400
2225,000000	14,772800
2224,000000	14,755800
2223,000000	14,760900
2222,000000	14,754100
2221,000000	14,718600
2220,000000	14,664000
2219,000000	14,651000
2218,000000	14,627100
2217,000000	14,601000
2216,000000	14,571400
2215,000000	14,550400
2214,000000	14,504600
2213,000000	14,487200
2212,000000	14,447000
2211,000000	14,429400
2210,000000	14,411000
2209,000000	14,381900
2208,000000	14,359800
2207,000000	14,334800
2206,000000	14,312400
2205,000000	14,295600
2204,000000	14,297600
2203,000000	14,253300
2202,000000	14,256100
2201,000000	14,239500
2200,000000	14,234600
2199,000000	14,219800
2198,000000	14,198900
2197,000000	14,212600
2196,000000	14,191400
2195,000000	14,191300
2194,000000	14,175100
2193,000000	14,173700
2192,000000	14,153900
2191,000000	14,143600
2190,000000	14,142700
2189,000000	14,143500
2188,000000	14,130300
2187,000000	14,121700
2186,000000	14,097200
2185,000000	14,072200
2184,000000	14,103000
2183,000000	14,094300
2182,000000	14,087700
2181,000000	14,076500
2180,000000	14,070200
2179,000000	14,064900
2178,000000	14,065900
2177,000000	14,052500
2176,000000	14,037800
2175,000000	14,060200
2174,000000	14,051700
2173,000000	14,046500
2172,000000	14,061800
2171,000000	14,057700
2170,000000	14,073800
2169,000000	14,095700
2168,000000	14,095000
2167,000000	14,107100
2166,000000	14,128300
2165,000000	14,140400
2164,000000	14,178700
2163,000000	14,201400
2162,000000	14,228100
2161,000000	14,241500
2160,000000	14,270800
2159,000000	14,300900
2158,000000	14,333700
2157,000000	14,376500
2156,000000	14,419800
2155,000000	14,454000
2154,000000	14,492300
2153,000000	14,522800
2152,000000	14,576300
2151,000000	14,621700
2150,000000	14,662500
2149,000000	14,705000
2148,000000	14,744600
2147,000000	14,763300
2146,000000	14,825500
2145,000000	14,886700
2144,000000	14,915300
2143,000000	14,954000
2142,000000	14,981700
2141,000000	15,020600
2140,000000	15,068100
2139,000000	15,097100
2138,000000	15,145100
2137,000000	15,174700
2136,000000	15,195800
2135,000000	15,228100
2134,000000	15,251900
2133,000000	15,264400
2132,000000	15,293400
2131,000000	15,318900
2130,000000	15,317900
2129,000000	15,335600
2128,000000	15,353800
2127,000000	15,360900
2126,000000	15,369800
2125,000000	15,379700
2124,000000	15,384100
2123,000000	15,392400
2122,000000	15,388900
2121,000000	15,387900
2120,000000	15,385600
2119,000000	15,379500
2118,000000	15,364200
2117,000000	15,354000
2116,000000	15,357800
2115,000000	15,329300
2114,000000	15,313600
2113,000000	15,299500
2112,000000	15,271400
2111,000000	15,255700
2110,000000	15,246600
2109,000000	15,228200
2108,000000	15,209700
2107,000000	15,179900
2106,000000	15,151600
2105,000000	15,131500
2104,000000	15,110800
2103,000000	15,083600
2102,000000	15,055000
2101,000000	15,033500
2100,000000	15,010000
2099,000000	14,982100
2098,000000	14,963400
2097,000000	14,938300
2096,000000	14,930200
2095,000000	14,908500
2094,000000	14,879300
2093,000000	14,861800
2092,000000	14,838700
2091,000000	14,828300
2090,000000	14,809100
2089,000000	14,788800
2088,000000	14,769000
2087,000000	14,744500
2086,000000	14,723700
2085,000000	14,708300
2084,000000	14,677800
2083,000000	14,655700
2082,000000	14,632700
2081,000000	14,585800
2080,000000	14,546400
2079,000000	14,530300
2078,000000	14,498400
2077,000000	14,446000
2076,000000	14,411600
2075,000000	14,375900
2074,000000	14,314400
2073,000000	14,267200
2072,000000	14,230700
2071,000000	14,181300
2070,000000	14,122700
2069,000000	14,079200
2068,000000	14,028600
2067,000000	13,967400
2066,000000	13,923800
2065,000000	13,886900
2064,000000	13,828400
2063,000000	13,773200
2062,000000	13,730500
2061,000000	13,696900
2060,000000	13,654200
2059,000000	13,605400
2058,000000	13,574700
2057,000000	13,554000
2056,000000	13,516300
2055,000000	13,490100
2054,000000	13,482700
2053,000000	13,477000
2052,000000	13,480900
2051,000000	13,496600
2050,000000	13,509100
2049,000000	13,530300
2048,000000	13,570800
2047,000000	13,609100
2046,000000	13,634700
2045,000000	13,668100
2044,000000	13,714600
2043,000000	13,772400
2042,000000	13,811900
2041,000000	13,863500
2040,000000	13,920300
2039,000000	13,959100
2038,000000	13,996100
2037,000000	14,043400
2036,000000	14,083700
2035,000000	14,107900
2034,000000	14,139400
2033,000000	14,162900
2032,000000	14,189000
2031,000000	14,214600
2030,000000	14,228300
2029,000000	14,263000
2028,000000	14,273400
2027,000000	14,289100
2026,000000	14,292800
2025,000000	14,291400
2024,000000	14,315000
2023,000000	14,316100
2022,000000	14,307400
2021,000000	14,313900
2020,000000	14,313600
2019,000000	14,311400
2018,000000	14,300700
2017,000000	14,283900
2016,000000	14,282000
2015,000000	14,271900
2014,000000	14,260900
2013,000000	14,231000
2012,000000	14,213600
2011,000000	14,201400
2010,000000	14,174700
2009,000000	14,135900
2008,000000	14,131300
2007,000000	14,088800
2006,000000	14,051700
2005,000000	14,011400
2004,000000	13,993500
2003,000000	13,952000
2002,000000	13,891700
2001,000000	13,844600
2000,000000	13,812200
1999,000000	13,773600
1998,000000	13,715400
1997,000000	13,656900
1996,000000	13,599600
1995,000000	13,547300
1994,000000	13,484500
1993,000000	13,446300
1992,000000	13,376400
1991,000000	13,315100
1990,000000	13,245700
1989,000000	13,212500
1988,000000	13,135900
1987,000000	13,060400
1986,000000	13,001200
1985,000000	12,937200
1984,000000	12,847200
1983,000000	12,794800
1982,000000	12,725800
1981,000000	12,662500
1980,000000	12,605500
1979,000000	12,529300
1978,000000	12,471900
1977,000000	12,386400
1976,000000	12,322900
1975,000000	12,268800
1974,000000	12,198700
1973,000000	12,155800
1972,000000	12,076900
1971,000000	12,023200
1970,000000	11,950300
1969,000000	11,881500
1968,000000	11,811700
1967,000000	11,764900
1966,000000	11,695100
1965,000000	11,630600
1964,000000	11,576300
1963,000000	11,525000
1962,000000	11,478200
1961,000000	11,410300
1960,000000	11,350100
1959,000000	11,289300
1958,000000	11,220000
1957,000000	11,167700
1956,000000	11,110500
1955,000000	11,064500
1954,000000	11,015500
1953,000000	10,957400
1952,000000	10,905800
1951,000000	10,860400
1950,000000	10,818800
1949,000000	10,756900
1948,000000	10,715500
1947,000000	10,675300
1946,000000	10,639100
1945,000000	10,612800
1944,000000	10,586600
1943,000000	10,554300
1942,000000	10,503900
1941,000000	10,508300
1940,000000	10,487400
1939,000000	10,456800
1938,000000	10,453400
1937,000000	10,466700
1936,000000	10,429500
1935,000000	10,460400
1934,000000	10,459000
1933,000000	10,446700
1932,000000	10,470100
1931,000000	10,509300
1930,000000	10,542000
1929,000000	10,592500
1928,000000	10,630200
1927,000000	10,675700
1926,000000	10,748500
1925,000000	10,796500
1924,000000	10,864300
1923,000000	10,941300
1922,000000	11,025400
1921,000000	11,110300
1920,000000	11,230400
1919,000000	11,342800
1918,000000	11,444200
1917,000000	11,546700
1916,000000	11,649700
1915,000000	11,781300
1914,000000	11,916400
1913,000000	12,057200
1912,000000	12,243500
1911,000000	12,402000
1910,000000	12,560300
1909,000000	12,714400
1908,000000	12,866000
1907,000000	13,030700
1906,000000	13,241500
1905,000000	13,456200
1904,000000	13,715300
1903,000000	13,948500
1902,000000	14,169300
1901,000000	14,408600
1900,000000	14,658600
1899,000000	14,939100
1898,000000	15,243900
1897,000000	15,559000
1896,000000	15,830500
1895,000000	16,084500
1894,000000	16,362100
1893,000000	16,660600
1892,000000	16,979800
1891,000000	17,357700
1890,000000	17,754800
1889,000000	18,133400
1888,000000	18,505900
1887,000000	18,891400
1886,000000	19,274500
1885,000000	19,655000
1884,000000	20,074400
1883,000000	20,507600
1882,000000	20,974700
1881,000000	21,374100
1880,000000	21,804100
1879,000000	22,171100
1878,000000	22,536600
1877,000000	22,945300
1876,000000	23,308000
1875,000000	23,672000
1874,000000	24,046400
1873,000000	24,401500
1872,000000	24,726600
1871,000000	25,036100
1870,000000	25,329900
1869,000000	25,588600
1868,000000	25,844700
1867,000000	26,025600
1866,000000	26,197300
1865,000000	26,330600
1864,000000	26,460300
1863,000000	26,584300
1862,000000	26,723900
1861,000000	26,864900
1860,000000	27,020800
1859,000000	27,149200
1858,000000	27,259500
1857,000000	27,357200
1856,000000	27,444400
1855,000000	27,506900
1854,000000	27,562900
1853,000000	27,596700
1852,000000	27,626800
1851,000000	27,679900
1850,000000	27,718600
1849,000000	27,739900
1848,000000	27,797800
1847,000000	27,839800
1846,000000	27,821500
1845,000000	27,789500
1844,000000	27,785700
1843,000000	27,778200
1842,000000	27,814000
1841,000000	27,857000
1840,000000	27,872700
1839,000000	27,867000
1838,000000	27,858300
1837,000000	27,844700
1836,000000	27,829800
1835,000000	27,810600
1834,000000	27,755200
1833,000000	27,702800
1832,000000	27,668000
1831,000000	27,647400
1830,000000	27,629900
1829,000000	27,604200
1828,000000	27,571700
1827,000000	27,517700
1826,000000	27,471100
1825,000000	27,447500
1824,000000	27,404500
1823,000000	27,363200
1822,000000	27,375100
1821,000000	27,384800
1820,000000	27,364600
1819,000000	27,345400
1818,000000	27,306500
1817,000000	27,272900
1816,000000	27,257100
1815,000000	27,246500
1814,000000	27,233500
1813,000000	27,220300
1812,000000	27,209100
1811,000000	27,192100
1810,000000	27,163000
1809,000000	27,132600
1808,000000	27,104900
1807,000000	27,079600
1806,000000	27,057000
1805,000000	27,019400
1804,000000	26,972500
1803,000000	26,945400
1802,000000	26,921500
1801,000000	26,892700
1800,000000	26,859400
1799,000000	26,814700
1798,000000	26,770900
1797,000000	26,734200
1796,000000	26,694900
1795,000000	26,661500
1794,000000	26,628600
1793,000000	26,587800
1792,000000	26,549800
1791,000000	26,513900
1790,000000	26,485500
1789,000000	26,458400
1788,000000	26,432200
1787,000000	26,405400
1786,000000	26,372200
1785,000000	26,332200
1784,000000	26,271400
1783,000000	26,226600
1782,000000	26,191900
1781,000000	26,146900
1780,000000	26,105500
1779,000000	26,067600
1778,000000	26,021200
1777,000000	25,980600
1776,000000	25,936100
1775,000000	25,865300
1774,000000	25,802300
1773,000000	25,756300
1772,000000	25,691700
1771,000000	25,627000
1770,000000	25,571100
1769,000000	25,509700
1768,000000	25,447700
1767,000000	25,388000
1766,000000	25,307500
1765,000000	25,263100
1764,000000	25,215600
1763,000000	25,180100
1762,000000	25,169600
1761,000000	25,166600
1760,000000	25,174200
1759,000000	25,206600
1758,000000	25,241000
1757,000000	25,271500
1756,000000	25,315800
1755,000000	25,354300
1754,000000	25,381500
1753,000000	25,415200
1752,000000	25,440300
1751,000000	25,443900
1750,000000	25,451900
1749,000000	25,459900
1748,000000	25,447500
1747,000000	25,422500
1746,000000	25,386400
1745,000000	25,349500
1744,000000	25,304500
1743,000000	25,249900
1742,000000	25,171000
1741,000000	25,073500
1740,000000	24,969100
1739,000000	24,864400
1738,000000	24,751900
1737,000000	24,640600
1736,000000	24,532500
1735,000000	24,426900
1734,000000	24,355900
1733,000000	24,318000
1732,000000	24,283100
1731,000000	24,273200
1730,000000	24,289800
1729,000000	24,323100
1728,000000	24,365600
1727,000000	24,396200
1726,000000	24,453800
1725,000000	24,520800
1724,000000	24,564500
1723,000000	24,604200
1722,000000	24,653000
1721,000000	24,702700
1720,000000	24,754400
1719,000000	24,807900
1718,000000	24,883200
1717,000000	24,940300
1716,000000	24,995800
1715,000000	25,067300
1714,000000	25,151100
1713,000000	25,223700
1712,000000	25,306800
1711,000000	25,352900
1710,000000	25,427600
1709,000000	25,467500
1708,000000	25,524600
1707,000000	25,525900
1706,000000	25,533700
1705,000000	25,527600
1704,000000	25,510000
1703,000000	25,497700
1702,000000	25,448400
1701,000000	25,402700
1700,000000	25,343000
1699,000000	25,259800
1698,000000	25,186900
1697,000000	25,134900
1696,000000	25,041600
1695,000000	24,996000
1694,000000	24,979600
1693,000000	24,992100
1692,000000	25,014600
1691,000000	25,072500
1690,000000	25,137000
1689,000000	25,237800
1688,000000	25,315400
1687,000000	25,387300
1686,000000	25,440900
1685,000000	25,501900
1684,000000	25,580500
1683,000000	25,649300
1682,000000	25,758800
1681,000000	25,963300
1680,000000	26,175900
1679,000000	26,442100
1678,000000	26,701600
1677,000000	27,005600
1676,000000	27,291500
1675,000000	27,552900
1674,000000	27,771100
1673,000000	28,017200
1672,000000	28,204500
1671,000000	28,349400
1670,000000	28,503700
1669,000000	28,637500
1668,000000	28,748100
1667,000000	28,850300
1666,000000	28,938900
1665,000000	29,019900
1664,000000	29,098700
1663,000000	29,153600
1662,000000	29,216300
1661,000000	29,286600
1660,000000	29,337900
1659,000000	29,370500
1658,000000	29,402000
1657,000000	29,435200
1656,000000	29,472500
1655,000000	29,467700
1654,000000	29,470900
1653,000000	29,462600
1652,000000	29,460600
1651,000000	29,460200
1650,000000	29,442600
1649,000000	29,406900
1648,000000	29,388700
1647,000000	29,356800
1646,000000	29,321500
1645,000000	29,301700
1644,000000	29,272000
1643,000000	29,232800
1642,000000	29,194100
1641,000000	29,156400
1640,000000	29,117500
1639,000000	29,066000
1638,000000	29,044800
1637,000000	28,997400
1636,000000	28,948900
1635,000000	28,902100
1634,000000	28,837700
1633,000000	28,805400
1632,000000	28,736100
1631,000000	28,684500
1630,000000	28,632100
1629,000000	28,576700
1628,000000	28,529600
1627,000000	28,468500
1626,000000	28,403000
1625,000000	28,343700
1624,000000	28,285800
1623,000000	28,245000
1622,000000	28,200200
1621,000000	28,125400
1620,000000	28,070800
1619,000000	28,020500
1618,000000	27,986700
1617,000000	27,925100
1616,000000	27,874500
1615,000000	27,844700
1614,000000	27,792700
1613,000000	27,736100
1612,000000	27,685300
1611,000000	27,640200
1610,000000	27,602400
1609,000000	27,543400
1608,000000	27,494200
1607,000000	27,450600
1606,000000	27,402200
1605,000000	27,334600
1604,000000	27,281200
1603,000000	27,236200
1602,000000	27,196600
1601,000000	27,125200
1600,000000	27,077400
1599,000000	27,038500
1598,000000	26,998100
1597,000000	26,941800
1596,000000	26,885000
1595,000000	26,841000
1594,000000	26,800200
1593,000000	26,766200
1592,000000	26,725800
1591,000000	26,679700
1590,000000	26,635700
1589,000000	26,598600
1588,000000	26,555500
1587,000000	26,506500
1586,000000	26,489600
1585,000000	26,450700
1584,000000	26,404500
1583,000000	26,365800
1582,000000	26,333500
1581,000000	26,310600
1580,000000	26,281200
1579,000000	26,265900
1578,000000	26,237300
1577,000000	26,204400
1576,000000	26,184200
1575,000000	26,168400
1574,000000	26,144100
1573,000000	26,128100
1572,000000	26,120800
1571,000000	26,109100
1570,000000	26,087200
1569,000000	26,067800
1568,000000	26,064700
1567,000000	26,057400
1566,000000	26,060900
1565,000000	26,055600
1564,000000	26,044600
1563,000000	26,024000
1562,000000	26,012000
1561,000000	26,012800
1560,000000	25,989700
1559,000000	25,975900
1558,000000	25,963300
1557,000000	25,927800
1556,000000	25,904300
1555,000000	25,875100
1554,000000	25,853700
1553,000000	25,816100
1552,000000	25,784400
1551,000000	25,752200
1550,000000	25,710200
1549,000000	25,652600
1548,000000	25,618600
1547,000000	25,589200
1546,000000	25,543500
1545,000000	25,501500
1544,000000	25,467900
1543,000000	25,424500
1542,000000	25,387700
1541,000000	25,348300
1540,000000	25,322300
1539,000000	25,284100
1538,000000	25,245900
1537,000000	25,218800
1536,000000	25,185500
1535,000000	25,154100
1534,000000	25,108700
1533,000000	25,077900
1532,000000	25,038900
1531,000000	24,985400
1530,000000	24,941700
1529,000000	24,908300
1528,000000	24,859600
1527,000000	24,805500
1526,000000	24,760100
1525,000000	24,711900
1524,000000	24,661200
1523,000000	24,598900
1522,000000	24,541900
1521,000000	24,499000
1520,000000	24,444200
1519,000000	24,394400
1518,000000	24,347800
1517,000000	24,286800
1516,000000	24,231400
1515,000000	24,171600
1514,000000	24,114900
1513,000000	24,064900
1512,000000	24,011800
1511,000000	23,944900
1510,000000	23,885300
1509,000000	23,833300
1508,000000	23,783100
1507,000000	23,730700
1506,000000	23,667200
1505,000000	23,610000
1504,000000	23,551200
1503,000000	23,495300
1502,000000	23,439600
1501,000000	23,376500
1500,000000	23,330800
1499,000000	23,293700
1498,000000	23,244600
1497,000000	23,199300
1496,000000	23,158700
1495,000000	23,116900
1494,000000	23,078100
1493,000000	23,044500
1492,000000	23,007300
1491,000000	22,971800
1490,000000	22,953900
1489,000000	22,926200
1488,000000	22,891900
1487,000000	22,874500
1486,000000	22,853700
1485,000000	22,813200
1484,000000	22,775600
1483,000000	22,768900
1482,000000	22,751000
1481,000000	22,728800
1480,000000	22,715300
1479,000000	22,699700
1478,000000	22,694500
1477,000000	22,699900
1476,000000	22,684700
1475,000000	22,665600
1474,000000	22,664000
1473,000000	22,659900
1472,000000	22,675400
1471,000000	22,695700
1470,000000	22,689400
1469,000000	22,691000
1468,000000	22,700600
1467,000000	22,702000
1466,000000	22,713800
1465,000000	22,739000
1464,000000	22,742500
1463,000000	22,744800
1462,000000	22,774300
1461,000000	22,800100
1460,000000	22,821900
1459,000000	22,846200
1458,000000	22,882400
1457,000000	22,923800
1456,000000	22,959200
1455,000000	22,993200
1454,000000	23,049500
1453,000000	23,097100
1452,000000	23,150100
1451,000000	23,215600
1450,000000	23,278600
1449,000000	23,335000
1448,000000	23,371900
1447,000000	23,411100
1446,000000	23,492100
1445,000000	23,571900
1444,000000	23,643400
1443,000000	23,679100
1442,000000	23,727800
1441,000000	23,818900
1440,000000	23,886400
1439,000000	23,968100
1438,000000	24,044200
1437,000000	24,140000
1436,000000	24,195100
1435,000000	24,281500
1434,000000	24,385800
1433,000000	24,485500
1432,000000	24,588100
1431,000000	24,689000
1430,000000	24,803400
1429,000000	24,899900
1428,000000	25,040300
1427,000000	25,183000
1426,000000	25,275400
1425,000000	25,447500
1424,000000	25,600000
1423,000000	25,780500
1422,000000	25,902200
1421,000000	26,100200
1420,000000	26,280700
1419,000000	26,495100
1418,000000	26,706700
1417,000000	26,885100
1416,000000	27,052900
1415,000000	27,294200
1414,000000	27,543600
1413,000000	27,801400
1412,000000	28,026100
1411,000000	28,269200
1410,000000	28,530900
1409,000000	28,846900
1408,000000	29,156500
1407,000000	29,466800
1406,000000	29,783000
1405,000000	30,101900
1404,000000	30,446900
1403,000000	30,737300
1402,000000	31,081000
1401,000000	31,453100
1400,000000	31,841400
1399,000000	32,205900
1398,000000	32,486600
1397,000000	32,752400
1396,000000	33,109400
1395,000000	33,499400
1394,000000	33,860000
1393,000000	34,122200
1392,000000	34,426500
1391,000000	34,787700
1390,000000	35,136300
1389,000000	35,470800
1388,000000	35,867700
1387,000000	36,309400
1386,000000	36,697200
1385,000000	37,128100
1384,000000	37,582800
1383,000000	38,023000
1382,000000	38,480800
1381,000000	38,890600
1380,000000	39,230200
1379,000000	39,392200
1378,000000	39,692000
1377,000000	39,866100
1376,000000	40,054400
1375,000000	40,243900
1374,000000	40,428200
1373,000000	40,616300
1372,000000	40,884000
1371,000000	41,101700
1370,000000	41,349700
1369,000000	41,572800
1368,000000	41,794200
1367,000000	41,991100
1366,000000	42,173800
1365,000000	42,345900
1364,000000	42,500600
1363,000000	42,640700
1362,000000	42,807700
1361,000000	42,948500
1360,000000	43,048400
1359,000000	43,106800
1358,000000	43,168700
1357,000000	43,231600
1356,000000	43,320400
1355,000000	43,468000
1354,000000	43,667100
1353,000000	43,877100
1352,000000	44,074800
1351,000000	44,355700
1350,000000	44,647600
1349,000000	44,910700
1348,000000	45,176700
1347,000000	45,412600
1346,000000	45,653300
1345,000000	45,860000
1344,000000	46,098000
1343,000000	46,334700
1342,000000	46,573100
1341,000000	46,765300
1340,000000	47,005700
1339,000000	47,215100
1338,000000	47,417700
1337,000000	47,641300
1336,000000	47,859500
1335,000000	48,051400
1334,000000	48,248800
1333,000000	48,439700
1332,000000	48,638600
1331,000000	48,829900
1330,000000	49,017600
1329,000000	49,179400
1328,000000	49,346900
1327,000000	49,521100
1326,000000	49,680700
1325,000000	49,832800
1324,000000	49,994800
1323,000000	50,151500
1322,000000	50,281000
1321,000000	50,413800
1320,000000	50,548800
1319,000000	50,682600
1318,000000	50,800200
1317,000000	50,914000
1316,000000	51,045100
1315,000000	51,146400
1314,000000	51,265400
1313,000000	51,369000
1312,000000	51,471400
1311,000000	51,568300
1310,000000	51,664100
1309,000000	51,743000
1308,000000	51,819600
1307,000000	51,887000
1306,000000	51,956200
1305,000000	52,027500
1304,000000	52,090400
1303,000000	52,141300
1302,000000	52,197300
1301,000000	52,247400
1300,000000	52,298700
1299,000000	52,332300
1298,000000	52,347900
1297,000000	52,369800
1296,000000	52,389800
1295,000000	52,419200
1294,000000	52,442500
1293,000000	52,448400
1292,000000	52,459400
1291,000000	52,458800
1290,000000	52,462900
1289,000000	52,465200
1288,000000	52,450900
1287,000000	52,434100
1286,000000	52,422900
1285,000000	52,397700
1284,000000	52,389000
1283,000000	52,355200
1282,000000	52,322400
1281,000000	52,291700
1280,000000	52,249700
1279,000000	52,221800
1278,000000	52,182400
1277,000000	52,134500
1276,000000	52,103200
1275,000000	52,084500
1274,000000	52,063900
1273,000000	52,015500
1272,000000	51,975600
1271,000000	51,959000
1270,000000	51,933300
1269,000000	51,904500
1268,000000	51,876500
1267,000000	51,848800
1266,000000	51,822500
1265,000000	51,796900
1264,000000	51,765300
1263,000000	51,740700
1262,000000	51,709000
1261,000000	51,666200
1260,000000	51,635100
1259,000000	51,608900
1258,000000	51,565400
1257,000000	51,519900
1256,000000	51,493600
1255,000000	51,449600
1254,000000	51,420600
1253,000000	51,398400
1252,000000	51,332600
1251,000000	51,284900
1250,000000	51,248900
1249,000000	51,200500
1248,000000	51,149100
1247,000000	51,076300
1246,000000	51,019200
1245,000000	50,964900
1244,000000	50,895800
1243,000000	50,826800
1242,000000	50,752100
1241,000000	50,668600
1240,000000	50,600800
1239,000000	50,527800
1238,000000	50,451600
1237,000000	50,381100
1236,000000	50,302500
1235,000000	50,216700
1234,000000	50,126000
1233,000000	50,038200
1232,000000	49,951300
1231,000000	49,844600
1230,000000	49,738900
1229,000000	49,641100
1228,000000	49,539700
1227,000000	49,436100
1226,000000	49,322800
1225,000000	49,209800
1224,000000	49,096800
1223,000000	48,990800
1222,000000	48,873100
1221,000000	48,760900
1220,000000	48,654700
1219,000000	48,534100
1218,000000	48,404000
1217,000000	48,291100
1216,000000	48,194900
1215,000000	48,099000
1214,000000	48,001000
1213,000000	47,887700
1212,000000	47,774700
1211,000000	47,677800
1210,000000	47,579400
1209,000000	47,475200
1208,000000	47,379200
1207,000000	47,289000
1206,000000	47,205300
1205,000000	47,121400
1204,000000	47,051800
1203,000000	46,988500
1202,000000	46,927500
1201,000000	46,879100
1200,000000	46,819500
1199,000000	46,765600
1198,000000	46,705000
1197,000000	46,628500
1196,000000	46,525500
1195,000000	46,431700
1194,000000	46,314200
1193,000000	46,149000
1192,000000	45,963700
1191,000000	45,758500
1190,000000	45,527300
1189,000000	45,311200
1188,000000	45,099100
1187,000000	44,925200
1186,000000	44,805300
1185,000000	44,750800
1184,000000	44,760400
1183,000000	44,830700
1182,000000	44,962000
1181,000000	45,144700
1180,000000	45,367700
1179,000000	45,619600
1178,000000	45,873200
1177,000000	46,102700
1176,000000	46,326500
1175,000000	46,519500
1174,000000	46,692800
1173,000000	46,854500
1172,000000	47,019800
1171,000000	47,189700
1170,000000	47,369400
1169,000000	47,541600
1168,000000	47,710600
1167,000000	47,902000
1166,000000	48,075400
1165,000000	48,265200
1164,000000	48,458700
1163,000000	48,663500
1162,000000	48,865200
1161,000000	49,058200
1160,000000	49,251800
1159,000000	49,461300
1158,000000	49,645300
1157,000000	49,838600
1156,000000	50,003200
1155,000000	50,166800
1154,000000	50,317700
1153,000000	50,462700
1152,000000	50,562500
1151,000000	50,649700
1150,000000	50,734500
1149,000000	50,800000
1148,000000	50,867200
1147,000000	50,935100
1146,000000	51,011100
1145,000000	51,122400
1144,000000	51,243500
1143,000000	51,378600
1142,000000	51,537700
1141,000000	51,702700
1140,000000	51,913000
1139,000000	52,107200
1138,000000	52,304300
1137,000000	52,525300
1136,000000	52,757500
1135,000000	53,006400
1134,000000	53,226600
1133,000000	53,465100
1132,000000	53,637200
1131,000000	53,827100
1130,000000	53,976500
1129,000000	54,129900
1128,000000	54,247100
1127,000000	54,342100
1126,000000	54,417200
1125,000000	54,494300
1124,000000	54,526800
1123,000000	54,597400
1122,000000	54,610600
1121,000000	54,625300
1120,000000	54,627300
1119,000000	54,621300
1118,000000	54,612300
1117,000000	54,619900
1116,000000	54,613700
1115,000000	54,586200
1114,000000	54,572600
1113,000000	54,514700
1112,000000	54,491700
1111,000000	54,470400
1110,000000	54,444700
1109,000000	54,408800
1108,000000	54,382300
1107,000000	54,358000
1106,000000	54,328600
1105,000000	54,286400
1104,000000	54,252200
1103,000000	54,221500
1102,000000	54,175700
1101,000000	54,166200
1100,000000	54,116900
1099,000000	54,096600
1098,000000	54,037200
1097,000000	54,011000
1096,000000	53,948900
1095,000000	53,923900
1094,000000	53,859400
1093,000000	53,802600
1092,000000	53,749700
1091,000000	53,705800
1090,000000	53,662900
1089,000000	53,604500
1088,000000	53,540900
1087,000000	53,491600
1086,000000	53,448200
1085,000000	53,404700
1084,000000	53,325200
1083,000000	53,280300
1082,000000	53,210100
1081,000000	53,169700
1080,000000	53,124900
1079,000000	53,047500
1078,000000	53,021700
1077,000000	52,954500
1076,000000	52,890700
1075,000000	52,853800
1074,000000	52,803200
1073,000000	52,747800
1072,000000	52,680400
1071,000000	52,627600
1070,000000	52,587300
1069,000000	52,526800
1068,000000	52,466600
1067,000000	52,440800
1066,000000	52,361800
1065,000000	52,327700
1064,000000	52,272500
1063,000000	52,211400
1062,000000	52,158800
1061,000000	52,111900
1060,000000	52,051500
1059,000000	51,981300
1058,000000	51,915400
1057,000000	51,854300
1056,000000	51,808600
1055,000000	51,740500
1054,000000	51,679700
1053,000000	51,620600
1052,000000	51,548500
1051,000000	51,486400
1050,000000	51,411400
1049,000000	51,354800
1048,000000	51,300200
1047,000000	51,222600
1046,000000	51,148500
1045,000000	51,086600
1044,000000	51,039400
1043,000000	50,964200
1042,000000	50,890600
1041,000000	50,823800
1040,000000	50,753800
1039,000000	50,685700
1038,000000	50,607500
1037,000000	50,548900
1036,000000	50,461100
1035,000000	50,398200
1034,000000	50,327500
1033,000000	50,268300
1032,000000	50,197300
1031,000000	50,130400
1030,000000	50,049900
1029,000000	49,986600
1028,000000	49,925700
1027,000000	49,851700
1026,000000	49,793800
1025,000000	49,735600
1024,000000	49,673000
1023,000000	49,621900
1022,000000	49,559000
1021,000000	49,507900
1020,000000	49,474200
1019,000000	49,423500
1018,000000	49,382500
1017,000000	49,352700
1016,000000	49,328400
1015,000000	49,303200
1014,000000	49,288100
1013,000000	49,265900
1012,000000	49,240000
1011,000000	49,227800
1010,000000	49,235400
1009,000000	49,227100
1008,000000	49,211800
1007,000000	49,205000
1006,000000	49,206200
1005,000000	49,210300
1004,000000	49,205200
1003,000000	49,205300
1002,000000	49,181400
1001,000000	49,182900
1000,000000	49,182700
999,000000	49,163800
998,000000	49,156200
997,000000	49,119800
996,000000	49,098800
995,000000	49,089200
994,000000	49,070300
993,000000	49,052500
992,000000	49,033300
991,000000	49,014600
990,000000	48,997300
989,000000	48,978100
988,000000	48,946600
987,000000	48,935100
986,000000	48,929800
985,000000	48,917300
984,000000	48,907300
983,000000	48,909900
982,000000	48,912500
981,000000	48,907300
980,000000	48,913900
979,000000	48,925300
978,000000	48,952200
977,000000	48,968300
976,000000	48,994700
975,000000	49,035800
974,000000	49,076600
973,000000	49,120400
972,000000	49,162300
971,000000	49,209400
970,000000	49,270200
969,000000	49,325900
968,000000	49,391300
967,000000	49,448800
966,000000	49,515600
965,000000	49,586400
964,000000	49,652800
963,000000	49,737000
962,000000	49,827900
961,000000	49,898900
960,000000	49,961900
959,000000	50,041900
958,000000	50,132900
957,000000	50,210300
956,000000	50,276100
955,000000	50,356800
954,000000	50,421700
953,000000	50,485700
952,000000	50,559600
951,000000	50,621800
950,000000	50,705300
949,000000	50,790600
948,000000	50,858400
947,000000	50,952300
946,000000	51,060700
945,000000	51,135200
944,000000	51,222900
943,000000	51,336300
942,000000	51,429900
941,000000	51,531000
940,000000	51,656000
939,000000	51,784500
938,000000	51,913400
937,000000	52,024800
936,000000	52,155600
935,000000	52,307100
934,000000	52,465100
933,000000	52,627200
932,000000	52,778900
931,000000	52,926600
930,000000	53,074000
929,000000	53,244900
928,000000	53,404500
927,000000	53,568200
926,000000	53,738000
925,000000	53,904400
924,000000	54,066700
923,000000	54,226900
922,000000	54,391900
921,000000	54,554000
920,000000	54,715400
919,000000	54,896600
918,000000	55,052600
917,000000	55,221600
916,000000	55,401000
915,000000	55,556300
914,000000	55,717400
913,000000	55,877000
912,000000	56,028000
911,000000	56,197400
910,000000	56,369700
909,000000	56,545900
908,000000	56,726600
907,000000	56,908400
906,000000	57,098000
905,000000	57,277200
904,000000	57,454900
903,000000	57,656800
902,000000	57,864400
901,000000	58,068600
900,000000	58,289100
899,000000	58,507200
898,000000	58,724600
897,000000	58,950100
896,000000	59,178600
895,000000	59,409400
894,000000	59,629300
893,000000	59,859700
892,000000	60,094700
891,000000	60,307200
890,000000	60,521700
889,000000	60,741700
888,000000	60,995200
887,000000	61,228200
886,000000	61,451000
885,000000	61,665800
884,000000	61,896200
883,000000	62,134200
882,000000	62,368500
881,000000	62,593300
880,000000	62,821500
879,000000	63,047300
878,000000	63,286100
877,000000	63,512900
876,000000	63,748100
875,000000	63,943800
874,000000	64,112300
873,000000	64,269600
872,000000	64,406500
871,000000	64,548500
870,000000	64,746500
869,000000	65,033000
868,000000	65,358100
867,000000	65,716500
866,000000	66,077100
865,000000	66,414500
864,000000	66,754500
863,000000	67,127300
862,000000	67,497000
861,000000	67,865500
860,000000	68,227400
859,000000	68,592600
858,000000	69,009500
857,000000	73,203400
856,000000	74,681000
855,000000	74,961400
854,000000	74,818100
853,000000	75,565300
852,000000	76,160100
851,000000	76,397700
850,000000	76,549100
849,000000	76,959300
848,000000	77,633000
847,000000	78,168800
846,000000	78,602100
845,000000	79,080100
844,000000	79,337300
843,000000	80,238200
842,000000	80,861500
841,000000	81,078700
840,000000	81,717700
839,000000	82,015200
838,000000	82,400000
837,000000	82,761800
836,000000	83,343600
835,000000	83,658400
834,000000	83,987900
833,000000	84,256400
832,000000	84,615500
831,000000	84,908700
830,000000	85,378200
829,000000	85,466400
828,000000	85,865300
827,000000	85,787600
826,000000	85,849000
825,000000	86,040000
824,000000	86,198500
823,000000	86,170300
822,000000	86,390100
821,000000	86,449300
820,000000	86,427000
819,000000	86,284100
818,000000	86,585200
817,000000	86,596900
816,000000	86,481100
815,000000	86,574200
814,000000	86,535500
813,000000	86,448100
812,000000	86,569400
811,000000	86,761300
810,000000	87,077500
809,000000	87,190600
808,000000	87,204300
807,000000	87,379700
806,000000	87,727800
805,000000	87,912200
804,000000	88,092700
803,000000	88,332500
802,000000	88,759500
801,000000	89,088500
800,000000	89,508600
799,000000	89,682400
798,000000	89,795600
797,000000	90,034800
796,000000	90,156300
795,000000	90,415300
794,000000	90,857600
793,000000	90,711200
792,000000	90,867800
791,000000	91,048200
790,000000	91,041900
789,000000	91,038500
788,000000	90,894900
787,000000	90,780300
786,000000	90,870100
785,000000	90,799900
784,000000	90,745000
783,000000	90,401500
782,000000	90,426700
781,000000	90,128400
780,000000	89,818200
779,000000	89,457800
778,000000	89,303500
777,000000	88,981300
776,000000	88,750400
775,000000	88,532900
774,000000	88,081100
773,000000	88,129500
772,000000	87,738100
771,000000	87,428800
770,000000	87,364400
769,000000	87,111700
768,000000	87,014200
767,000000	86,936200
766,000000	86,818200
765,000000	86,608200
764,000000	86,694900
763,000000	86,709900
762,000000	86,653300
761,000000	86,661600
760,000000	86,624900
759,000000	86,549000
758,000000	86,615400
757,000000	86,483000
756,000000	86,460500
755,000000	86,436700
754,000000	86,222400
753,000000	86,144600
752,000000	85,966200
751,000000	85,846300
750,000000	85,592900
749,000000	85,385900
748,000000	85,206400
747,000000	84,836500
746,000000	84,463900
745,000000	84,004100
744,000000	83,674100
743,000000	83,341700
742,000000	82,833800
741,000000	82,369600
740,000000	81,885500
739,000000	81,443700
738,000000	81,058700
737,000000	80,553000
736,000000	80,083700
735,000000	79,747500
734,000000	79,252400
733,000000	78,907700
732,000000	78,506800
731,000000	78,109600
730,000000	77,705200
729,000000	77,351600
728,000000	77,060900
727,000000	76,783700
726,000000	76,480100
725,000000	76,209000
724,000000	75,953700
723,000000	75,713700
722,000000	75,520700
721,000000	75,375200
720,000000	75,188800
719,000000	75,030800
718,000000	74,910900
717,000000	74,778100
716,000000	74,602500
715,000000	74,480300
714,000000	74,416500
713,000000	74,303800
712,000000	74,242000
711,000000	74,152200
710,000000	74,124500
709,000000	74,159600
708,000000	74,086600
707,000000	74,131100
706,000000	74,182700
705,000000	74,159500
704,000000	74,245400
703,000000	74,287700
702,000000	74,366600
701,000000	74,390300
700,000000	74,423600
699,000000	74,443900
698,000000	74,442600
697,000000	74,431500
696,000000	74,279100
695,000000	74,158900
694,000000	74,033400
693,000000	73,872200
692,000000	73,657400
691,000000	73,380100
690,000000	73,118400
689,000000	72,830200
688,000000	72,500600
687,000000	72,140100
686,000000	71,814000
685,000000	71,402800
684,000000	71,008500
683,000000	70,609800
682,000000	70,093400
681,000000	69,586200
680,000000	69,004600
679,000000	68,448200
678,000000	67,830900
677,000000	67,208700
676,000000	66,628000
675,000000	65,997800
674,000000	65,270500
673,000000	64,628900
672,000000	64,005700
671,000000	63,342500
670,000000	62,611900
669,000000	61,911100
668,000000	61,263700
667,000000	60,637900
666,000000	60,022300
665,000000	59,432000
664,000000	58,846200
663,000000	58,306800
662,000000	57,759400
661,000000	57,222400
660,000000	56,770300
659,000000	56,388600
658,000000	56,024200
657,000000	55,694600
656,000000	55,441000
655,000000	55,312100
654,000000	55,244200
653,000000	55,284600
652,000000	55,520500
651,000000	55,844100
650,000000	56,228900
649,000000	56,740300
648,000000	57,386000
647,000000	58,082500
646,000000	58,858600
645,000000	59,677300
644,000000	60,537900
643,000000	61,434000
642,000000	62,338000
641,000000	63,259700
640,000000	64,178800
639,000000	65,153000
638,000000	66,176900
637,000000	67,241600
636,000000	68,257000
635,000000	69,259900
634,000000	70,316500
633,000000	71,414000
632,000000	72,514900
631,000000	73,550500
630,000000	74,592800
629,000000	75,667300
628,000000	76,684700
627,000000	77,632300
626,000000	78,530400
625,000000	79,385600
624,000000	80,242600
623,000000	81,045600
622,000000	81,811000
621,000000	82,550800
620,000000	83,255200
619,000000	83,927900
618,000000	84,587500
617,000000	85,193500
616,000000	85,794200
615,000000	86,379000
614,000000	86,896200
613,000000	87,401500
612,000000	87,881600
611,000000	88,375300
610,000000	88,727600
609,000000	89,058700
608,000000	89,442700
607,000000	89,771500
606,000000	90,018500
605,000000	90,294200
604,000000	90,489400
603,000000	90,690200
602,000000	90,867100
601,000000	91,016700
600,000000	91,164700
599,000000	91,285700
598,000000	91,455700
597,000000	91,598500
596,000000	91,667900
595,000000	91,738900
594,000000	91,796900
593,000000	91,879300
592,000000	91,924100
591,000000	91,927600
590,000000	91,979900
589,000000	91,985300
588,000000	92,022100
587,000000	91,959300
586,000000	91,923900
585,000000	91,872700
584,000000	91,782400
583,000000	91,723500
582,000000	91,696100
581,000000	91,573600
580,000000	91,429500
579,000000	91,287200
578,000000	91,124300
577,000000	90,970300
576,000000	90,818900
575,000000	90,665100
574,000000	90,451400
573,000000	90,253200
572,000000	90,052600
571,000000	89,867400
570,000000	89,670200
569,000000	89,447400
568,000000	89,210000
567,000000	88,944400
566,000000	88,658300
565,000000	88,385800
564,000000	88,105600
563,000000	87,778500
562,000000	87,390400
561,000000	87,039300
560,000000	86,616300
559,000000	86,149600
558,000000	85,649600
557,000000	85,158100
556,000000	84,615700
555,000000	84,139900
554,000000	83,581700
553,000000	82,989300
552,000000	82,393800
551,000000	81,741200
550,000000	81,069400
549,000000	80,272900
548,000000	79,525500
547,000000	78,722100
546,000000	77,819000
545,000000	76,910300
544,000000	75,876000
543,000000	74,860700
542,000000	73,774300
541,000000	72,608800
540,000000	71,413800
539,000000	70,178400
538,000000	68,892700
537,000000	67,575900
536,000000	66,227100
535,000000	64,858800
534,000000	63,471200
533,000000	62,061100
532,000000	60,688400
531,000000	59,282700
530,000000	57,889600
529,000000	56,528100
528,000000	55,184900
527,000000	53,882300
526,000000	52,594500
525,000000	51,348100
524,000000	50,139600
523,000000	48,925600
522,000000	47,763300
521,000000	46,620800
520,000000	45,545300
519,000000	44,547800
518,000000	43,584700
517,000000	42,653300
516,000000	41,775700
515,000000	40,945000
514,000000	40,137500
513,000000	39,381800
512,000000	38,668000
511,000000	37,972300
510,000000	37,307500
509,000000	36,648100
508,000000	36,014400
507,000000	35,392300
506,000000	34,784200
505,000000	34,214800
504,000000	33,610700
503,000000	33,060700
502,000000	32,565200
501,000000	32,032600
500,000000	31,599600
499,000000	31,185400
498,000000	30,819700
497,000000	30,547400
496,000000	30,282200
495,000000	30,050300
494,000000	29,889500
493,000000	29,825800
492,000000	29,755700
491,000000	29,731200
490,000000	29,774000
489,000000	29,861500
488,000000	29,937800
487,000000	30,076200
486,000000	30,215000
485,000000	30,335000
484,000000	30,496000
483,000000	30,578900
482,000000	30,641900
481,000000	30,660800
480,000000	30,699900
479,000000	30,692800
478,000000	30,683400
477,000000	30,662800
476,000000	30,624900
475,000000	30,577700
474,000000	30,529900
473,000000	30,452300
472,000000	30,411600
471,000000	30,328400
470,000000	30,226300
469,000000	30,164200
468,000000	30,054600
467,000000	29,937300
466,000000	29,860500
465,000000	29,740800
464,000000	29,647600
463,000000	29,505200
462,000000	29,379200
461,000000	29,284000
460,000000	29,127200
459,000000	28,982300
458,000000	28,838900
457,000000	28,669600
456,000000	28,486000
455,000000	28,348300
454,000000	28,124600
453,000000	27,905200
452,000000	27,727700
451,000000	27,497300
450,000000	27,243000
449,000000	27,007100
448,000000	26,747400
447,000000	26,437000
446,000000	26,120500
445,000000	25,774800
444,000000	25,480300
443,000000	25,108600
442,000000	24,698400
441,000000	24,320600
440,000000	23,890800
439,000000	23,465100
438,000000	23,007200
437,000000	22,518300
436,000000	22,059300
435,000000	21,499500
434,000000	20,968700
433,000000	20,451300
432,000000	19,931700
431,000000	19,341400
430,000000	18,789600
429,000000	18,237700
428,000000	17,669400
427,000000	17,109200
426,000000	16,558700
425,000000	15,983700
424,000000	15,441700
423,000000	14,900300
422,000000	14,404900
421,000000	13,895300
420,000000	13,423800
419,000000	12,953300
418,000000	12,532500
417,000000	12,090400
416,000000	11,690000
415,000000	11,337600
414,000000	10,995700
413,000000	10,672100
412,000000	10,368800
411,000000	10,083600
410,000000	9,836600
409,000000	9,599300
408,000000	9,380700
407,000000	9,179700
406,000000	9,008600
405,000000	8,844900
404,000000	8,699100
403,000000	8,554700
402,000000	8,428300
401,000000	8,321600
400,000000	8,209200
399,000000	8,107800
398,000000	8,002300
397,000000	7,931500
396,000000	7,838100
395,000000	7,767500
394,000000	7,721400
393,000000	7,632500
392,000000	7,569200
391,000000	7,527300
390,000000	7,476900
389,000000	7,420900
388,000000	7,382100
387,000000	7,333100
386,000000	7,295400
385,000000	7,242100
384,000000	7,198900
383,000000	7,168200
382,000000	7,144600
381,000000	7,102800
380,000000	7,073900
379,000000	7,028200
378,000000	6,971400
377,000000	6,943000
376,000000	6,961200
375,000000	6,960700
374,000000	6,757400
373,000000	6,653300
372,000000	6,705200
371,000000	6,628900
370,000000	6,614900
369,000000	6,665900
368,000000	6,618800
367,000000	6,740400
366,000000	6,630900
365,000000	6,572900
364,000000	6,528700
363,000000	6,649400
362,000000	6,629800
361,000000	6,468000
360,000000	6,479900
359,000000	6,567700
358,000000	6,460900
357,000000	6,414200
356,000000	6,451600
355,000000	6,457600
354,000000	6,345100
353,000000	6,307700
352,000000	6,182200
351,000000	6,115900
350,000000	6,267800
349,000000	6,199900
348,000000	6,193000
347,000000	6,231500
346,000000	6,142300
345,000000	6,086000
344,000000	6,184000
343,000000	6,079100
342,000000	6,158700
341,000000	6,111600
340,000000	6,109700
339,000000	6,146500
338,000000	5,982400
337,000000	6,001000
336,000000	6,133000
335,000000	6,199100
334,000000	6,168500
333,000000	5,851600
332,000000	5,605900
331,000000	5,730400
330,000000	5,876900
329,000000	6,068700
328,000000	6,108000
327,000000	5,765600
326,000000	5,702100
325,000000	5,958200
324,000000	6,215100
323,000000	6,158500
322,000000	6,188200
321,000000	6,122100
320,000000	6,128100
319,000000	6,164200
318,000000	6,238300
317,000000	6,698700
316,000000	6,316800
315,000000	5,836300
314,000000	5,806200
313,000000	5,807500
312,000000	5,831600
311,000000	5,817900
310,000000	5,798900
309,000000	5,814000
308,000000	5,839800
307,000000	5,843600
306,000000	5,851700
305,000000	5,853800
304,000000	5,871300
303,000000	5,864900
302,000000	5,863500
301,000000	5,873500
300,000000	5,869600
299,000000	5,887800
298,000000	5,876300
297,000000	5,912300
296,000000	5,932700
295,000000	5,909800
294,000000	5,932100
293,000000	5,906200
292,000000	5,902700
291,000000	5,901000
290,000000	5,930200
289,000000	5,960500
288,000000	5,999800
287,000000	6,007500
286,000000	6,029000
285,000000	6,028700
284,000000	6,051900
283,000000	6,046800
282,000000	6,052500
281,000000	6,055000
280,000000	6,065400
279,000000	6,087400
278,000000	6,130000
277,000000	6,146600
276,000000	6,132600
275,000000	6,127800
274,000000	6,175700
273,000000	6,212200
272,000000	6,203100
271,000000	6,196800
270,000000	6,195700
269,000000	6,235500
268,000000	6,261300
267,000000	6,273400
266,000000	6,294600
265,000000	6,352100
264,000000	6,366400
263,000000	6,399500
262,000000	6,446600
261,000000	6,493000
260,000000	6,479400
259,000000	6,453200
258,000000	6,501600
257,000000	6,555100
256,000000	6,558500
255,000000	6,577000
254,000000	6,606700
253,000000	6,594000
252,000000	6,582100
251,000000	6,630100
250,000000	6,644400
