PE UV       SUBTECH     SPECTRUM    ASCII       PEDS        4.00        
   -1
CICIMAUCR0234-2.ASC
24/06/14
16:07:22.00
24/06/14
16:07:22.00
Vinicio Soto Monge
C. resplendens. Sex M. Dorsal.
250,000000
1
Lambda 1050
1050L1511233
PerkinElmer UV WinLab 6.3.2.0749 / 2.02.05 Lambda 900 UV/VIS/NIR, Aug  7 2015 09:38:08

0
0
3350/servo 860,8/2
0
0
UV/VIS
1
1
1
DoubleDePol,CommonBeamDepol,RBeamAtt,SBeamAtt,60mm sphere, WB InGaAs Detector
0
0
0
0
Program
Program
3350/servo 860,8/2
3350/0,2 860,8/0,2
3350/0,2 860,8/0,2
0
15.00
 
 
 
0
 
860,8
319,2
860,8
Front
100
on
S:100 R:100
0
0
0
0
 
0
 
 
 
0
 
 
0
0
0
0
0
 
 
 
 
0
0


0
0
#HDR
-1
-1
#GR
nm
%R
1.0
0.0
2500,000000
-1,000000
2251
8
92,234800
5,487100
#DATA
2500,000000	7,555500
2499,000000	7,520600
2498,000000	7,409100
2497,000000	7,387900
2496,000000	7,352200
2495,000000	7,394300
2494,000000	7,373400
2493,000000	7,316300
2492,000000	7,285900
2491,000000	7,333600
2490,000000	7,306100
2489,000000	7,202700
2488,000000	7,261000
2487,000000	7,220200
2486,000000	7,237000
2485,000000	7,244300
2484,000000	7,224700
2483,000000	7,213300
2482,000000	7,201000
2481,000000	7,193900
2480,000000	7,184300
2479,000000	7,193900
2478,000000	7,218100
2477,000000	7,145600
2476,000000	7,150100
2475,000000	7,178500
2474,000000	7,132000
2473,000000	7,211100
2472,000000	7,131600
2471,000000	7,160200
2470,000000	7,164000
2469,000000	7,163900
2468,000000	7,178600
2467,000000	7,182900
2466,000000	7,177500
2465,000000	7,168300
2464,000000	7,190300
2463,000000	7,193900
2462,000000	7,232000
2461,000000	7,248700
2460,000000	7,285500
2459,000000	7,315800
2458,000000	7,329200
2457,000000	7,352500
2456,000000	7,385200
2455,000000	7,432900
2454,000000	7,443700
2453,000000	7,484200
2452,000000	7,536500
2451,000000	7,570500
2450,000000	7,617500
2449,000000	7,660600
2448,000000	7,698400
2447,000000	7,755600
2446,000000	7,783000
2445,000000	7,828500
2444,000000	7,897100
2443,000000	7,909600
2442,000000	7,973200
2441,000000	8,024500
2440,000000	8,076000
2439,000000	8,112000
2438,000000	8,145000
2437,000000	8,178100
2436,000000	8,216900
2435,000000	8,250200
2434,000000	8,313100
2433,000000	8,336100
2432,000000	8,335600
2431,000000	8,388800
2430,000000	8,436400
2429,000000	8,467600
2428,000000	8,492000
2427,000000	8,512100
2426,000000	8,552500
2425,000000	8,581700
2424,000000	8,591300
2423,000000	8,615500
2422,000000	8,640200
2421,000000	8,650200
2420,000000	8,676600
2419,000000	8,704500
2418,000000	8,737100
2417,000000	8,751900
2416,000000	8,763600
2415,000000	8,797500
2414,000000	8,802800
2413,000000	8,811600
2412,000000	8,835500
2411,000000	8,858900
2410,000000	8,890800
2409,000000	8,905200
2408,000000	8,904900
2407,000000	8,921100
2406,000000	8,934900
2405,000000	8,964400
2404,000000	9,007000
2403,000000	9,030400
2402,000000	9,043000
2401,000000	9,063600
2400,000000	9,080400
2399,000000	9,083100
2398,000000	9,104600
2397,000000	9,134800
2396,000000	9,141400
2395,000000	9,162000
2394,000000	9,184100
2393,000000	9,200000
2392,000000	9,216100
2391,000000	9,226600
2390,000000	9,246400
2389,000000	9,272200
2388,000000	9,277700
2387,000000	9,292200
2386,000000	9,291800
2385,000000	9,280000
2384,000000	9,289700
2383,000000	9,299800
2382,000000	9,314500
2381,000000	9,315500
2380,000000	9,317000
2379,000000	9,301900
2378,000000	9,279000
2377,000000	9,272800
2376,000000	9,272400
2375,000000	9,257800
2374,000000	9,233800
2373,000000	9,208900
2372,000000	9,200300
2371,000000	9,188000
2370,000000	9,164200
2369,000000	9,130400
2368,000000	9,103400
2367,000000	9,078900
2366,000000	9,036200
2365,000000	9,000500
2364,000000	8,956300
2363,000000	8,905600
2362,000000	8,866700
2361,000000	8,823200
2360,000000	8,772400
2359,000000	8,746700
2358,000000	8,708800
2357,000000	8,660200
2356,000000	8,622300
2355,000000	8,590600
2354,000000	8,568300
2353,000000	8,548800
2352,000000	8,533800
2351,000000	8,534800
2350,000000	8,563300
2349,000000	8,586600
2348,000000	8,599800
2347,000000	8,635300
2346,000000	8,656400
2345,000000	8,671300
2344,000000	8,710200
2343,000000	8,747800
2342,000000	8,769500
2341,000000	8,795300
2340,000000	8,828400
2339,000000	8,850400
2338,000000	8,858700
2337,000000	8,870700
2336,000000	8,882100
2335,000000	8,880300
2334,000000	8,881100
2333,000000	8,868700
2332,000000	8,841400
2331,000000	8,820200
2330,000000	8,794200
2329,000000	8,752500
2328,000000	8,716500
2327,000000	8,669300
2326,000000	8,612300
2325,000000	8,541000
2324,000000	8,466700
2323,000000	8,408500
2322,000000	8,351800
2321,000000	8,282400
2320,000000	8,206900
2319,000000	8,112500
2318,000000	8,028800
2317,000000	7,958900
2316,000000	7,887600
2315,000000	7,795100
2314,000000	7,715700
2313,000000	7,650100
2312,000000	7,556100
2311,000000	7,482000
2310,000000	7,444900
2309,000000	7,397300
2308,000000	7,355600
2307,000000	7,328100
2306,000000	7,316900
2305,000000	7,301900
2304,000000	7,306600
2303,000000	7,329600
2302,000000	7,364300
2301,000000	7,400100
2300,000000	7,438500
2299,000000	7,503000
2298,000000	7,576400
2297,000000	7,643400
2296,000000	7,690500
2295,000000	7,754000
2294,000000	7,802900
2293,000000	7,843800
2292,000000	7,893000
2291,000000	7,937700
2290,000000	7,957300
2289,000000	7,966800
2288,000000	7,972000
2287,000000	7,990800
2286,000000	7,981500
2285,000000	7,950600
2284,000000	7,919700
2283,000000	7,898100
2282,000000	7,868800
2281,000000	7,814400
2280,000000	7,787700
2279,000000	7,735900
2278,000000	7,702000
2277,000000	7,663500
2276,000000	7,615300
2275,000000	7,588400
2274,000000	7,565800
2273,000000	7,544400
2272,000000	7,534300
2271,000000	7,530000
2270,000000	7,508200
2269,000000	7,535800
2268,000000	7,561300
2267,000000	7,616700
2266,000000	7,663700
2265,000000	7,726300
2264,000000	7,813000
2263,000000	7,904400
2262,000000	8,010900
2261,000000	8,139100
2260,000000	8,254600
2259,000000	8,436200
2258,000000	8,608800
2257,000000	8,758000
2256,000000	8,967900
2255,000000	9,094100
2254,000000	9,274500
2253,000000	9,485600
2252,000000	9,657300
2251,000000	9,817500
2250,000000	9,975700
2249,000000	10,155500
2248,000000	10,295400
2247,000000	10,417300
2246,000000	10,564200
2245,000000	10,688700
2244,000000	10,837200
2243,000000	10,935600
2242,000000	11,018100
2241,000000	11,133700
2240,000000	11,220400
2239,000000	11,306200
2238,000000	11,384900
2237,000000	11,458000
2236,000000	11,520900
2235,000000	11,598000
2234,000000	11,658400
2233,000000	11,706400
2232,000000	11,737100
2231,000000	11,801500
2230,000000	11,815600
2229,000000	11,849800
2228,000000	11,865300
2227,000000	11,902200
2226,000000	11,924500
2225,000000	11,914900
2224,000000	11,929100
2223,000000	11,929300
2222,000000	11,926400
2221,000000	11,943500
2220,000000	11,908100
2219,000000	11,900100
2218,000000	11,896800
2217,000000	11,882700
2216,000000	11,889800
2215,000000	11,861100
2214,000000	11,830600
2213,000000	11,827500
2212,000000	11,812300
2211,000000	11,800400
2210,000000	11,800000
2209,000000	11,757900
2208,000000	11,759000
2207,000000	11,759800
2206,000000	11,732100
2205,000000	11,733900
2204,000000	11,717700
2203,000000	11,694600
2202,000000	11,701000
2201,000000	11,685000
2200,000000	11,697200
2199,000000	11,680800
2198,000000	11,662500
2197,000000	11,647900
2196,000000	11,651300
2195,000000	11,637500
2194,000000	11,634300
2193,000000	11,625500
2192,000000	11,621800
2191,000000	11,607200
2190,000000	11,593300
2189,000000	11,590700
2188,000000	11,580800
2187,000000	11,594900
2186,000000	11,576700
2185,000000	11,565000
2184,000000	11,559800
2183,000000	11,543600
2182,000000	11,555900
2181,000000	11,541600
2180,000000	11,519800
2179,000000	11,512500
2178,000000	11,502100
2177,000000	11,509800
2176,000000	11,512200
2175,000000	11,531300
2174,000000	11,516000
2173,000000	11,503700
2172,000000	11,527200
2171,000000	11,527200
2170,000000	11,525400
2169,000000	11,535400
2168,000000	11,561600
2167,000000	11,575600
2166,000000	11,599000
2165,000000	11,603200
2164,000000	11,622500
2163,000000	11,652300
2162,000000	11,666600
2161,000000	11,668600
2160,000000	11,697400
2159,000000	11,723300
2158,000000	11,756300
2157,000000	11,780000
2156,000000	11,806100
2155,000000	11,822700
2154,000000	11,873500
2153,000000	11,893100
2152,000000	11,920100
2151,000000	11,957500
2150,000000	11,968900
2149,000000	11,994300
2148,000000	12,032500
2147,000000	12,055000
2146,000000	12,088100
2145,000000	12,116300
2144,000000	12,122200
2143,000000	12,157500
2142,000000	12,183200
2141,000000	12,202900
2140,000000	12,202700
2139,000000	12,225100
2138,000000	12,242000
2137,000000	12,281100
2136,000000	12,288700
2135,000000	12,299500
2134,000000	12,307800
2133,000000	12,314300
2132,000000	12,315000
2131,000000	12,313000
2130,000000	12,325100
2129,000000	12,332400
2128,000000	12,328200
2127,000000	12,323800
2126,000000	12,315400
2125,000000	12,306900
2124,000000	12,280300
2123,000000	12,281400
2122,000000	12,267600
2121,000000	12,238000
2120,000000	12,226000
2119,000000	12,197400
2118,000000	12,175200
2117,000000	12,147900
2116,000000	12,127300
2115,000000	12,091400
2114,000000	12,070400
2113,000000	12,063000
2112,000000	12,026600
2111,000000	11,991500
2110,000000	11,963300
2109,000000	11,934400
2108,000000	11,912800
2107,000000	11,888600
2106,000000	11,854900
2105,000000	11,832500
2104,000000	11,795400
2103,000000	11,765400
2102,000000	11,730100
2101,000000	11,699200
2100,000000	11,683600
2099,000000	11,657300
2098,000000	11,624100
2097,000000	11,594300
2096,000000	11,564700
2095,000000	11,538100
2094,000000	11,521100
2093,000000	11,495400
2092,000000	11,474500
2091,000000	11,454600
2090,000000	11,438500
2089,000000	11,417100
2088,000000	11,398600
2087,000000	11,372000
2086,000000	11,350800
2085,000000	11,338900
2084,000000	11,313500
2083,000000	11,287200
2082,000000	11,273000
2081,000000	11,245900
2080,000000	11,225800
2079,000000	11,213200
2078,000000	11,184700
2077,000000	11,151000
2076,000000	11,118400
2075,000000	11,107500
2074,000000	11,086600
2073,000000	11,036200
2072,000000	11,001800
2071,000000	10,988300
2070,000000	10,956400
2069,000000	10,923000
2068,000000	10,913900
2067,000000	10,888100
2066,000000	10,843600
2065,000000	10,833200
2064,000000	10,803500
2063,000000	10,761900
2062,000000	10,756800
2061,000000	10,744000
2060,000000	10,735200
2059,000000	10,719700
2058,000000	10,700900
2057,000000	10,692700
2056,000000	10,687200
2055,000000	10,690800
2054,000000	10,712400
2053,000000	10,725700
2052,000000	10,746100
2051,000000	10,768800
2050,000000	10,804000
2049,000000	10,858100
2048,000000	10,891800
2047,000000	10,946100
2046,000000	11,003400
2045,000000	11,063800
2044,000000	11,111300
2043,000000	11,161700
2042,000000	11,223900
2041,000000	11,277200
2040,000000	11,349700
2039,000000	11,408200
2038,000000	11,469100
2037,000000	11,534600
2036,000000	11,586700
2035,000000	11,630600
2034,000000	11,674000
2033,000000	11,717200
2032,000000	11,760100
2031,000000	11,797700
2030,000000	11,842400
2029,000000	11,877900
2028,000000	11,902700
2027,000000	11,932900
2026,000000	11,956300
2025,000000	11,980800
2024,000000	12,007800
2023,000000	12,002500
2022,000000	12,018500
2021,000000	12,044700
2020,000000	12,070700
2019,000000	12,063600
2018,000000	12,077000
2017,000000	12,097600
2016,000000	12,099400
2015,000000	12,105200
2014,000000	12,107100
2013,000000	12,104100
2012,000000	12,091100
2011,000000	12,087500
2010,000000	12,070100
2009,000000	12,059000
2008,000000	12,051600
2007,000000	12,017800
2006,000000	11,994400
2005,000000	11,988800
2004,000000	11,941300
2003,000000	11,929000
2002,000000	11,895000
2001,000000	11,862300
2000,000000	11,840900
1999,000000	11,793600
1998,000000	11,759000
1997,000000	11,717000
1996,000000	11,674600
1995,000000	11,626700
1994,000000	11,572400
1993,000000	11,516000
1992,000000	11,484500
1991,000000	11,428300
1990,000000	11,382100
1989,000000	11,307800
1988,000000	11,272400
1987,000000	11,207700
1986,000000	11,130300
1985,000000	11,079400
1984,000000	11,024700
1983,000000	10,994000
1982,000000	10,924100
1981,000000	10,865200
1980,000000	10,782400
1979,000000	10,748400
1978,000000	10,667500
1977,000000	10,612400
1976,000000	10,563500
1975,000000	10,498000
1974,000000	10,448800
1973,000000	10,396300
1972,000000	10,322600
1971,000000	10,273400
1970,000000	10,209500
1969,000000	10,146500
1968,000000	10,095400
1967,000000	10,053000
1966,000000	9,994300
1965,000000	9,952000
1964,000000	9,901800
1963,000000	9,842900
1962,000000	9,789300
1961,000000	9,726000
1960,000000	9,700500
1959,000000	9,661200
1958,000000	9,583500
1957,000000	9,565400
1956,000000	9,506200
1955,000000	9,447800
1954,000000	9,397800
1953,000000	9,367000
1952,000000	9,311300
1951,000000	9,288800
1950,000000	9,232100
1949,000000	9,189300
1948,000000	9,174800
1947,000000	9,128400
1946,000000	9,082800
1945,000000	9,064700
1944,000000	9,047400
1943,000000	9,002900
1942,000000	8,989000
1941,000000	8,988600
1940,000000	8,967100
1939,000000	8,933500
1938,000000	8,925200
1937,000000	8,928000
1936,000000	8,954800
1935,000000	8,931200
1934,000000	8,933100
1933,000000	8,955800
1932,000000	8,971500
1931,000000	8,990000
1930,000000	9,018100
1929,000000	9,054500
1928,000000	9,116400
1927,000000	9,163900
1926,000000	9,211000
1925,000000	9,275300
1924,000000	9,349600
1923,000000	9,405300
1922,000000	9,460100
1921,000000	9,541400
1920,000000	9,653800
1919,000000	9,753300
1918,000000	9,832500
1917,000000	9,953900
1916,000000	10,054800
1915,000000	10,127200
1914,000000	10,215200
1913,000000	10,383700
1912,000000	10,537700
1911,000000	10,670200
1910,000000	10,806600
1909,000000	10,933200
1908,000000	11,046600
1907,000000	11,194300
1906,000000	11,352800
1905,000000	11,516900
1904,000000	11,720500
1903,000000	11,914400
1902,000000	12,107500
1901,000000	12,277600
1900,000000	12,471200
1899,000000	12,693000
1898,000000	12,951800
1897,000000	13,161900
1896,000000	13,366700
1895,000000	13,578800
1894,000000	13,751900
1893,000000	13,948300
1892,000000	14,186400
1891,000000	14,483000
1890,000000	14,782700
1889,000000	15,076200
1888,000000	15,360400
1887,000000	15,673000
1886,000000	15,984500
1885,000000	16,358500
1884,000000	16,757700
1883,000000	17,187500
1882,000000	17,673500
1881,000000	18,135000
1880,000000	18,606300
1879,000000	19,086800
1878,000000	19,510200
1877,000000	19,984600
1876,000000	20,437200
1875,000000	20,854400
1874,000000	21,285800
1873,000000	21,697200
1872,000000	22,091500
1871,000000	22,455100
1870,000000	22,812200
1869,000000	23,124400
1868,000000	23,419100
1867,000000	23,655100
1866,000000	23,845000
1865,000000	23,988200
1864,000000	24,136100
1863,000000	24,249300
1862,000000	24,342600
1861,000000	24,483200
1860,000000	24,616800
1859,000000	24,719300
1858,000000	24,814300
1857,000000	24,905100
1856,000000	24,954900
1855,000000	24,976600
1854,000000	25,010000
1853,000000	25,033200
1852,000000	25,033200
1851,000000	25,028800
1850,000000	25,011300
1849,000000	24,983400
1848,000000	24,975000
1847,000000	24,994300
1846,000000	24,992000
1845,000000	24,949900
1844,000000	24,882100
1843,000000	24,832900
1842,000000	24,796200
1841,000000	24,811400
1840,000000	24,818800
1839,000000	24,799300
1838,000000	24,777000
1837,000000	24,747600
1836,000000	24,723500
1835,000000	24,701500
1834,000000	24,642600
1833,000000	24,570200
1832,000000	24,501500
1831,000000	24,416300
1830,000000	24,357300
1829,000000	24,303900
1828,000000	24,246300
1827,000000	24,175200
1826,000000	24,111900
1825,000000	24,051000
1824,000000	23,986200
1823,000000	23,914500
1822,000000	23,849200
1821,000000	23,841200
1820,000000	23,853900
1819,000000	23,833300
1818,000000	23,798600
1817,000000	23,761500
1816,000000	23,724500
1815,000000	23,713000
1814,000000	23,706100
1813,000000	23,682800
1812,000000	23,675800
1811,000000	23,660900
1810,000000	23,641000
1809,000000	23,612000
1808,000000	23,568800
1807,000000	23,522600
1806,000000	23,481700
1805,000000	23,434300
1804,000000	23,391800
1803,000000	23,342300
1802,000000	23,278000
1801,000000	23,239400
1800,000000	23,211400
1799,000000	23,154100
1798,000000	23,076100
1797,000000	23,017800
1796,000000	22,980700
1795,000000	22,940200
1794,000000	22,893200
1793,000000	22,841800
1792,000000	22,783100
1791,000000	22,728000
1790,000000	22,673200
1789,000000	22,626800
1788,000000	22,569200
1787,000000	22,499700
1786,000000	22,442700
1785,000000	22,381500
1784,000000	22,298100
1783,000000	22,216400
1782,000000	22,155600
1781,000000	22,076200
1780,000000	22,007300
1779,000000	21,931900
1778,000000	21,856800
1777,000000	21,782500
1776,000000	21,686500
1775,000000	21,602100
1774,000000	21,505800
1773,000000	21,385000
1772,000000	21,275500
1771,000000	21,173700
1770,000000	21,051000
1769,000000	20,935900
1768,000000	20,816100
1767,000000	20,714500
1766,000000	20,619100
1765,000000	20,524600
1764,000000	20,450300
1763,000000	20,401300
1762,000000	20,384600
1761,000000	20,385300
1760,000000	20,405700
1759,000000	20,454700
1758,000000	20,513800
1757,000000	20,586000
1756,000000	20,661400
1755,000000	20,716900
1754,000000	20,762200
1753,000000	20,794500
1752,000000	20,812700
1751,000000	20,820700
1750,000000	20,811700
1749,000000	20,801200
1748,000000	20,765700
1747,000000	20,708600
1746,000000	20,639900
1745,000000	20,539900
1744,000000	20,443000
1743,000000	20,327300
1742,000000	20,189000
1741,000000	20,015300
1740,000000	19,815000
1739,000000	19,599300
1738,000000	19,386100
1737,000000	19,181700
1736,000000	18,997800
1735,000000	18,840800
1734,000000	18,737100
1733,000000	18,668900
1732,000000	18,640800
1731,000000	18,656400
1730,000000	18,709900
1729,000000	18,802900
1728,000000	18,921000
1727,000000	19,019300
1726,000000	19,108500
1725,000000	19,210300
1724,000000	19,292500
1723,000000	19,350300
1722,000000	19,399000
1721,000000	19,419300
1720,000000	19,432200
1719,000000	19,460400
1718,000000	19,484900
1717,000000	19,515400
1716,000000	19,535500
1715,000000	19,587200
1714,000000	19,633300
1713,000000	19,677500
1712,000000	19,738300
1711,000000	19,783600
1710,000000	19,822300
1709,000000	19,840400
1708,000000	19,837300
1707,000000	19,822600
1706,000000	19,789300
1705,000000	19,765300
1704,000000	19,714500
1703,000000	19,642200
1702,000000	19,571300
1701,000000	19,474200
1700,000000	19,361800
1699,000000	19,205000
1698,000000	19,063500
1697,000000	18,932900
1696,000000	18,792800
1695,000000	18,725900
1694,000000	18,698800
1693,000000	18,735800
1692,000000	18,830300
1691,000000	18,958800
1690,000000	19,127300
1689,000000	19,286000
1688,000000	19,430700
1687,000000	19,506500
1686,000000	19,562900
1685,000000	19,597500
1684,000000	19,625800
1683,000000	19,696500
1682,000000	19,864700
1681,000000	20,101500
1680,000000	20,467700
1679,000000	20,942500
1678,000000	21,438100
1677,000000	21,953100
1676,000000	22,442700
1675,000000	22,876600
1674,000000	23,282300
1673,000000	23,645900
1672,000000	23,929700
1671,000000	24,191600
1670,000000	24,404800
1669,000000	24,600300
1668,000000	24,756300
1667,000000	24,878500
1666,000000	24,998400
1665,000000	25,099000
1664,000000	25,177400
1663,000000	25,253700
1662,000000	25,322100
1661,000000	25,381400
1660,000000	25,436200
1659,000000	25,468500
1658,000000	25,492600
1657,000000	25,505400
1656,000000	25,529300
1655,000000	25,530100
1654,000000	25,521500
1653,000000	25,512700
1652,000000	25,499600
1651,000000	25,472600
1650,000000	25,451000
1649,000000	25,415600
1648,000000	25,399200
1647,000000	25,341600
1646,000000	25,299600
1645,000000	25,244400
1644,000000	25,187800
1643,000000	25,156700
1642,000000	25,082600
1641,000000	25,040300
1640,000000	24,987600
1639,000000	24,906100
1638,000000	24,859600
1637,000000	24,768300
1636,000000	24,704800
1635,000000	24,646400
1634,000000	24,560700
1633,000000	24,496200
1632,000000	24,410000
1631,000000	24,352100
1630,000000	24,277400
1629,000000	24,189200
1628,000000	24,103700
1627,000000	24,033200
1626,000000	23,947600
1625,000000	23,861000
1624,000000	23,775500
1623,000000	23,705800
1622,000000	23,628400
1621,000000	23,550000
1620,000000	23,466000
1619,000000	23,385200
1618,000000	23,311300
1617,000000	23,255500
1616,000000	23,174300
1615,000000	23,092000
1614,000000	23,026600
1613,000000	22,960700
1612,000000	22,883000
1611,000000	22,822200
1610,000000	22,760100
1609,000000	22,700300
1608,000000	22,624500
1607,000000	22,549100
1606,000000	22,493800
1605,000000	22,416000
1604,000000	22,363600
1603,000000	22,276500
1602,000000	22,231900
1601,000000	22,182300
1600,000000	22,110300
1599,000000	22,046100
1598,000000	21,980200
1597,000000	21,916600
1596,000000	21,852600
1595,000000	21,793700
1594,000000	21,752100
1593,000000	21,683400
1592,000000	21,629200
1591,000000	21,593500
1590,000000	21,556900
1589,000000	21,495800
1588,000000	21,449700
1587,000000	21,403800
1586,000000	21,373000
1585,000000	21,322300
1584,000000	21,283800
1583,000000	21,258500
1582,000000	21,209900
1581,000000	21,192300
1580,000000	21,166800
1579,000000	21,146100
1578,000000	21,112900
1577,000000	21,087200
1576,000000	21,073800
1575,000000	21,052900
1574,000000	21,063500
1573,000000	21,053000
1572,000000	21,052000
1571,000000	21,060200
1570,000000	21,052100
1569,000000	21,044400
1568,000000	21,045700
1567,000000	21,052700
1566,000000	21,058800
1565,000000	21,077200
1564,000000	21,085700
1563,000000	21,093200
1562,000000	21,103300
1561,000000	21,112100
1560,000000	21,122800
1559,000000	21,126600
1558,000000	21,132600
1557,000000	21,129600
1556,000000	21,118000
1555,000000	21,120400
1554,000000	21,110800
1553,000000	21,108100
1552,000000	21,085900
1551,000000	21,070600
1550,000000	21,057000
1549,000000	21,051700
1548,000000	21,045000
1547,000000	21,030500
1546,000000	21,014800
1545,000000	20,987400
1544,000000	20,970700
1543,000000	20,970800
1542,000000	20,949000
1541,000000	20,940500
1540,000000	20,928000
1539,000000	20,909700
1538,000000	20,902100
1537,000000	20,887700
1536,000000	20,879200
1535,000000	20,860000
1534,000000	20,837600
1533,000000	20,812100
1532,000000	20,777200
1531,000000	20,770100
1530,000000	20,762500
1529,000000	20,734200
1528,000000	20,699400
1527,000000	20,667400
1526,000000	20,638900
1525,000000	20,594600
1524,000000	20,564000
1523,000000	20,532700
1522,000000	20,490400
1521,000000	20,450000
1520,000000	20,407200
1519,000000	20,375000
1518,000000	20,333300
1517,000000	20,275300
1516,000000	20,232400
1515,000000	20,203400
1514,000000	20,164900
1513,000000	20,117200
1512,000000	20,067500
1511,000000	20,019900
1510,000000	19,976600
1509,000000	19,933800
1508,000000	19,895100
1507,000000	19,840800
1506,000000	19,780600
1505,000000	19,738700
1504,000000	19,697700
1503,000000	19,635700
1502,000000	19,579200
1501,000000	19,545200
1500,000000	19,509500
1499,000000	19,472700
1498,000000	19,433200
1497,000000	19,390600
1496,000000	19,353000
1495,000000	19,321700
1494,000000	19,286000
1493,000000	19,246200
1492,000000	19,220800
1491,000000	19,194200
1490,000000	19,168200
1489,000000	19,153200
1488,000000	19,126700
1487,000000	19,090400
1486,000000	19,074600
1485,000000	19,046900
1484,000000	19,024300
1483,000000	19,001800
1482,000000	18,989400
1481,000000	18,992000
1480,000000	18,981700
1479,000000	18,959300
1478,000000	18,945900
1477,000000	18,948900
1476,000000	18,959600
1475,000000	18,951700
1474,000000	18,946800
1473,000000	18,961000
1472,000000	18,970200
1471,000000	18,980000
1470,000000	18,992300
1469,000000	18,999300
1468,000000	18,993000
1467,000000	19,003000
1466,000000	19,019500
1465,000000	19,031700
1464,000000	19,067000
1463,000000	19,086400
1462,000000	19,109000
1461,000000	19,142000
1460,000000	19,176100
1459,000000	19,225600
1458,000000	19,264100
1457,000000	19,315900
1456,000000	19,377300
1455,000000	19,430700
1454,000000	19,494800
1453,000000	19,567500
1452,000000	19,629800
1451,000000	19,710300
1450,000000	19,804500
1449,000000	19,869000
1448,000000	19,944000
1447,000000	20,029500
1446,000000	20,117600
1445,000000	20,220300
1444,000000	20,312000
1443,000000	20,376300
1442,000000	20,471900
1441,000000	20,566200
1440,000000	20,679500
1439,000000	20,770000
1438,000000	20,872700
1437,000000	20,977000
1436,000000	21,068800
1435,000000	21,164100
1434,000000	21,264900
1433,000000	21,385400
1432,000000	21,510600
1431,000000	21,626500
1430,000000	21,734400
1429,000000	21,854300
1428,000000	22,000500
1427,000000	22,145200
1426,000000	22,303900
1425,000000	22,457900
1424,000000	22,641900
1423,000000	22,819600
1422,000000	23,010700
1421,000000	23,195900
1420,000000	23,387600
1419,000000	23,597900
1418,000000	23,834400
1417,000000	24,043900
1416,000000	24,221100
1415,000000	24,426800
1414,000000	24,685300
1413,000000	24,948500
1412,000000	25,193600
1411,000000	25,422400
1410,000000	25,666400
1409,000000	25,981800
1408,000000	26,319100
1407,000000	26,675900
1406,000000	27,019400
1405,000000	27,390200
1404,000000	27,785700
1403,000000	28,129800
1402,000000	28,534700
1401,000000	28,869400
1400,000000	29,300900
1399,000000	29,725200
1398,000000	30,051800
1397,000000	30,278300
1396,000000	30,543400
1395,000000	30,906600
1394,000000	31,245700
1393,000000	31,450400
1392,000000	31,711500
1391,000000	31,978900
1390,000000	32,272900
1389,000000	32,541000
1388,000000	32,875700
1387,000000	33,287900
1386,000000	33,693700
1385,000000	34,137300
1384,000000	34,625400
1383,000000	35,148100
1382,000000	35,730200
1381,000000	36,215500
1380,000000	36,646700
1379,000000	36,877900
1378,000000	37,170500
1377,000000	37,331000
1376,000000	37,496900
1375,000000	37,684900
1374,000000	37,895700
1373,000000	38,151500
1372,000000	38,468100
1371,000000	38,838100
1370,000000	39,214200
1369,000000	39,539900
1368,000000	39,830200
1367,000000	40,114500
1366,000000	40,385700
1365,000000	40,626100
1364,000000	40,842900
1363,000000	41,035700
1362,000000	41,221500
1361,000000	41,392000
1360,000000	41,554500
1359,000000	41,632600
1358,000000	41,675500
1357,000000	41,766400
1356,000000	41,901100
1355,000000	42,133500
1354,000000	42,458200
1353,000000	42,862000
1352,000000	43,236800
1351,000000	43,737100
1350,000000	44,225400
1349,000000	44,673900
1348,000000	45,077900
1347,000000	45,481500
1346,000000	45,837300
1345,000000	46,144400
1344,000000	46,478700
1343,000000	46,829000
1342,000000	47,142800
1341,000000	47,425300
1340,000000	47,730700
1339,000000	48,013300
1338,000000	48,303300
1337,000000	48,591800
1336,000000	48,862500
1335,000000	49,133700
1334,000000	49,371900
1333,000000	49,630300
1332,000000	49,871400
1331,000000	50,111400
1330,000000	50,347000
1329,000000	50,574800
1328,000000	50,781100
1327,000000	50,984700
1326,000000	51,182500
1325,000000	51,367000
1324,000000	51,539300
1323,000000	51,710200
1322,000000	51,865000
1321,000000	52,032900
1320,000000	52,191700
1319,000000	52,321500
1318,000000	52,466300
1317,000000	52,606200
1316,000000	52,762200
1315,000000	52,863800
1314,000000	52,981000
1313,000000	53,093500
1312,000000	53,201700
1311,000000	53,305600
1310,000000	53,388900
1309,000000	53,494900
1308,000000	53,572600
1307,000000	53,657100
1306,000000	53,720700
1305,000000	53,777500
1304,000000	53,835300
1303,000000	53,892300
1302,000000	53,932300
1301,000000	53,960300
1300,000000	53,991600
1299,000000	54,021700
1298,000000	54,045700
1297,000000	54,071300
1296,000000	54,085200
1295,000000	54,087100
1294,000000	54,101200
1293,000000	54,118000
1292,000000	54,120600
1291,000000	54,116700
1290,000000	54,102800
1289,000000	54,087100
1288,000000	54,062200
1287,000000	54,036500
1286,000000	54,006700
1285,000000	53,957000
1284,000000	53,926500
1283,000000	53,872900
1282,000000	53,810800
1281,000000	53,760900
1280,000000	53,714400
1279,000000	53,653200
1278,000000	53,594700
1277,000000	53,546600
1276,000000	53,494300
1275,000000	53,448700
1274,000000	53,392000
1273,000000	53,347600
1272,000000	53,309600
1271,000000	53,264500
1270,000000	53,226200
1269,000000	53,178400
1268,000000	53,139400
1267,000000	53,102900
1266,000000	53,055100
1265,000000	53,022100
1264,000000	52,973700
1263,000000	52,932800
1262,000000	52,881500
1261,000000	52,834000
1260,000000	52,789400
1259,000000	52,756400
1258,000000	52,710400
1257,000000	52,661900
1256,000000	52,598300
1255,000000	52,539400
1254,000000	52,479300
1253,000000	52,417300
1252,000000	52,362100
1251,000000	52,291000
1250,000000	52,211500
1249,000000	52,141800
1248,000000	52,054900
1247,000000	51,972500
1246,000000	51,892100
1245,000000	51,780500
1244,000000	51,663000
1243,000000	51,555200
1242,000000	51,439900
1241,000000	51,327000
1240,000000	51,188300
1239,000000	51,048700
1238,000000	50,922100
1237,000000	50,779400
1236,000000	50,633700
1235,000000	50,489800
1234,000000	50,349800
1233,000000	50,194100
1232,000000	50,027400
1231,000000	49,859400
1230,000000	49,690400
1229,000000	49,536400
1228,000000	49,360600
1227,000000	49,180800
1226,000000	49,013000
1225,000000	48,829000
1224,000000	48,646600
1223,000000	48,470400
1222,000000	48,280600
1221,000000	48,107000
1220,000000	47,934500
1219,000000	47,759900
1218,000000	47,600700
1217,000000	47,441500
1216,000000	47,291600
1215,000000	47,147400
1214,000000	47,002300
1213,000000	46,868300
1212,000000	46,728900
1211,000000	46,596100
1210,000000	46,490700
1209,000000	46,380400
1208,000000	46,265000
1207,000000	46,153900
1206,000000	46,065400
1205,000000	46,005200
1204,000000	45,937800
1203,000000	45,896600
1202,000000	45,861700
1201,000000	45,823900
1200,000000	45,785300
1199,000000	45,737700
1198,000000	45,675900
1197,000000	45,590300
1196,000000	45,469800
1195,000000	45,312900
1194,000000	45,099300
1193,000000	44,825100
1192,000000	44,503700
1191,000000	44,123200
1190,000000	43,709200
1189,000000	43,277000
1188,000000	42,902500
1187,000000	42,598700
1186,000000	42,410500
1185,000000	42,331500
1184,000000	42,358900
1183,000000	42,509500
1182,000000	42,810800
1181,000000	43,196200
1180,000000	43,640900
1179,000000	44,134300
1178,000000	44,614500
1177,000000	45,057900
1176,000000	45,438900
1175,000000	45,786000
1174,000000	46,102300
1173,000000	46,392100
1172,000000	46,681600
1171,000000	46,995900
1170,000000	47,313900
1169,000000	47,638800
1168,000000	47,966700
1167,000000	48,297800
1166,000000	48,622500
1165,000000	48,981000
1164,000000	49,328900
1163,000000	49,679100
1162,000000	50,035400
1161,000000	50,398200
1160,000000	50,762800
1159,000000	51,118000
1158,000000	51,459700
1157,000000	51,777500
1156,000000	52,099800
1155,000000	52,391900
1154,000000	52,625500
1153,000000	52,834300
1152,000000	52,993500
1151,000000	53,113700
1150,000000	53,191100
1149,000000	53,272700
1148,000000	53,327600
1147,000000	53,407700
1146,000000	53,510300
1145,000000	53,655900
1144,000000	53,854400
1143,000000	54,130400
1142,000000	54,414500
1141,000000	54,760300
1140,000000	55,118700
1139,000000	55,477200
1138,000000	55,843700
1137,000000	56,225500
1136,000000	56,632800
1135,000000	57,057500
1134,000000	57,469800
1133,000000	57,879100
1132,000000	58,218200
1131,000000	58,568600
1130,000000	58,875100
1129,000000	59,164200
1128,000000	59,406100
1127,000000	59,617200
1126,000000	59,803800
1125,000000	59,942300
1124,000000	60,046600
1123,000000	60,154100
1122,000000	60,243200
1121,000000	60,312800
1120,000000	60,370800
1119,000000	60,422000
1118,000000	60,477200
1117,000000	60,510800
1116,000000	60,536900
1115,000000	60,530000
1114,000000	60,531100
1113,000000	60,536800
1112,000000	60,537200
1111,000000	60,545300
1110,000000	60,539100
1109,000000	60,551100
1108,000000	60,522600
1107,000000	60,520700
1106,000000	60,529400
1105,000000	60,506400
1104,000000	60,521200
1103,000000	60,523600
1102,000000	60,496800
1101,000000	60,508300
1100,000000	60,485100
1099,000000	60,491900
1098,000000	60,466000
1097,000000	60,457500
1096,000000	60,448500
1095,000000	60,420600
1094,000000	60,399200
1093,000000	60,362500
1092,000000	60,334300
1091,000000	60,321000
1090,000000	60,291100
1089,000000	60,254700
1088,000000	60,215800
1087,000000	60,196000
1086,000000	60,163600
1085,000000	60,151100
1084,000000	60,107600
1083,000000	60,074800
1082,000000	60,058200
1081,000000	60,050200
1080,000000	60,015100
1079,000000	60,002400
1078,000000	59,970100
1077,000000	59,978600
1076,000000	59,967100
1075,000000	59,956800
1074,000000	59,954900
1073,000000	59,959000
1072,000000	59,944500
1071,000000	59,944100
1070,000000	59,948800
1069,000000	59,955000
1068,000000	59,967000
1067,000000	59,977300
1066,000000	59,972900
1065,000000	59,987000
1064,000000	59,987000
1063,000000	59,979300
1062,000000	59,967700
1061,000000	59,945300
1060,000000	59,938600
1059,000000	59,925500
1058,000000	59,908100
1057,000000	59,898800
1056,000000	59,868600
1055,000000	59,864200
1054,000000	59,835000
1053,000000	59,825800
1052,000000	59,800000
1051,000000	59,801900
1050,000000	59,791500
1049,000000	59,777600
1048,000000	59,777400
1047,000000	59,796000
1046,000000	59,770500
1045,000000	59,777900
1044,000000	59,770000
1043,000000	59,773100
1042,000000	59,764600
1041,000000	59,751900
1040,000000	59,768700
1039,000000	59,771300
1038,000000	59,741600
1037,000000	59,743500
1036,000000	59,738600
1035,000000	59,710800
1034,000000	59,689400
1033,000000	59,670900
1032,000000	59,652400
1031,000000	59,628600
1030,000000	59,618000
1029,000000	59,598400
1028,000000	59,574600
1027,000000	59,552400
1026,000000	59,547400
1025,000000	59,567200
1024,000000	59,569800
1023,000000	59,575200
1022,000000	59,585900
1021,000000	59,617300
1020,000000	59,642100
1019,000000	59,690700
1018,000000	59,733300
1017,000000	59,773700
1016,000000	59,831500
1015,000000	59,865500
1014,000000	59,929700
1013,000000	59,992100
1012,000000	60,025900
1011,000000	60,099100
1010,000000	60,152500
1009,000000	60,238800
1008,000000	60,307500
1007,000000	60,373600
1006,000000	60,441100
1005,000000	60,529400
1004,000000	60,608700
1003,000000	60,690300
1002,000000	60,774100
1001,000000	60,860600
1000,000000	60,948700
999,000000	61,047100
998,000000	61,155400
997,000000	61,256500
996,000000	61,352300
995,000000	61,468200
994,000000	61,596700
993,000000	61,712900
992,000000	61,820900
991,000000	61,924600
990,000000	62,040300
989,000000	62,155300
988,000000	62,250800
987,000000	62,365600
986,000000	62,472500
985,000000	62,557800
984,000000	62,667100
983,000000	62,770900
982,000000	62,871700
981,000000	62,962400
980,000000	63,065100
979,000000	63,178300
978,000000	63,276100
977,000000	63,380600
976,000000	63,488500
975,000000	63,608600
974,000000	63,727800
973,000000	63,829400
972,000000	63,944600
971,000000	64,063000
970,000000	64,180000
969,000000	64,299100
968,000000	64,407100
967,000000	64,529500
966,000000	64,655600
965,000000	64,766700
964,000000	64,866000
963,000000	64,971500
962,000000	65,095000
961,000000	65,227700
960,000000	65,362300
959,000000	65,489900
958,000000	65,605100
957,000000	65,745900
956,000000	65,891800
955,000000	66,019200
954,000000	66,136500
953,000000	66,255300
952,000000	66,406700
951,000000	66,546600
950,000000	66,663700
949,000000	66,803600
948,000000	66,935600
947,000000	67,060100
946,000000	67,213600
945,000000	67,349200
944,000000	67,454600
943,000000	67,580700
942,000000	67,721400
941,000000	67,843800
940,000000	67,956600
939,000000	68,082600
938,000000	68,225400
937,000000	68,343800
936,000000	68,435700
935,000000	68,544500
934,000000	68,662600
933,000000	68,805100
932,000000	68,918300
931,000000	69,008800
930,000000	69,095600
929,000000	69,193400
928,000000	69,285700
927,000000	69,362900
926,000000	69,443000
925,000000	69,532400
924,000000	69,597700
923,000000	69,635700
922,000000	69,696600
921,000000	69,742900
920,000000	69,790300
919,000000	69,849000
918,000000	69,915800
917,000000	69,960700
916,000000	69,982200
915,000000	70,020700
914,000000	70,063400
913,000000	70,093400
912,000000	70,135600
911,000000	70,188900
910,000000	70,234400
909,000000	70,294800
908,000000	70,366000
907,000000	70,437300
906,000000	70,504300
905,000000	70,592100
904,000000	70,681100
903,000000	70,787200
902,000000	70,894200
901,000000	71,009200
900,000000	71,140500
899,000000	71,274000
898,000000	71,419800
897,000000	71,560900
896,000000	71,721700
895,000000	71,865400
894,000000	72,000200
893,000000	72,146900
892,000000	72,312800
891,000000	72,467400
890,000000	72,616900
889,000000	72,780200
888,000000	72,932700
887,000000	73,091300
886,000000	73,258900
885,000000	73,424200
884,000000	73,564600
883,000000	73,737700
882,000000	73,892700
881,000000	74,042100
880,000000	74,180000
879,000000	74,337400
878,000000	74,501000
877,000000	74,639200
876,000000	74,777200
875,000000	74,869200
874,000000	74,934000
873,000000	75,028200
872,000000	75,084300
871,000000	75,095500
870,000000	75,118300
869,000000	75,255300
868,000000	75,476600
867,000000	75,685900
866,000000	75,931400
865,000000	76,174500
864,000000	76,418800
863,000000	76,673400
862,000000	76,920100
861,000000	77,182400
860,000000	77,467200
859,000000	77,722300
858,000000	78,011400
857,000000	81,453100
856,000000	82,305100
855,000000	82,354700
854,000000	83,090800
853,000000	84,030900
852,000000	84,056400
851,000000	84,140200
850,000000	83,983700
849,000000	84,995700
848,000000	84,564300
847,000000	85,413000
846,000000	85,672000
845,000000	86,370600
844,000000	86,261300
843,000000	86,426900
842,000000	86,894600
841,000000	87,256400
840,000000	87,073800
839,000000	87,337000
838,000000	87,787700
837,000000	88,016300
836,000000	87,978300
835,000000	88,316600
834,000000	88,721600
833,000000	88,857800
832,000000	89,018100
831,000000	89,010900
830,000000	89,327000
829,000000	89,746200
828,000000	89,800300
827,000000	89,539200
826,000000	89,622100
825,000000	90,157200
824,000000	90,491400
823,000000	90,359100
822,000000	90,493000
821,000000	90,601800
820,000000	90,524900
819,000000	90,707700
818,000000	90,583400
817,000000	91,158400
816,000000	91,098400
815,000000	91,138500
814,000000	91,399300
813,000000	91,316400
812,000000	91,210900
811,000000	91,603900
810,000000	91,445800
809,000000	91,905200
808,000000	91,792200
807,000000	91,901900
806,000000	91,898400
805,000000	91,941600
804,000000	92,064600
803,000000	92,136100
802,000000	92,051700
801,000000	92,103700
800,000000	92,234800
799,000000	91,853100
798,000000	92,008700
797,000000	92,173700
796,000000	92,026900
795,000000	91,889300
794,000000	91,782900
793,000000	91,818200
792,000000	91,994500
791,000000	91,927700
790,000000	91,874500
789,000000	91,807300
788,000000	91,663100
787,000000	91,653400
786,000000	91,464000
785,000000	91,440900
784,000000	91,470800
783,000000	91,395100
782,000000	91,364800
781,000000	91,327700
780,000000	91,162300
779,000000	91,083000
778,000000	91,028800
777,000000	90,744800
776,000000	90,626000
775,000000	90,585000
774,000000	90,565500
773,000000	90,413200
772,000000	90,195600
771,000000	89,987500
770,000000	89,842500
769,000000	89,814600
768,000000	89,582100
767,000000	89,476000
766,000000	89,198100
765,000000	89,282900
764,000000	89,084900
763,000000	88,816200
762,000000	88,567500
761,000000	88,706900
760,000000	88,390200
759,000000	88,070700
758,000000	88,001900
757,000000	87,855400
756,000000	87,613500
755,000000	87,415900
754,000000	87,231700
753,000000	86,988500
752,000000	86,870000
751,000000	86,576800
750,000000	86,273100
749,000000	85,924800
748,000000	85,853100
747,000000	85,519200
746,000000	85,207200
745,000000	84,910900
744,000000	84,721400
743,000000	84,267800
742,000000	83,941800
741,000000	83,582500
740,000000	83,399500
739,000000	83,082700
738,000000	82,734200
737,000000	82,469500
736,000000	82,113000
735,000000	81,706400
734,000000	81,465100
733,000000	81,113900
732,000000	80,789000
731,000000	80,423400
730,000000	79,990600
729,000000	79,640400
728,000000	79,314600
727,000000	78,900200
726,000000	78,465700
725,000000	78,143700
724,000000	77,661600
723,000000	77,287600
722,000000	76,820200
721,000000	76,386600
720,000000	76,025500
719,000000	75,564800
718,000000	75,043900
717,000000	74,593800
716,000000	74,141000
715,000000	73,682700
714,000000	73,168000
713,000000	72,586800
712,000000	72,101800
711,000000	71,496100
710,000000	70,892900
709,000000	70,230400
708,000000	69,578300
707,000000	68,872800
706,000000	68,064700
705,000000	67,281700
704,000000	66,423600
703,000000	65,472900
702,000000	64,535700
701,000000	63,604600
700,000000	62,691700
699,000000	61,813300
698,000000	60,862100
697,000000	60,011200
696,000000	59,205700
695,000000	58,481000
694,000000	57,829800
693,000000	57,224000
692,000000	56,687300
691,000000	56,209300
690,000000	55,812700
689,000000	55,497500
688,000000	55,276700
687,000000	55,115600
686,000000	55,024000
685,000000	55,000200
684,000000	54,966000
683,000000	54,958300
682,000000	55,055300
681,000000	55,204900
680,000000	55,353500
679,000000	55,545100
678,000000	55,745900
677,000000	56,066800
676,000000	56,417200
675,000000	56,835300
674,000000	57,333600
673,000000	57,887900
672,000000	58,461600
671,000000	59,099500
670,000000	59,876400
669,000000	60,696400
668,000000	61,536300
667,000000	62,403200
666,000000	63,264700
665,000000	64,196800
664,000000	65,152800
663,000000	66,121000
662,000000	67,052500
661,000000	67,920100
660,000000	68,709500
659,000000	69,439500
658,000000	70,123600
657,000000	70,702400
656,000000	71,223800
655,000000	71,770000
654,000000	72,276300
653,000000	72,735600
652,000000	73,131300
651,000000	73,575500
650,000000	74,085800
649,000000	74,605200
648,000000	75,128300
647,000000	75,690700
646,000000	76,296600
645,000000	76,978300
644,000000	77,721900
643,000000	78,483200
642,000000	79,257600
641,000000	79,997000
640,000000	80,676800
639,000000	81,329300
638,000000	81,984300
637,000000	82,579100
636,000000	83,110400
635,000000	83,615700
634,000000	84,086100
633,000000	84,506200
632,000000	84,870500
631,000000	85,225300
630,000000	85,567300
629,000000	85,904300
628,000000	86,182100
627,000000	86,446300
626,000000	86,707300
625,000000	87,032000
624,000000	87,380200
623,000000	87,664200
622,000000	87,953500
621,000000	88,236500
620,000000	88,570700
619,000000	88,846000
618,000000	89,106100
617,000000	89,375900
616,000000	89,576600
615,000000	89,788700
614,000000	89,968100
613,000000	90,147700
612,000000	90,283800
611,000000	90,396400
610,000000	90,485200
609,000000	90,503400
608,000000	90,543900
607,000000	90,573500
606,000000	90,545900
605,000000	90,554600
604,000000	90,460500
603,000000	90,372500
602,000000	90,299400
601,000000	90,214100
600,000000	90,158200
599,000000	90,060800
598,000000	89,878000
597,000000	89,713900
596,000000	89,580700
595,000000	89,390700
594,000000	89,218500
593,000000	89,032800
592,000000	88,855300
591,000000	88,613200
590,000000	88,409600
589,000000	88,175800
588,000000	87,927500
587,000000	87,693100
586,000000	87,435000
585,000000	87,126000
584,000000	86,845000
583,000000	86,519700
582,000000	86,183500
581,000000	85,826700
580,000000	85,434300
579,000000	85,062000
578,000000	84,671200
577,000000	84,252000
576,000000	83,817800
575,000000	83,312500
574,000000	82,825900
573,000000	82,346600
572,000000	81,761600
571,000000	81,166500
570,000000	80,549800
569,000000	79,911300
568,000000	79,186200
567,000000	78,465600
566,000000	77,731700
565,000000	76,906800
564,000000	76,079100
563,000000	75,173400
562,000000	74,266200
561,000000	73,262700
560,000000	72,258300
559,000000	71,089600
558,000000	69,965000
557,000000	68,786800
556,000000	67,607100
555,000000	66,342400
554,000000	65,034400
553,000000	63,730800
552,000000	62,329900
551,000000	60,904500
550,000000	59,547200
549,000000	58,178500
548,000000	56,821100
547,000000	55,517600
546,000000	54,240300
545,000000	53,030300
544,000000	51,856100
543,000000	50,753300
542,000000	49,698100
541,000000	48,727300
540,000000	47,845800
539,000000	47,022200
538,000000	46,227700
537,000000	45,528900
536,000000	44,885600
535,000000	44,286100
534,000000	43,745100
533,000000	43,259200
532,000000	42,786000
531,000000	42,347800
530,000000	41,922300
529,000000	41,499500
528,000000	41,094000
527,000000	40,733700
526,000000	40,361500
525,000000	39,985600
524,000000	39,604000
523,000000	39,248500
522,000000	38,775500
521,000000	38,348200
520,000000	37,869500
519,000000	37,383500
518,000000	36,878500
517,000000	36,311500
516,000000	35,776400
515,000000	35,177500
514,000000	34,506800
513,000000	33,828000
512,000000	33,131000
511,000000	32,381700
510,000000	31,629100
509,000000	30,867200
508,000000	30,132700
507,000000	29,381800
506,000000	28,661200
505,000000	27,930300
504,000000	27,240500
503,000000	26,604100
502,000000	26,028700
501,000000	25,528800
500,000000	25,127100
499,000000	24,770800
498,000000	24,511700
497,000000	24,328500
496,000000	24,226200
495,000000	24,195600
494,000000	24,234800
493,000000	24,356200
492,000000	24,511200
491,000000	24,717400
490,000000	24,973300
489,000000	25,245300
488,000000	25,506300
487,000000	25,822500
486,000000	26,158000
485,000000	26,445900
484,000000	26,750600
483,000000	27,023300
482,000000	27,270500
481,000000	27,452500
480,000000	27,676900
479,000000	27,822500
478,000000	28,008900
477,000000	28,162600
476,000000	28,260700
475,000000	28,340900
474,000000	28,397100
473,000000	28,459400
472,000000	28,489900
471,000000	28,502400
470,000000	28,503500
469,000000	28,486800
468,000000	28,414100
467,000000	28,364700
466,000000	28,327500
465,000000	28,239700
464,000000	28,164100
463,000000	28,083700
462,000000	27,943400
461,000000	27,794000
460,000000	27,692900
459,000000	27,566000
458,000000	27,430900
457,000000	27,274500
456,000000	27,065400
455,000000	26,837300
454,000000	26,663900
453,000000	26,453600
452,000000	26,241400
451,000000	26,025100
450,000000	25,746800
449,000000	25,499200
448,000000	25,217400
447,000000	24,954000
446,000000	24,653100
445,000000	24,327700
444,000000	23,994300
443,000000	23,619300
442,000000	23,282800
441,000000	22,913600
440,000000	22,510600
439,000000	22,117500
438,000000	21,670000
437,000000	21,259200
436,000000	20,824000
435,000000	20,413000
434,000000	19,958300
433,000000	19,498100
432,000000	19,000000
431,000000	18,560100
430,000000	18,073900
429,000000	17,593500
428,000000	17,127400
427,000000	16,616700
426,000000	16,178400
425,000000	15,703900
424,000000	15,211300
423,000000	14,733900
422,000000	14,257000
421,000000	13,800200
420,000000	13,345800
419,000000	12,927100
418,000000	12,508400
417,000000	12,087700
416,000000	11,689400
415,000000	11,311700
414,000000	10,936300
413,000000	10,604900
412,000000	10,284700
411,000000	9,981300
410,000000	9,686800
409,000000	9,392500
408,000000	9,148100
407,000000	8,937300
406,000000	8,713100
405,000000	8,516200
404,000000	8,329100
403,000000	8,147800
402,000000	8,003700
401,000000	7,852100
400,000000	7,734800
399,000000	7,606900
398,000000	7,487500
397,000000	7,382600
396,000000	7,294900
395,000000	7,203400
394,000000	7,117800
393,000000	7,030000
392,000000	6,979700
391,000000	6,907800
390,000000	6,841900
389,000000	6,781100
388,000000	6,706700
387,000000	6,675100
386,000000	6,632100
385,000000	6,571700
384,000000	6,520400
383,000000	6,464200
382,000000	6,439900
381,000000	6,411800
380,000000	6,369100
379,000000	6,349400
378,000000	6,304600
377,000000	6,255700
376,000000	6,233800
375,000000	6,274200
374,000000	6,300000
373,000000	6,245600
372,000000	6,205900
371,000000	6,200800
370,000000	6,215500
369,000000	6,092900
368,000000	6,014100
367,000000	6,057900
366,000000	6,040800
365,000000	6,041100
364,000000	6,035300
363,000000	5,996800
362,000000	5,926200
361,000000	5,911300
360,000000	5,889500
359,000000	5,870400
358,000000	5,858300
357,000000	5,854400
356,000000	5,741200
355,000000	5,743200
354,000000	5,807900
353,000000	5,730000
352,000000	5,689200
351,000000	5,658200
350,000000	5,629300
349,000000	5,668600
348,000000	5,673500
347,000000	5,713300
346,000000	5,656800
345,000000	5,642400
344,000000	5,634600
343,000000	5,498800
342,000000	5,534800
341,000000	5,558400
340,000000	5,524800
339,000000	5,559400
338,000000	5,543700
337,000000	5,541000
336,000000	5,595100
335,000000	5,549300
334,000000	5,539100
333,000000	5,542700
332,000000	5,538800
331,000000	5,546000
330,000000	5,503100
329,000000	5,487100
328,000000	5,505800
327,000000	5,559400
326,000000	5,555600
325,000000	5,526900
324,000000	5,499200
323,000000	5,545500
322,000000	5,600400
321,000000	5,591700
320,000000	5,524100
319,000000	5,564300
318,000000	5,716400
317,000000	5,694900
316,000000	5,546000
315,000000	5,497800
314,000000	5,491600
313,000000	5,498800
312,000000	5,517000
311,000000	5,520700
310,000000	5,516100
309,000000	5,515500
308,000000	5,503300
307,000000	5,501800
306,000000	5,529900
305,000000	5,549700
304,000000	5,548600
303,000000	5,544300
302,000000	5,565300
301,000000	5,575900
300,000000	5,563200
299,000000	5,582500
298,000000	5,587500
297,000000	5,591300
296,000000	5,600400
295,000000	5,569700
294,000000	5,600100
293,000000	5,630200
292,000000	5,580700
291,000000	5,584100
290,000000	5,634500
289,000000	5,650900
288,000000	5,629800
287,000000	5,635200
286,000000	5,651600
285,000000	5,656500
284,000000	5,677000
283,000000	5,660600
282,000000	5,700800
281,000000	5,741500
280,000000	5,727900
279,000000	5,751800
278,000000	5,758700
277,000000	5,775800
276,000000	5,799600
275,000000	5,785300
274,000000	5,788100
273,000000	5,778300
272,000000	5,797100
271,000000	5,851900
270,000000	5,839500
269,000000	5,875000
268,000000	5,890100
267,000000	5,898800
266,000000	5,916500
265,000000	5,940700
264,000000	5,999900
263,000000	5,990600
262,000000	6,007200
261,000000	6,044900
260,000000	6,086600
259,000000	6,044800
258,000000	6,082500
257,000000	6,116900
256,000000	6,130100
255,000000	6,129800
254,000000	6,153500
253,000000	6,163300
252,000000	6,161500
251,000000	6,191000
250,000000	6,178700
