PE UV       SUBTECH     SPECTRUM    ASCII       PEDS        4.00        
   -1
CICIMAUCR0239-3.Sample.ASC
24/06/20
12:23:16.00
24/06/20
12:23:16.00
Vinicio Soto Monge
C. cupreomarginata. Sex M. Dorsal.
250,000000
1
Lambda 1050
1050L1511233
PerkinElmer UV WinLab 6.3.2.0749 / 2.02.05 Lambda 900 UV/VIS/NIR, Aug  7 2015 09:38:08

0
0
3350/servo 860,8/2
0
0
UV/VIS
1
1
1
DoubleDePol,CommonBeamDepol,RBeamAtt,SBeamAtt,60mm sphere, WB InGaAs Detector
0
0
0
0
Program
Program
3350/servo 860,8/2
3350/0,2 860,8/0,2
3350/0,2 860,8/0,2
0
15.00
 
 
 
0
 
860,8
319,2
860,8
Front
100
on
S:100 R:100
0
0
0
0
 
0
 
 
 
0
 
 
0
0
0
0
0
 
 
 
 
0
0


0
0
#HDR
-1
-1
#GR
nm
%R
1.0
0.0
2500,000000
-1,000000
2251
8
71,550600
5,249000
#DATA
2500,000000	8,795800
2499,000000	8,712700
2498,000000	8,806100
2497,000000	8,797400
2496,000000	8,875100
2495,000000	8,799400
2494,000000	8,798300
2493,000000	8,730100
2492,000000	8,747200
2491,000000	8,745000
2490,000000	8,713400
2489,000000	8,676500
2488,000000	8,751000
2487,000000	8,694500
2486,000000	8,740300
2485,000000	8,664400
2484,000000	8,765600
2483,000000	8,733700
2482,000000	8,651600
2481,000000	8,701400
2480,000000	8,733900
2479,000000	8,784000
2478,000000	8,717800
2477,000000	8,715000
2476,000000	8,775400
2475,000000	8,723400
2474,000000	8,728000
2473,000000	8,782900
2472,000000	8,797800
2471,000000	8,747200
2470,000000	8,749900
2469,000000	8,819000
2468,000000	8,808800
2467,000000	8,811800
2466,000000	8,831400
2465,000000	8,850900
2464,000000	8,844100
2463,000000	8,864100
2462,000000	8,905000
2461,000000	8,971600
2460,000000	9,024500
2459,000000	9,029100
2458,000000	9,075900
2457,000000	9,134700
2456,000000	9,151000
2455,000000	9,226000
2454,000000	9,287100
2453,000000	9,348900
2452,000000	9,397800
2451,000000	9,459500
2450,000000	9,528700
2449,000000	9,596100
2448,000000	9,641900
2447,000000	9,735000
2446,000000	9,805900
2445,000000	9,881600
2444,000000	9,935000
2443,000000	9,986800
2442,000000	10,056500
2441,000000	10,118000
2440,000000	10,199000
2439,000000	10,272400
2438,000000	10,314000
2437,000000	10,387400
2436,000000	10,452600
2435,000000	10,514100
2434,000000	10,577500
2433,000000	10,636000
2432,000000	10,689300
2431,000000	10,747000
2430,000000	10,768500
2429,000000	10,835200
2428,000000	10,879500
2427,000000	10,924000
2426,000000	10,976500
2425,000000	11,021000
2424,000000	11,058500
2423,000000	11,110000
2422,000000	11,137400
2421,000000	11,174900
2420,000000	11,224100
2419,000000	11,253100
2418,000000	11,292800
2417,000000	11,329200
2416,000000	11,365200
2415,000000	11,388500
2414,000000	11,421900
2413,000000	11,445200
2412,000000	11,480200
2411,000000	11,509700
2410,000000	11,540800
2409,000000	11,569300
2408,000000	11,593800
2407,000000	11,626000
2406,000000	11,650400
2405,000000	11,676700
2404,000000	11,711300
2403,000000	11,731400
2402,000000	11,758700
2401,000000	11,802400
2400,000000	11,828500
2399,000000	11,858300
2398,000000	11,885900
2397,000000	11,923300
2396,000000	11,950100
2395,000000	11,964300
2394,000000	11,998000
2393,000000	12,029200
2392,000000	12,050800
2391,000000	12,081100
2390,000000	12,102300
2389,000000	12,113600
2388,000000	12,135400
2387,000000	12,168600
2386,000000	12,180800
2385,000000	12,189500
2384,000000	12,190400
2383,000000	12,198500
2382,000000	12,210800
2381,000000	12,219700
2380,000000	12,239200
2379,000000	12,228400
2378,000000	12,208200
2377,000000	12,204800
2376,000000	12,201500
2375,000000	12,203800
2374,000000	12,195500
2373,000000	12,175000
2372,000000	12,164700
2371,000000	12,148600
2370,000000	12,119300
2369,000000	12,096200
2368,000000	12,074900
2367,000000	12,037200
2366,000000	11,994000
2365,000000	11,968500
2364,000000	11,934800
2363,000000	11,882000
2362,000000	11,841200
2361,000000	11,799900
2360,000000	11,754200
2359,000000	11,704500
2358,000000	11,660000
2357,000000	11,621000
2356,000000	11,573600
2355,000000	11,541200
2354,000000	11,505700
2353,000000	11,473500
2352,000000	11,478100
2351,000000	11,498000
2350,000000	11,503800
2349,000000	11,518500
2348,000000	11,544800
2347,000000	11,559500
2346,000000	11,588900
2345,000000	11,621600
2344,000000	11,661300
2343,000000	11,700000
2342,000000	11,736600
2341,000000	11,768700
2340,000000	11,804500
2339,000000	11,836900
2338,000000	11,855700
2337,000000	11,864600
2336,000000	11,868400
2335,000000	11,876000
2334,000000	11,860300
2333,000000	11,844700
2332,000000	11,831700
2331,000000	11,805300
2330,000000	11,754700
2329,000000	11,712800
2328,000000	11,681400
2327,000000	11,632900
2326,000000	11,563000
2325,000000	11,492000
2324,000000	11,416200
2323,000000	11,348600
2322,000000	11,258100
2321,000000	11,182000
2320,000000	11,083000
2319,000000	10,991100
2318,000000	10,896600
2317,000000	10,775500
2316,000000	10,673600
2315,000000	10,571800
2314,000000	10,466200
2313,000000	10,379600
2312,000000	10,280100
2311,000000	10,191200
2310,000000	10,117800
2309,000000	10,044800
2308,000000	9,997000
2307,000000	9,959100
2306,000000	9,935100
2305,000000	9,905200
2304,000000	9,906800
2303,000000	9,939000
2302,000000	9,976400
2301,000000	10,021500
2300,000000	10,088100
2299,000000	10,168000
2298,000000	10,247300
2297,000000	10,303000
2296,000000	10,382400
2295,000000	10,470700
2294,000000	10,535100
2293,000000	10,593600
2292,000000	10,677200
2291,000000	10,726900
2290,000000	10,759400
2289,000000	10,775800
2288,000000	10,787700
2287,000000	10,783700
2286,000000	10,783500
2285,000000	10,778200
2284,000000	10,751900
2283,000000	10,710700
2282,000000	10,660700
2281,000000	10,624700
2280,000000	10,550500
2279,000000	10,506000
2278,000000	10,465100
2277,000000	10,415500
2276,000000	10,358200
2275,000000	10,300000
2274,000000	10,260500
2273,000000	10,261900
2272,000000	10,204700
2271,000000	10,183600
2270,000000	10,198800
2269,000000	10,233400
2268,000000	10,229900
2267,000000	10,278700
2266,000000	10,328600
2265,000000	10,430900
2264,000000	10,538600
2263,000000	10,635700
2262,000000	10,767100
2261,000000	10,930200
2260,000000	11,106500
2259,000000	11,283600
2258,000000	11,459600
2257,000000	11,658500
2256,000000	11,884700
2255,000000	12,094200
2254,000000	12,299600
2253,000000	12,510900
2252,000000	12,692100
2251,000000	12,881300
2250,000000	13,077900
2249,000000	13,255400
2248,000000	13,408000
2247,000000	13,577500
2246,000000	13,737400
2245,000000	13,843700
2244,000000	13,975100
2243,000000	14,072700
2242,000000	14,179300
2241,000000	14,278400
2240,000000	14,365400
2239,000000	14,452500
2238,000000	14,538000
2237,000000	14,617900
2236,000000	14,664100
2235,000000	14,731000
2234,000000	14,781200
2233,000000	14,836100
2232,000000	14,901800
2231,000000	14,904600
2230,000000	14,931600
2229,000000	14,963700
2228,000000	14,966800
2227,000000	14,984400
2226,000000	14,992400
2225,000000	15,005800
2224,000000	15,012400
2223,000000	14,995000
2222,000000	14,973000
2221,000000	14,968100
2220,000000	14,941300
2219,000000	14,920000
2218,000000	14,919100
2217,000000	14,880600
2216,000000	14,862200
2215,000000	14,828300
2214,000000	14,811800
2213,000000	14,800000
2212,000000	14,763800
2211,000000	14,746400
2210,000000	14,725300
2209,000000	14,697500
2208,000000	14,665200
2207,000000	14,633900
2206,000000	14,638800
2205,000000	14,614300
2204,000000	14,581800
2203,000000	14,573100
2202,000000	14,556500
2201,000000	14,563200
2200,000000	14,544300
2199,000000	14,530100
2198,000000	14,490000
2197,000000	14,485900
2196,000000	14,470900
2195,000000	14,455600
2194,000000	14,442000
2193,000000	14,437300
2192,000000	14,416800
2191,000000	14,412900
2190,000000	14,405500
2189,000000	14,382400
2188,000000	14,385000
2187,000000	14,374800
2186,000000	14,356200
2185,000000	14,340300
2184,000000	14,326900
2183,000000	14,301200
2182,000000	14,308300
2181,000000	14,309000
2180,000000	14,292300
2179,000000	14,277400
2178,000000	14,274300
2177,000000	14,279600
2176,000000	14,269300
2175,000000	14,250900
2174,000000	14,242900
2173,000000	14,275600
2172,000000	14,268900
2171,000000	14,266800
2170,000000	14,272300
2169,000000	14,282000
2168,000000	14,302900
2167,000000	14,315500
2166,000000	14,314800
2165,000000	14,335700
2164,000000	14,354000
2163,000000	14,376700
2162,000000	14,392200
2161,000000	14,411200
2160,000000	14,444300
2159,000000	14,482700
2158,000000	14,504300
2157,000000	14,545000
2156,000000	14,561200
2155,000000	14,595300
2154,000000	14,621100
2153,000000	14,652700
2152,000000	14,692000
2151,000000	14,743900
2150,000000	14,787200
2149,000000	14,811700
2148,000000	14,849300
2147,000000	14,885500
2146,000000	14,928500
2145,000000	14,964800
2144,000000	14,979200
2143,000000	15,005000
2142,000000	15,031800
2141,000000	15,053600
2140,000000	15,086700
2139,000000	15,100100
2138,000000	15,131400
2137,000000	15,167100
2136,000000	15,186700
2135,000000	15,194100
2134,000000	15,197900
2133,000000	15,202300
2132,000000	15,210400
2131,000000	15,212200
2130,000000	15,223500
2129,000000	15,230100
2128,000000	15,228300
2127,000000	15,230300
2126,000000	15,225800
2125,000000	15,221100
2124,000000	15,206000
2123,000000	15,191500
2122,000000	15,169900
2121,000000	15,148300
2120,000000	15,138600
2119,000000	15,118600
2118,000000	15,099500
2117,000000	15,071100
2116,000000	15,052600
2115,000000	15,027700
2114,000000	14,986800
2113,000000	14,957200
2112,000000	14,927100
2111,000000	14,904800
2110,000000	14,880000
2109,000000	14,860400
2108,000000	14,827000
2107,000000	14,784400
2106,000000	14,765100
2105,000000	14,740900
2104,000000	14,697400
2103,000000	14,660600
2102,000000	14,642600
2101,000000	14,610400
2100,000000	14,581700
2099,000000	14,542400
2098,000000	14,508200
2097,000000	14,496600
2096,000000	14,466000
2095,000000	14,437000
2094,000000	14,418700
2093,000000	14,390400
2092,000000	14,359700
2091,000000	14,338900
2090,000000	14,323800
2089,000000	14,292300
2088,000000	14,263500
2087,000000	14,235800
2086,000000	14,217700
2085,000000	14,201600
2084,000000	14,172800
2083,000000	14,148700
2082,000000	14,122500
2081,000000	14,081100
2080,000000	14,042700
2079,000000	14,015900
2078,000000	13,973100
2077,000000	13,935600
2076,000000	13,923500
2075,000000	13,886100
2074,000000	13,840900
2073,000000	13,808000
2072,000000	13,773800
2071,000000	13,738400
2070,000000	13,703900
2069,000000	13,648200
2068,000000	13,595200
2067,000000	13,561600
2066,000000	13,523400
2065,000000	13,487900
2064,000000	13,457700
2063,000000	13,425300
2062,000000	13,397100
2061,000000	13,372100
2060,000000	13,344300
2059,000000	13,306700
2058,000000	13,279600
2057,000000	13,276400
2056,000000	13,268300
2055,000000	13,260300
2054,000000	13,261600
2053,000000	13,271800
2052,000000	13,300800
2051,000000	13,326400
2050,000000	13,343400
2049,000000	13,368900
2048,000000	13,407800
2047,000000	13,448800
2046,000000	13,513100
2045,000000	13,580400
2044,000000	13,622800
2043,000000	13,681100
2042,000000	13,731300
2041,000000	13,783300
2040,000000	13,832300
2039,000000	13,885700
2038,000000	13,942200
2037,000000	13,997700
2036,000000	14,045400
2035,000000	14,079200
2034,000000	14,114400
2033,000000	14,153900
2032,000000	14,185400
2031,000000	14,211900
2030,000000	14,235600
2029,000000	14,264900
2028,000000	14,260000
2027,000000	14,279600
2026,000000	14,294900
2025,000000	14,315700
2024,000000	14,310900
2023,000000	14,309800
2022,000000	14,326200
2021,000000	14,329800
2020,000000	14,312800
2019,000000	14,319600
2018,000000	14,300900
2017,000000	14,291900
2016,000000	14,291700
2015,000000	14,277400
2014,000000	14,257900
2013,000000	14,237000
2012,000000	14,221100
2011,000000	14,188300
2010,000000	14,151000
2009,000000	14,116600
2008,000000	14,090600
2007,000000	14,044800
2006,000000	14,024100
2005,000000	13,986200
2004,000000	13,932600
2003,000000	13,892000
2002,000000	13,843700
2001,000000	13,778800
2000,000000	13,729100
1999,000000	13,673800
1998,000000	13,634500
1997,000000	13,540900
1996,000000	13,484700
1995,000000	13,426000
1994,000000	13,358800
1993,000000	13,297400
1992,000000	13,211000
1991,000000	13,158600
1990,000000	13,077700
1989,000000	13,004300
1988,000000	12,941600
1987,000000	12,850100
1986,000000	12,766700
1985,000000	12,702100
1984,000000	12,636300
1983,000000	12,543500
1982,000000	12,449500
1981,000000	12,383700
1980,000000	12,311700
1979,000000	12,233600
1978,000000	12,151300
1977,000000	12,093100
1976,000000	11,987500
1975,000000	11,925800
1974,000000	11,831100
1973,000000	11,775900
1972,000000	11,706500
1971,000000	11,607200
1970,000000	11,549200
1969,000000	11,479700
1968,000000	11,398600
1967,000000	11,331600
1966,000000	11,258500
1965,000000	11,190600
1964,000000	11,142400
1963,000000	11,073300
1962,000000	11,011200
1961,000000	10,915300
1960,000000	10,849800
1959,000000	10,796600
1958,000000	10,733500
1957,000000	10,675500
1956,000000	10,614300
1955,000000	10,561300
1954,000000	10,497300
1953,000000	10,441900
1952,000000	10,382500
1951,000000	10,340300
1950,000000	10,291000
1949,000000	10,234900
1948,000000	10,185900
1947,000000	10,139500
1946,000000	10,106500
1945,000000	10,077100
1944,000000	10,035800
1943,000000	9,980700
1942,000000	9,953700
1941,000000	9,947400
1940,000000	9,935500
1939,000000	9,933700
1938,000000	9,908600
1937,000000	9,945300
1936,000000	9,940400
1935,000000	9,915500
1934,000000	9,910700
1933,000000	9,943400
1932,000000	9,956800
1931,000000	9,987200
1930,000000	10,021200
1929,000000	10,067800
1928,000000	10,131300
1927,000000	10,202400
1926,000000	10,255600
1925,000000	10,324100
1924,000000	10,391500
1923,000000	10,438800
1922,000000	10,540700
1921,000000	10,651500
1920,000000	10,756600
1919,000000	10,886000
1918,000000	11,016100
1917,000000	11,099400
1916,000000	11,190400
1915,000000	11,282900
1914,000000	11,421700
1913,000000	11,590000
1912,000000	11,794700
1911,000000	11,989000
1910,000000	12,124400
1909,000000	12,247600
1908,000000	12,378800
1907,000000	12,530100
1906,000000	12,713600
1905,000000	12,966100
1904,000000	13,249800
1903,000000	13,454000
1902,000000	13,671500
1901,000000	13,894800
1900,000000	14,106800
1899,000000	14,386500
1898,000000	14,686700
1897,000000	14,968000
1896,000000	15,202400
1895,000000	15,444900
1894,000000	15,657100
1893,000000	15,915900
1892,000000	16,226300
1891,000000	16,624900
1890,000000	17,013100
1889,000000	17,360800
1888,000000	17,726500
1887,000000	18,081200
1886,000000	18,458100
1885,000000	18,868100
1884,000000	19,338500
1883,000000	19,827700
1882,000000	20,355400
1881,000000	20,819200
1880,000000	21,291500
1879,000000	21,723800
1878,000000	22,168000
1877,000000	22,626400
1876,000000	23,063900
1875,000000	23,507900
1874,000000	23,936400
1873,000000	24,368700
1872,000000	24,786200
1871,000000	25,149500
1870,000000	25,512400
1869,000000	25,842700
1868,000000	26,141200
1867,000000	26,371200
1866,000000	26,560700
1865,000000	26,710900
1864,000000	26,851400
1863,000000	26,960700
1862,000000	27,078200
1861,000000	27,228100
1860,000000	27,381000
1859,000000	27,525300
1858,000000	27,656700
1857,000000	27,759900
1856,000000	27,821700
1855,000000	27,873200
1854,000000	27,927600
1853,000000	27,978900
1852,000000	28,001000
1851,000000	28,011200
1850,000000	28,018200
1849,000000	28,013600
1848,000000	28,030100
1847,000000	28,082400
1846,000000	28,107400
1845,000000	28,077900
1844,000000	28,016100
1843,000000	27,964600
1842,000000	27,953400
1841,000000	27,999800
1840,000000	28,015200
1839,000000	28,019000
1838,000000	28,005200
1837,000000	27,976400
1836,000000	27,955500
1835,000000	27,947500
1834,000000	27,899700
1833,000000	27,837600
1832,000000	27,773500
1831,000000	27,711300
1830,000000	27,658100
1829,000000	27,642400
1828,000000	27,608300
1827,000000	27,547100
1826,000000	27,494600
1825,000000	27,461000
1824,000000	27,404600
1823,000000	27,348700
1822,000000	27,327200
1821,000000	27,328000
1820,000000	27,337100
1819,000000	27,334200
1818,000000	27,299600
1817,000000	27,276300
1816,000000	27,250400
1815,000000	27,236900
1814,000000	27,229900
1813,000000	27,226600
1812,000000	27,225700
1811,000000	27,211600
1810,000000	27,195000
1809,000000	27,172500
1808,000000	27,144000
1807,000000	27,107600
1806,000000	27,087900
1805,000000	27,058000
1804,000000	27,014700
1803,000000	26,977700
1802,000000	26,941600
1801,000000	26,922400
1800,000000	26,890300
1799,000000	26,839400
1798,000000	26,798600
1797,000000	26,766500
1796,000000	26,721900
1795,000000	26,681100
1794,000000	26,655800
1793,000000	26,628700
1792,000000	26,595100
1791,000000	26,550900
1790,000000	26,511600
1789,000000	26,465900
1788,000000	26,421300
1787,000000	26,382600
1786,000000	26,328900
1785,000000	26,282400
1784,000000	26,242100
1783,000000	26,190600
1782,000000	26,140200
1781,000000	26,083000
1780,000000	26,039200
1779,000000	25,977800
1778,000000	25,908600
1777,000000	25,861000
1776,000000	25,806100
1775,000000	25,720500
1774,000000	25,639900
1773,000000	25,560200
1772,000000	25,484200
1771,000000	25,409200
1770,000000	25,320800
1769,000000	25,230000
1768,000000	25,137400
1767,000000	25,062100
1766,000000	24,974800
1765,000000	24,913700
1764,000000	24,874800
1763,000000	24,834300
1762,000000	24,820200
1761,000000	24,828400
1760,000000	24,863500
1759,000000	24,914000
1758,000000	24,960000
1757,000000	25,036700
1756,000000	25,102600
1755,000000	25,162200
1754,000000	25,206800
1753,000000	25,244200
1752,000000	25,266700
1751,000000	25,276400
1750,000000	25,276400
1749,000000	25,266400
1748,000000	25,249100
1747,000000	25,208700
1746,000000	25,167400
1745,000000	25,107800
1744,000000	25,027500
1743,000000	24,917500
1742,000000	24,787800
1741,000000	24,636200
1740,000000	24,488500
1739,000000	24,315800
1738,000000	24,141800
1737,000000	23,956900
1736,000000	23,827200
1735,000000	23,707000
1734,000000	23,598900
1733,000000	23,528600
1732,000000	23,513500
1731,000000	23,514600
1730,000000	23,552000
1729,000000	23,629300
1728,000000	23,705300
1727,000000	23,783800
1726,000000	23,868300
1725,000000	23,933500
1724,000000	24,001700
1723,000000	24,066300
1722,000000	24,110000
1721,000000	24,146800
1720,000000	24,177300
1719,000000	24,196500
1718,000000	24,231600
1717,000000	24,280100
1716,000000	24,330600
1715,000000	24,370300
1714,000000	24,450700
1713,000000	24,509200
1712,000000	24,562300
1711,000000	24,624500
1710,000000	24,680600
1709,000000	24,701000
1708,000000	24,689700
1707,000000	24,683200
1706,000000	24,669700
1705,000000	24,618000
1704,000000	24,575600
1703,000000	24,506800
1702,000000	24,430300
1701,000000	24,343100
1700,000000	24,234300
1699,000000	24,111400
1698,000000	23,964400
1697,000000	23,835600
1696,000000	23,719200
1695,000000	23,646400
1694,000000	23,604300
1693,000000	23,614700
1692,000000	23,692700
1691,000000	23,788100
1690,000000	23,907400
1689,000000	24,046500
1688,000000	24,146700
1687,000000	24,216300
1686,000000	24,260200
1685,000000	24,311500
1684,000000	24,346900
1683,000000	24,440500
1682,000000	24,592700
1681,000000	24,804300
1680,000000	25,104800
1679,000000	25,488900
1678,000000	25,910100
1677,000000	26,336400
1676,000000	26,724000
1675,000000	27,113000
1674,000000	27,440800
1673,000000	27,759800
1672,000000	27,998300
1671,000000	28,188500
1670,000000	28,388200
1669,000000	28,552100
1668,000000	28,679500
1667,000000	28,796300
1666,000000	28,880900
1665,000000	28,981300
1664,000000	29,069200
1663,000000	29,126500
1662,000000	29,195900
1661,000000	29,246700
1660,000000	29,313600
1659,000000	29,345900
1658,000000	29,379400
1657,000000	29,373400
1656,000000	29,399200
1655,000000	29,419300
1654,000000	29,407900
1653,000000	29,413500
1652,000000	29,383200
1651,000000	29,359900
1650,000000	29,340300
1649,000000	29,307600
1648,000000	29,277200
1647,000000	29,258300
1646,000000	29,218200
1645,000000	29,159500
1644,000000	29,125600
1643,000000	29,072000
1642,000000	29,035500
1641,000000	28,983300
1640,000000	28,936600
1639,000000	28,890000
1638,000000	28,833100
1637,000000	28,777100
1636,000000	28,733300
1635,000000	28,665800
1634,000000	28,610100
1633,000000	28,551900
1632,000000	28,477900
1631,000000	28,422800
1630,000000	28,339800
1629,000000	28,283800
1628,000000	28,206900
1627,000000	28,135800
1626,000000	28,082500
1625,000000	28,000800
1624,000000	27,951900
1623,000000	27,874500
1622,000000	27,815900
1621,000000	27,749400
1620,000000	27,700400
1619,000000	27,635200
1618,000000	27,579800
1617,000000	27,508000
1616,000000	27,463300
1615,000000	27,404100
1614,000000	27,343600
1613,000000	27,294700
1612,000000	27,227400
1611,000000	27,183700
1610,000000	27,117600
1609,000000	27,061700
1608,000000	27,008400
1607,000000	26,949200
1606,000000	26,889200
1605,000000	26,843100
1604,000000	26,793900
1603,000000	26,734600
1602,000000	26,693800
1601,000000	26,617900
1600,000000	26,578900
1599,000000	26,522200
1598,000000	26,459900
1597,000000	26,389800
1596,000000	26,350100
1595,000000	26,316400
1594,000000	26,258300
1593,000000	26,203300
1592,000000	26,180600
1591,000000	26,117400
1590,000000	26,068500
1589,000000	26,043800
1588,000000	26,022300
1587,000000	25,978800
1586,000000	25,929500
1585,000000	25,896600
1584,000000	25,853600
1583,000000	25,818400
1582,000000	25,787500
1581,000000	25,754700
1580,000000	25,717800
1579,000000	25,699700
1578,000000	25,661300
1577,000000	25,652100
1576,000000	25,643900
1575,000000	25,616900
1574,000000	25,589400
1573,000000	25,578000
1572,000000	25,578700
1571,000000	25,576500
1570,000000	25,568800
1569,000000	25,563600
1568,000000	25,548900
1567,000000	25,551900
1566,000000	25,559700
1565,000000	25,559800
1564,000000	25,573100
1563,000000	25,565000
1562,000000	25,550600
1561,000000	25,556100
1560,000000	25,559300
1559,000000	25,552600
1558,000000	25,540400
1557,000000	25,526700
1556,000000	25,509500
1555,000000	25,489900
1554,000000	25,455700
1553,000000	25,439700
1552,000000	25,416400
1551,000000	25,392400
1550,000000	25,376300
1549,000000	25,334400
1548,000000	25,299200
1547,000000	25,283100
1546,000000	25,251300
1545,000000	25,217900
1544,000000	25,186500
1543,000000	25,156800
1542,000000	25,131900
1541,000000	25,109400
1540,000000	25,093500
1539,000000	25,057000
1538,000000	25,020100
1537,000000	25,003900
1536,000000	24,968500
1535,000000	24,929200
1534,000000	24,900800
1533,000000	24,875000
1532,000000	24,838200
1531,000000	24,790600
1530,000000	24,745900
1529,000000	24,709400
1528,000000	24,665500
1527,000000	24,616100
1526,000000	24,557700
1525,000000	24,517400
1524,000000	24,474000
1523,000000	24,396200
1522,000000	24,338700
1521,000000	24,287600
1520,000000	24,233200
1519,000000	24,181200
1518,000000	24,122800
1517,000000	24,058800
1516,000000	23,995300
1515,000000	23,929000
1514,000000	23,867000
1513,000000	23,803100
1512,000000	23,734200
1511,000000	23,663000
1510,000000	23,590800
1509,000000	23,520100
1508,000000	23,457500
1507,000000	23,401000
1506,000000	23,321200
1505,000000	23,237200
1504,000000	23,165300
1503,000000	23,106300
1502,000000	23,036300
1501,000000	22,951400
1500,000000	22,886200
1499,000000	22,840500
1498,000000	22,773800
1497,000000	22,698800
1496,000000	22,634700
1495,000000	22,582600
1494,000000	22,524700
1493,000000	22,461000
1492,000000	22,405800
1491,000000	22,360900
1490,000000	22,321900
1489,000000	22,272400
1488,000000	22,230600
1487,000000	22,172400
1486,000000	22,118100
1485,000000	22,085600
1484,000000	22,043700
1483,000000	21,996300
1482,000000	21,966900
1481,000000	21,929600
1480,000000	21,888200
1479,000000	21,856600
1478,000000	21,833900
1477,000000	21,788500
1476,000000	21,767300
1475,000000	21,752400
1474,000000	21,728200
1473,000000	21,725000
1472,000000	21,718800
1471,000000	21,700800
1470,000000	21,692300
1469,000000	21,695000
1468,000000	21,679700
1467,000000	21,657200
1466,000000	21,683900
1465,000000	21,678300
1464,000000	21,675400
1463,000000	21,684400
1462,000000	21,712200
1461,000000	21,742100
1460,000000	21,750000
1459,000000	21,777800
1458,000000	21,822500
1457,000000	21,864500
1456,000000	21,898800
1455,000000	21,960300
1454,000000	22,019600
1453,000000	22,086400
1452,000000	22,142100
1451,000000	22,210700
1450,000000	22,295900
1449,000000	22,372400
1448,000000	22,417500
1447,000000	22,513800
1446,000000	22,605200
1445,000000	22,698500
1444,000000	22,795300
1443,000000	22,863600
1442,000000	22,950300
1441,000000	23,060100
1440,000000	23,163900
1439,000000	23,263100
1438,000000	23,370900
1437,000000	23,485600
1436,000000	23,599000
1435,000000	23,686200
1434,000000	23,804100
1433,000000	23,921800
1432,000000	24,046800
1431,000000	24,182000
1430,000000	24,320700
1429,000000	24,454200
1428,000000	24,600800
1427,000000	24,760100
1426,000000	24,930500
1425,000000	25,105400
1424,000000	25,301400
1423,000000	25,502100
1422,000000	25,691200
1421,000000	25,879300
1420,000000	26,098400
1419,000000	26,344400
1418,000000	26,594600
1417,000000	26,801900
1416,000000	27,002600
1415,000000	27,236800
1414,000000	27,529500
1413,000000	27,821500
1412,000000	28,063500
1411,000000	28,299000
1410,000000	28,604300
1409,000000	28,942700
1408,000000	29,290700
1407,000000	29,657900
1406,000000	29,992200
1405,000000	30,353700
1404,000000	30,760300
1403,000000	31,079300
1402,000000	31,449700
1401,000000	31,809800
1400,000000	32,280700
1399,000000	32,669900
1398,000000	32,966800
1397,000000	33,207700
1396,000000	33,525300
1395,000000	33,938300
1394,000000	34,265900
1393,000000	34,529700
1392,000000	34,779800
1391,000000	35,124300
1390,000000	35,453900
1389,000000	35,725600
1388,000000	36,126200
1387,000000	36,560800
1386,000000	36,969400
1385,000000	37,408300
1384,000000	37,891400
1383,000000	38,374400
1382,000000	38,877700
1381,000000	39,319900
1380,000000	39,688900
1379,000000	39,953800
1378,000000	40,156600
1377,000000	40,330200
1376,000000	40,528300
1375,000000	40,691300
1374,000000	40,888000
1373,000000	41,100500
1372,000000	41,386600
1371,000000	41,662600
1370,000000	41,995200
1369,000000	42,252500
1368,000000	42,498000
1367,000000	42,744800
1366,000000	42,965300
1365,000000	43,113800
1364,000000	43,345200
1363,000000	43,476800
1362,000000	43,612200
1361,000000	43,808600
1360,000000	43,933600
1359,000000	43,953800
1358,000000	44,032700
1357,000000	44,129400
1356,000000	44,245600
1355,000000	44,447200
1354,000000	44,712400
1353,000000	45,004000
1352,000000	45,286400
1351,000000	45,692600
1350,000000	46,071700
1349,000000	46,426900
1348,000000	46,766300
1347,000000	47,081700
1346,000000	47,352600
1345,000000	47,633200
1344,000000	47,903300
1343,000000	48,198800
1342,000000	48,470300
1341,000000	48,736800
1340,000000	48,985900
1339,000000	49,255600
1338,000000	49,473500
1337,000000	49,706100
1336,000000	49,949000
1335,000000	50,197800
1334,000000	50,419400
1333,000000	50,646000
1332,000000	50,882900
1331,000000	51,094100
1330,000000	51,288600
1329,000000	51,478700
1328,000000	51,682600
1327,000000	51,871600
1326,000000	52,059500
1325,000000	52,231400
1324,000000	52,404500
1323,000000	52,566500
1322,000000	52,719800
1321,000000	52,856300
1320,000000	53,019000
1319,000000	53,167200
1318,000000	53,294000
1317,000000	53,426700
1316,000000	53,551000
1315,000000	53,674700
1314,000000	53,807000
1313,000000	53,930600
1312,000000	54,032400
1311,000000	54,136300
1310,000000	54,253400
1309,000000	54,351900
1308,000000	54,425100
1307,000000	54,524900
1306,000000	54,596700
1305,000000	54,675600
1304,000000	54,738200
1303,000000	54,793900
1302,000000	54,853700
1301,000000	54,918300
1300,000000	54,978800
1299,000000	55,017500
1298,000000	55,064000
1297,000000	55,099500
1296,000000	55,130900
1295,000000	55,150500
1294,000000	55,185600
1293,000000	55,214200
1292,000000	55,233200
1291,000000	55,251700
1290,000000	55,263200
1289,000000	55,268800
1288,000000	55,270900
1287,000000	55,266500
1286,000000	55,256900
1285,000000	55,246700
1284,000000	55,223500
1283,000000	55,192800
1282,000000	55,176400
1281,000000	55,156200
1280,000000	55,122400
1279,000000	55,087700
1278,000000	55,063500
1277,000000	55,046000
1276,000000	55,021900
1275,000000	55,007200
1274,000000	54,977000
1273,000000	54,950800
1272,000000	54,939100
1271,000000	54,928800
1270,000000	54,900700
1269,000000	54,879800
1268,000000	54,863600
1267,000000	54,851100
1266,000000	54,837100
1265,000000	54,806700
1264,000000	54,780500
1263,000000	54,758600
1262,000000	54,724400
1261,000000	54,701000
1260,000000	54,679100
1259,000000	54,651300
1258,000000	54,629700
1257,000000	54,594400
1256,000000	54,560100
1255,000000	54,517300
1254,000000	54,459000
1253,000000	54,414200
1252,000000	54,377900
1251,000000	54,318900
1250,000000	54,266300
1249,000000	54,213200
1248,000000	54,142100
1247,000000	54,073200
1246,000000	54,002700
1245,000000	53,923000
1244,000000	53,830200
1243,000000	53,739500
1242,000000	53,645200
1241,000000	53,542700
1240,000000	53,422400
1239,000000	53,314800
1238,000000	53,214000
1237,000000	53,109700
1236,000000	52,999700
1235,000000	52,875900
1234,000000	52,750700
1233,000000	52,631200
1232,000000	52,508900
1231,000000	52,383000
1230,000000	52,244800
1229,000000	52,105900
1228,000000	51,968800
1227,000000	51,823900
1226,000000	51,685500
1225,000000	51,544500
1224,000000	51,400400
1223,000000	51,260400
1222,000000	51,113400
1221,000000	50,967300
1220,000000	50,834600
1219,000000	50,707000
1218,000000	50,562800
1217,000000	50,426800
1216,000000	50,313600
1215,000000	50,201700
1214,000000	50,084200
1213,000000	49,972100
1212,000000	49,864300
1211,000000	49,765200
1210,000000	49,660300
1209,000000	49,571900
1208,000000	49,492100
1207,000000	49,398300
1206,000000	49,322100
1205,000000	49,269600
1204,000000	49,218700
1203,000000	49,192100
1202,000000	49,156600
1201,000000	49,126000
1200,000000	49,100800
1199,000000	49,060900
1198,000000	49,005800
1197,000000	48,942800
1196,000000	48,856900
1195,000000	48,714300
1194,000000	48,544600
1193,000000	48,340200
1192,000000	48,078100
1191,000000	47,780400
1190,000000	47,462700
1189,000000	47,135900
1188,000000	46,851600
1187,000000	46,629000
1186,000000	46,480300
1185,000000	46,423300
1184,000000	46,485100
1183,000000	46,642900
1182,000000	46,880000
1181,000000	47,206600
1180,000000	47,583300
1179,000000	47,980400
1178,000000	48,391800
1177,000000	48,773100
1176,000000	49,097800
1175,000000	49,378000
1174,000000	49,664900
1173,000000	49,931400
1172,000000	50,200500
1171,000000	50,470700
1170,000000	50,749300
1169,000000	51,040300
1168,000000	51,325300
1167,000000	51,610700
1166,000000	51,922900
1165,000000	52,225600
1164,000000	52,532500
1163,000000	52,849800
1162,000000	53,178800
1161,000000	53,507200
1160,000000	53,826300
1159,000000	54,139400
1158,000000	54,454500
1157,000000	54,751000
1156,000000	55,044800
1155,000000	55,304600
1154,000000	55,533400
1153,000000	55,747000
1152,000000	55,915300
1151,000000	56,041700
1150,000000	56,161100
1149,000000	56,257900
1148,000000	56,366800
1147,000000	56,488000
1146,000000	56,616600
1145,000000	56,793500
1144,000000	57,013600
1143,000000	57,258300
1142,000000	57,558800
1141,000000	57,876700
1140,000000	58,205900
1139,000000	58,546000
1138,000000	58,908100
1137,000000	59,264900
1136,000000	59,654400
1135,000000	60,063300
1134,000000	60,467300
1133,000000	60,825300
1132,000000	61,146800
1131,000000	61,493100
1130,000000	61,789100
1129,000000	62,069000
1128,000000	62,303100
1127,000000	62,526900
1126,000000	62,665100
1125,000000	62,821600
1124,000000	62,953800
1123,000000	63,084500
1122,000000	63,166800
1121,000000	63,247200
1120,000000	63,342100
1119,000000	63,395000
1118,000000	63,457500
1117,000000	63,527400
1116,000000	63,560600
1115,000000	63,599800
1114,000000	63,639900
1113,000000	63,670900
1112,000000	63,682900
1111,000000	63,712800
1110,000000	63,728500
1109,000000	63,762500
1108,000000	63,787700
1107,000000	63,817000
1106,000000	63,855000
1105,000000	63,885300
1104,000000	63,897500
1103,000000	63,921700
1102,000000	63,951400
1101,000000	63,994900
1100,000000	64,027500
1099,000000	64,030400
1098,000000	64,064600
1097,000000	64,093200
1096,000000	64,110500
1095,000000	64,126900
1094,000000	64,137700
1093,000000	64,160900
1092,000000	64,177300
1091,000000	64,208800
1090,000000	64,209300
1089,000000	64,256900
1088,000000	64,252800
1087,000000	64,263400
1086,000000	64,260500
1085,000000	64,270700
1084,000000	64,311000
1083,000000	64,313800
1082,000000	64,331300
1081,000000	64,356500
1080,000000	64,375900
1079,000000	64,389500
1078,000000	64,414400
1077,000000	64,430600
1076,000000	64,434500
1075,000000	64,451500
1074,000000	64,480300
1073,000000	64,508000
1072,000000	64,543600
1071,000000	64,549300
1070,000000	64,587500
1069,000000	64,618900
1068,000000	64,643100
1067,000000	64,679500
1066,000000	64,702900
1065,000000	64,728500
1064,000000	64,763700
1063,000000	64,791400
1062,000000	64,840700
1061,000000	64,849300
1060,000000	64,885400
1059,000000	64,907900
1058,000000	64,930400
1057,000000	64,956800
1056,000000	64,989400
1055,000000	65,005200
1054,000000	65,013900
1053,000000	65,051600
1052,000000	65,051100
1051,000000	65,077900
1050,000000	65,095100
1049,000000	65,117600
1048,000000	65,146500
1047,000000	65,174100
1046,000000	65,187400
1045,000000	65,200700
1044,000000	65,236200
1043,000000	65,257600
1042,000000	65,294400
1041,000000	65,307200
1040,000000	65,339300
1039,000000	65,355300
1038,000000	65,353600
1037,000000	65,378000
1036,000000	65,403700
1035,000000	65,415000
1034,000000	65,425500
1033,000000	65,413100
1032,000000	65,426000
1031,000000	65,439400
1030,000000	65,421700
1029,000000	65,414900
1028,000000	65,403400
1027,000000	65,390000
1026,000000	65,377200
1025,000000	65,389900
1024,000000	65,370000
1023,000000	65,348300
1022,000000	65,343900
1021,000000	65,348700
1020,000000	65,348200
1019,000000	65,347600
1018,000000	65,342500
1017,000000	65,358900
1016,000000	65,387100
1015,000000	65,416400
1014,000000	65,431500
1013,000000	65,476500
1012,000000	65,515200
1011,000000	65,557500
1010,000000	65,609800
1009,000000	65,682100
1008,000000	65,746900
1007,000000	65,815800
1006,000000	65,890400
1005,000000	65,977100
1004,000000	66,039500
1003,000000	66,114800
1002,000000	66,201400
1001,000000	66,248100
1000,000000	66,320200
999,000000	66,401900
998,000000	66,465800
997,000000	66,549700
996,000000	66,603100
995,000000	66,685600
994,000000	66,781100
993,000000	66,856500
992,000000	66,930300
991,000000	67,007100
990,000000	67,093000
989,000000	67,180500
988,000000	67,265000
987,000000	67,356800
986,000000	67,456900
985,000000	67,566400
984,000000	67,625000
983,000000	67,720400
982,000000	67,818100
981,000000	67,887800
980,000000	67,981100
979,000000	68,066400
978,000000	68,144900
977,000000	68,220100
976,000000	68,306100
975,000000	68,396200
974,000000	68,451500
973,000000	68,502300
972,000000	68,592600
971,000000	68,667000
970,000000	68,724500
969,000000	68,796800
968,000000	68,868500
967,000000	68,936500
966,000000	68,994600
965,000000	69,064200
964,000000	69,149000
963,000000	69,229600
962,000000	69,309000
961,000000	69,371700
960,000000	69,454700
959,000000	69,535900
958,000000	69,600600
957,000000	69,667800
956,000000	69,721600
955,000000	69,802700
954,000000	69,866100
953,000000	69,914500
952,000000	69,977700
951,000000	70,030800
950,000000	70,074200
949,000000	70,135300
948,000000	70,181500
947,000000	70,207900
946,000000	70,257300
945,000000	70,309700
944,000000	70,348000
943,000000	70,385000
942,000000	70,431600
941,000000	70,463800
940,000000	70,488200
939,000000	70,525600
938,000000	70,576600
937,000000	70,606000
936,000000	70,620300
935,000000	70,656900
934,000000	70,695100
933,000000	70,736100
932,000000	70,757200
931,000000	70,767400
930,000000	70,789600
929,000000	70,822300
928,000000	70,828100
927,000000	70,831200
926,000000	70,842400
925,000000	70,872300
924,000000	70,873300
923,000000	70,873400
922,000000	70,892400
921,000000	70,903800
920,000000	70,915000
919,000000	70,912900
918,000000	70,912200
917,000000	70,931800
916,000000	70,936200
915,000000	70,913900
914,000000	70,907100
913,000000	70,911900
912,000000	70,921800
911,000000	70,911400
910,000000	70,915000
909,000000	70,896500
908,000000	70,887600
907,000000	70,905300
906,000000	70,907400
905,000000	70,931100
904,000000	70,951200
903,000000	70,964200
902,000000	70,984200
901,000000	71,007500
900,000000	71,037500
899,000000	71,066300
898,000000	71,103800
897,000000	71,126600
896,000000	71,166800
895,000000	71,204500
894,000000	71,228600
893,000000	71,250900
892,000000	71,289700
891,000000	71,319300
890,000000	71,328600
889,000000	71,360800
888,000000	71,369800
887,000000	71,385700
886,000000	71,423600
885,000000	71,453900
884,000000	71,442800
883,000000	71,460600
882,000000	71,481000
881,000000	71,499200
880,000000	71,513400
879,000000	71,519400
878,000000	71,510000
877,000000	71,510800
876,000000	71,490700
875,000000	71,474300
874,000000	71,450900
873,000000	71,378900
872,000000	71,277200
871,000000	71,157300
870,000000	71,081400
869,000000	71,037500
868,000000	71,021800
867,000000	71,017600
866,000000	71,023200
865,000000	71,004100
864,000000	70,966900
863,000000	70,931400
862,000000	70,890800
861,000000	70,858300
860,000000	70,818200
859,000000	70,794500
858,000000	70,750700
857,000000	71,235300
856,000000	71,550600
855,000000	70,816800
854,000000	70,406000
853,000000	70,980600
852,000000	70,869700
851,000000	70,966400
850,000000	70,590300
849,000000	70,391000
848,000000	70,557000
847,000000	70,238400
846,000000	70,571600
845,000000	70,044900
844,000000	70,149600
843,000000	70,220100
842,000000	70,295000
841,000000	70,179500
840,000000	70,207800
839,000000	70,074500
838,000000	69,955400
837,000000	69,700600
836,000000	69,547100
835,000000	69,486500
834,000000	69,432700
833,000000	69,427500
832,000000	69,442200
831,000000	69,310900
830,000000	69,006500
829,000000	68,726000
828,000000	68,815700
827,000000	68,626500
826,000000	68,557300
825,000000	68,248100
824,000000	68,383300
823,000000	68,354600
822,000000	68,262300
821,000000	68,194100
820,000000	68,007000
819,000000	67,922200
818,000000	67,796800
817,000000	67,483600
816,000000	67,543700
815,000000	67,255200
814,000000	67,094800
813,000000	67,115800
812,000000	66,856400
811,000000	66,804700
810,000000	66,531600
809,000000	66,437600
808,000000	66,226000
807,000000	65,971100
806,000000	66,011000
805,000000	65,917800
804,000000	65,657700
803,000000	65,513100
802,000000	65,316900
801,000000	65,269600
800,000000	64,964300
799,000000	64,658400
798,000000	64,551300
797,000000	64,391100
796,000000	64,130500
795,000000	64,085100
794,000000	63,827200
793,000000	63,644200
792,000000	63,443700
791,000000	63,126400
790,000000	62,806700
789,000000	62,777800
788,000000	62,453300
787,000000	62,293900
786,000000	62,168800
785,000000	62,013500
784,000000	61,760700
783,000000	61,420800
782,000000	61,368400
781,000000	61,079300
780,000000	60,866900
779,000000	60,597700
778,000000	60,399600
777,000000	60,212000
776,000000	59,973800
775,000000	59,654800
774,000000	59,609900
773,000000	59,336600
772,000000	59,060300
771,000000	58,885300
770,000000	58,796400
769,000000	58,650600
768,000000	58,356100
767,000000	58,101000
766,000000	58,106000
765,000000	57,798100
764,000000	57,459300
763,000000	57,376000
762,000000	57,166400
761,000000	56,933000
760,000000	56,706100
759,000000	56,679500
758,000000	56,422400
757,000000	56,174800
756,000000	56,102300
755,000000	55,967900
754,000000	55,857400
753,000000	55,698300
752,000000	55,491100
751,000000	55,475300
750,000000	55,374100
749,000000	55,266700
748,000000	55,296000
747,000000	55,113400
746,000000	55,097500
745,000000	54,928200
744,000000	54,917100
743,000000	54,753100
742,000000	54,695500
741,000000	54,568000
740,000000	54,510800
739,000000	54,396900
738,000000	54,256000
737,000000	54,125600
736,000000	54,086300
735,000000	53,925600
734,000000	53,777000
733,000000	53,644000
732,000000	53,397900
731,000000	53,242700
730,000000	53,023400
729,000000	52,796200
728,000000	52,578000
727,000000	52,380200
726,000000	52,090400
725,000000	51,790600
724,000000	51,448700
723,000000	51,155400
722,000000	50,850700
721,000000	50,532400
720,000000	50,222600
719,000000	50,001600
718,000000	49,734100
717,000000	49,414600
716,000000	49,115400
715,000000	48,833900
714,000000	48,622300
713,000000	48,352100
712,000000	48,138800
711,000000	47,929500
710,000000	47,785300
709,000000	47,604100
708,000000	47,445700
707,000000	47,232600
706,000000	47,098700
705,000000	46,958300
704,000000	46,748700
703,000000	46,563100
702,000000	46,389300
701,000000	46,228300
700,000000	46,043900
699,000000	45,853200
698,000000	45,669900
697,000000	45,526600
696,000000	45,364500
695,000000	45,224300
694,000000	45,135900
693,000000	45,087100
692,000000	45,030100
691,000000	44,992700
690,000000	44,985800
689,000000	45,013700
688,000000	45,072800
687,000000	45,160000
686,000000	45,197700
685,000000	45,268700
684,000000	45,389100
683,000000	45,510800
682,000000	45,665300
681,000000	45,752700
680,000000	45,833600
679,000000	45,925600
678,000000	46,007600
677,000000	46,067000
676,000000	46,121400
675,000000	46,156600
674,000000	46,205700
673,000000	46,245100
672,000000	46,225900
671,000000	46,197800
670,000000	46,161200
669,000000	46,112400
668,000000	46,063200
667,000000	46,010000
666,000000	45,958300
665,000000	45,901600
664,000000	45,817400
663,000000	45,715600
662,000000	45,641100
661,000000	45,573900
660,000000	45,498300
659,000000	45,420000
658,000000	45,344100
657,000000	45,244200
656,000000	45,120700
655,000000	45,010300
654,000000	44,882200
653,000000	44,745000
652,000000	44,607000
651,000000	44,465700
650,000000	44,314300
649,000000	44,162200
648,000000	44,027700
647,000000	43,877400
646,000000	43,744100
645,000000	43,665200
644,000000	43,603000
643,000000	43,564300
642,000000	43,573600
641,000000	43,619800
640,000000	43,703300
639,000000	43,871000
638,000000	44,073000
637,000000	44,289000
636,000000	44,554200
635,000000	44,864600
634,000000	45,221100
633,000000	45,619600
632,000000	46,023500
631,000000	46,462200
630,000000	46,948900
629,000000	47,451500
628,000000	47,961600
627,000000	48,479200
626,000000	49,057900
625,000000	49,665800
624,000000	50,238900
623,000000	50,786100
622,000000	51,362800
621,000000	51,933400
620,000000	52,475900
619,000000	52,975700
618,000000	53,479100
617,000000	53,930400
616,000000	54,382900
615,000000	54,820800
614,000000	55,221800
613,000000	55,623400
612,000000	55,992200
611,000000	56,338000
610,000000	56,662400
609,000000	56,983600
608,000000	57,299500
607,000000	57,593500
606,000000	57,914100
605,000000	58,187900
604,000000	58,448500
603,000000	58,759000
602,000000	59,107400
601,000000	59,354700
600,000000	59,637100
599,000000	59,908900
598,000000	60,148000
597,000000	60,366500
596,000000	60,509300
595,000000	60,625100
594,000000	60,766400
593,000000	60,881600
592,000000	60,963500
591,000000	60,969700
590,000000	60,997300
589,000000	61,049200
588,000000	61,064600
587,000000	61,095200
586,000000	61,093700
585,000000	61,180700
584,000000	61,264500
583,000000	61,310100
582,000000	61,374700
581,000000	61,503300
580,000000	61,600600
579,000000	61,695900
578,000000	61,800200
577,000000	61,906700
576,000000	62,001000
575,000000	62,015600
574,000000	62,033900
573,000000	62,040500
572,000000	62,007000
571,000000	61,985300
570,000000	61,870200
569,000000	61,772700
568,000000	61,692000
567,000000	61,568900
566,000000	61,440600
565,000000	61,358200
564,000000	61,259800
563,000000	61,127300
562,000000	61,028400
561,000000	60,917100
560,000000	60,780500
559,000000	60,609400
558,000000	60,418500
557,000000	60,202600
556,000000	59,991400
555,000000	59,691400
554,000000	59,372000
553,000000	58,976100
552,000000	58,567700
551,000000	58,154600
550,000000	57,720800
549,000000	57,228000
548,000000	56,742800
547,000000	56,178400
546,000000	55,576800
545,000000	54,970800
544,000000	54,294800
543,000000	53,572700
542,000000	52,823200
541,000000	52,049400
540,000000	51,237800
539,000000	50,401000
538,000000	49,561400
537,000000	48,718200
536,000000	47,855500
535,000000	47,016000
534,000000	46,186100
533,000000	45,332900
532,000000	44,516300
531,000000	43,715200
530,000000	42,949200
529,000000	42,221300
528,000000	41,538600
527,000000	40,867400
526,000000	40,194600
525,000000	39,534900
524,000000	38,909800
523,000000	38,264400
522,000000	37,631800
521,000000	37,012400
520,000000	36,411700
519,000000	35,839900
518,000000	35,224300
517,000000	34,614300
516,000000	33,994600
515,000000	33,416900
514,000000	32,820700
513,000000	32,233900
512,000000	31,655700
511,000000	31,134600
510,000000	30,601600
509,000000	30,063700
508,000000	29,583700
507,000000	29,115200
506,000000	28,629700
505,000000	28,181700
504,000000	27,749900
503,000000	27,321100
502,000000	26,937000
501,000000	26,509700
500,000000	26,130800
499,000000	25,713100
498,000000	25,347100
497,000000	24,947700
496,000000	24,558700
495,000000	24,212000
494,000000	23,838800
493,000000	23,485300
492,000000	23,094200
491,000000	22,719800
490,000000	22,369600
489,000000	21,990200
488,000000	21,654100
487,000000	21,346100
486,000000	21,032800
485,000000	20,743400
484,000000	20,440400
483,000000	20,173700
482,000000	19,901000
481,000000	19,652500
480,000000	19,407500
479,000000	19,213900
478,000000	18,984100
477,000000	18,780700
476,000000	18,569500
475,000000	18,386000
474,000000	18,190600
473,000000	18,018800
472,000000	17,869500
471,000000	17,709100
470,000000	17,557600
469,000000	17,428500
468,000000	17,281600
467,000000	17,151900
466,000000	17,018300
465,000000	16,923200
464,000000	16,796300
463,000000	16,679800
462,000000	16,546300
461,000000	16,411000
460,000000	16,300200
459,000000	16,173100
458,000000	16,004800
457,000000	15,910700
456,000000	15,788100
455,000000	15,641800
454,000000	15,512300
453,000000	15,343100
452,000000	15,192200
451,000000	15,039300
450,000000	14,877900
449,000000	14,726300
448,000000	14,576400
447,000000	14,440000
446,000000	14,302200
445,000000	14,119800
444,000000	13,931300
443,000000	13,798000
442,000000	13,619900
441,000000	13,442600
440,000000	13,275300
439,000000	13,091200
438,000000	12,932900
437,000000	12,754500
436,000000	12,584400
435,000000	12,389100
434,000000	12,218500
433,000000	12,048800
432,000000	11,849100
431,000000	11,664100
430,000000	11,488400
429,000000	11,319800
428,000000	11,150000
427,000000	10,979100
426,000000	10,795400
425,000000	10,634600
424,000000	10,493300
423,000000	10,307500
422,000000	10,146200
421,000000	9,968900
420,000000	9,821000
419,000000	9,674300
418,000000	9,527300
417,000000	9,365900
416,000000	9,182200
415,000000	9,045100
414,000000	8,887500
413,000000	8,754600
412,000000	8,605700
411,000000	8,472800
410,000000	8,358900
409,000000	8,249900
408,000000	8,136100
407,000000	8,014500
406,000000	7,907600
405,000000	7,797100
404,000000	7,705600
403,000000	7,610100
402,000000	7,502600
401,000000	7,421500
400,000000	7,342900
399,000000	7,238100
398,000000	7,152500
397,000000	7,088900
396,000000	7,026100
395,000000	6,959100
394,000000	6,918900
393,000000	6,860800
392,000000	6,781900
391,000000	6,730700
390,000000	6,666600
389,000000	6,627400
388,000000	6,574900
387,000000	6,508100
386,000000	6,468200
385,000000	6,429300
384,000000	6,395800
383,000000	6,353100
382,000000	6,311500
381,000000	6,269100
380,000000	6,236400
379,000000	6,196700
378,000000	6,170000
377,000000	6,122800
376,000000	6,133900
375,000000	6,044800
374,000000	5,731700
373,000000	5,793300
372,000000	5,941300
371,000000	5,830100
370,000000	5,960600
369,000000	5,928200
368,000000	5,951000
367,000000	6,047300
366,000000	5,970100
365,000000	5,893500
364,000000	5,739400
363,000000	5,720300
362,000000	5,772300
361,000000	5,800200
360,000000	5,790600
359,000000	5,733200
358,000000	5,731300
357,000000	5,778300
356,000000	5,777100
355,000000	5,761900
354,000000	5,700900
353,000000	5,631700
352,000000	5,569000
351,000000	5,481900
350,000000	5,411200
349,000000	5,398800
348,000000	5,439100
347,000000	5,504400
346,000000	5,593000
345,000000	5,601700
344,000000	5,511500
343,000000	5,570700
342,000000	5,634200
341,000000	5,622200
340,000000	5,562000
339,000000	5,609800
338,000000	5,685300
337,000000	5,580800
336,000000	5,615000
335,000000	5,765600
334,000000	5,659700
333,000000	5,631300
332,000000	5,683800
331,000000	5,763700
330,000000	5,817800
329,000000	5,704800
328,000000	5,774600
327,000000	5,720200
326,000000	5,697300
325,000000	5,836400
324,000000	5,936300
323,000000	5,873500
322,000000	5,925200
321,000000	5,925600
320,000000	5,670700
319,000000	6,001600
318,000000	6,161800
317,000000	5,920200
316,000000	5,538100
315,000000	5,251700
314,000000	5,249000
313,000000	5,313500
312,000000	5,303100
311,000000	5,310900
310,000000	5,324100
309,000000	5,298100
308,000000	5,302300
307,000000	5,325600
306,000000	5,320100
305,000000	5,326900
304,000000	5,300800
303,000000	5,286600
302,000000	5,286000
301,000000	5,289600
300,000000	5,318800
299,000000	5,311600
298,000000	5,330400
297,000000	5,352100
296,000000	5,359300
295,000000	5,343400
294,000000	5,363800
293,000000	5,355200
292,000000	5,349700
291,000000	5,377600
290,000000	5,420700
289,000000	5,385500
288,000000	5,397400
287,000000	5,405300
286,000000	5,418200
285,000000	5,452900
284,000000	5,467300
283,000000	5,495200
282,000000	5,527000
281,000000	5,521900
280,000000	5,488900
279,000000	5,502400
278,000000	5,514200
277,000000	5,521100
276,000000	5,575500
275,000000	5,578600
274,000000	5,622100
273,000000	5,595000
272,000000	5,593300
271,000000	5,640200
270,000000	5,651200
269,000000	5,644500
268,000000	5,644100
267,000000	5,689800
266,000000	5,720800
265,000000	5,742600
264,000000	5,725100
263,000000	5,747500
262,000000	5,791900
261,000000	5,771100
260,000000	5,837900
259,000000	5,859400
258,000000	5,876500
257,000000	5,898200
256,000000	5,889600
255,000000	5,911000
254,000000	5,932400
253,000000	5,913900
252,000000	5,922700
251,000000	5,919800
250,000000	5,927700
