PE UV       SUBTECH     SPECTRUM    ASCII       PEDS        4.00        
   -1
CICIMAUCR0233-1.Sample.ASC
24/06/13
16:07:02.00
24/06/13
16:07:02.00
Vinicio Soto Monge
C. resplendens. Sex F. Dorsal.
250,000000
1
Lambda 1050
1050L1511233
PerkinElmer UV WinLab 6.3.2.0749 / 2.02.05 Lambda 900 UV/VIS/NIR, Aug  7 2015 09:38:08

0
0
3350/servo 860,8/2
0
0
UV/VIS
1
1
1
DoubleDePol,CommonBeamDepol,RBeamAtt,SBeamAtt,60mm sphere, WB InGaAs Detector
0
0
0
0
Program
Program
3350/servo 860,8/2
3350/0,2 860,8/0,2
3350/0,2 860,8/0,2
0
15.00
 
 
 
0
 
860,8
319,2
860,8
Front
100
on
S:100 R:100
0
0
0
0
 
0
 
 
 
0
 
 
0
0
0
0
0
 
 
 
 
0
0


0
0
#HDR
-1
-1
#GR
nm
%R
1.0
0.0
2500,000000
-1,000000
2251
8
93,098000
5,375400
#DATA
2500,000000	6,133300
2499,000000	6,185500
2498,000000	6,167800
2497,000000	5,965200
2496,000000	6,059600
2495,000000	5,960100
2494,000000	6,043200
2493,000000	6,013000
2492,000000	6,028000
2491,000000	6,064100
2490,000000	6,049800
2489,000000	5,942200
2488,000000	5,966200
2487,000000	5,949600
2486,000000	5,977800
2485,000000	5,933300
2484,000000	5,978800
2483,000000	6,007200
2482,000000	5,931400
2481,000000	5,983900
2480,000000	5,965100
2479,000000	5,977400
2478,000000	5,925900
2477,000000	5,927200
2476,000000	5,974000
2475,000000	5,926300
2474,000000	5,961900
2473,000000	5,933300
2472,000000	5,921300
2471,000000	5,950800
2470,000000	5,992900
2469,000000	5,993200
2468,000000	5,970000
2467,000000	6,003900
2466,000000	6,023700
2465,000000	6,015300
2464,000000	6,034000
2463,000000	6,011200
2462,000000	6,030400
2461,000000	6,030600
2460,000000	6,027700
2459,000000	6,086300
2458,000000	6,100000
2457,000000	6,112100
2456,000000	6,108100
2455,000000	6,130900
2454,000000	6,160000
2453,000000	6,186500
2452,000000	6,195400
2451,000000	6,242200
2450,000000	6,246400
2449,000000	6,251400
2448,000000	6,304100
2447,000000	6,308500
2446,000000	6,352700
2445,000000	6,380500
2444,000000	6,404700
2443,000000	6,406500
2442,000000	6,447800
2441,000000	6,456800
2440,000000	6,485400
2439,000000	6,525800
2438,000000	6,557300
2437,000000	6,557500
2436,000000	6,584400
2435,000000	6,616600
2434,000000	6,641000
2433,000000	6,677900
2432,000000	6,680600
2431,000000	6,712900
2430,000000	6,768600
2429,000000	6,779600
2428,000000	6,788000
2427,000000	6,811200
2426,000000	6,832200
2425,000000	6,857900
2424,000000	6,872600
2423,000000	6,877400
2422,000000	6,896300
2421,000000	6,926000
2420,000000	6,949200
2419,000000	6,972000
2418,000000	6,977800
2417,000000	6,999600
2416,000000	7,013300
2415,000000	7,011300
2414,000000	7,038900
2413,000000	7,046800
2412,000000	7,075000
2411,000000	7,094200
2410,000000	7,102500
2409,000000	7,125100
2408,000000	7,143000
2407,000000	7,147700
2406,000000	7,156300
2405,000000	7,178700
2404,000000	7,189000
2403,000000	7,201700
2402,000000	7,210300
2401,000000	7,231400
2400,000000	7,249300
2399,000000	7,259900
2398,000000	7,279300
2397,000000	7,298900
2396,000000	7,308500
2395,000000	7,308600
2394,000000	7,321300
2393,000000	7,333200
2392,000000	7,348100
2391,000000	7,373600
2390,000000	7,377500
2389,000000	7,385100
2388,000000	7,404700
2387,000000	7,415600
2386,000000	7,412100
2385,000000	7,409400
2384,000000	7,427600
2383,000000	7,431200
2382,000000	7,432400
2381,000000	7,443100
2380,000000	7,449200
2379,000000	7,456300
2378,000000	7,456800
2377,000000	7,471000
2376,000000	7,472700
2375,000000	7,457300
2374,000000	7,454800
2373,000000	7,454200
2372,000000	7,454900
2371,000000	7,449200
2370,000000	7,456400
2369,000000	7,456700
2368,000000	7,454400
2367,000000	7,444700
2366,000000	7,435700
2365,000000	7,415300
2364,000000	7,390500
2363,000000	7,382400
2362,000000	7,393300
2361,000000	7,381400
2360,000000	7,358500
2359,000000	7,360800
2358,000000	7,338600
2357,000000	7,318700
2356,000000	7,305400
2355,000000	7,293400
2354,000000	7,296600
2353,000000	7,286700
2352,000000	7,271900
2351,000000	7,279800
2350,000000	7,286100
2349,000000	7,290300
2348,000000	7,307100
2347,000000	7,321900
2346,000000	7,326000
2345,000000	7,342000
2344,000000	7,370500
2343,000000	7,388800
2342,000000	7,396000
2341,000000	7,420800
2340,000000	7,428200
2339,000000	7,449300
2338,000000	7,464200
2337,000000	7,481200
2336,000000	7,483600
2335,000000	7,487900
2334,000000	7,486700
2333,000000	7,501300
2332,000000	7,501300
2331,000000	7,510000
2330,000000	7,504300
2329,000000	7,489900
2328,000000	7,482900
2327,000000	7,451800
2326,000000	7,431000
2325,000000	7,420200
2324,000000	7,402500
2323,000000	7,369300
2322,000000	7,336700
2321,000000	7,312800
2320,000000	7,277100
2319,000000	7,258200
2318,000000	7,205600
2317,000000	7,153700
2316,000000	7,133200
2315,000000	7,101800
2314,000000	7,054800
2313,000000	7,013500
2312,000000	6,981100
2311,000000	6,943700
2310,000000	6,903900
2309,000000	6,882500
2308,000000	6,847000
2307,000000	6,824800
2306,000000	6,817900
2305,000000	6,811200
2304,000000	6,785600
2303,000000	6,788600
2302,000000	6,803100
2301,000000	6,821300
2300,000000	6,849100
2299,000000	6,870900
2298,000000	6,897500
2297,000000	6,942500
2296,000000	6,976400
2295,000000	7,015700
2294,000000	7,046700
2293,000000	7,083200
2292,000000	7,118800
2291,000000	7,145200
2290,000000	7,172400
2289,000000	7,193200
2288,000000	7,205600
2287,000000	7,214500
2286,000000	7,236500
2285,000000	7,235000
2284,000000	7,229600
2283,000000	7,210400
2282,000000	7,214900
2281,000000	7,187600
2280,000000	7,172500
2279,000000	7,163600
2278,000000	7,131100
2277,000000	7,093100
2276,000000	7,070700
2275,000000	7,054400
2274,000000	7,046200
2273,000000	7,013800
2272,000000	7,000700
2271,000000	6,986100
2270,000000	6,993200
2269,000000	6,983400
2268,000000	6,993200
2267,000000	7,001600
2266,000000	7,014700
2265,000000	7,051900
2264,000000	7,114100
2263,000000	7,171500
2262,000000	7,225000
2261,000000	7,290500
2260,000000	7,370000
2259,000000	7,474200
2258,000000	7,558400
2257,000000	7,656100
2256,000000	7,753900
2255,000000	7,857700
2254,000000	7,969300
2253,000000	8,079100
2252,000000	8,200800
2251,000000	8,306500
2250,000000	8,391800
2249,000000	8,487400
2248,000000	8,599700
2247,000000	8,704300
2246,000000	8,763000
2245,000000	8,843000
2244,000000	8,929800
2243,000000	8,976400
2242,000000	9,047900
2241,000000	9,124400
2240,000000	9,168400
2239,000000	9,224700
2238,000000	9,274100
2237,000000	9,314900
2236,000000	9,366600
2235,000000	9,369400
2234,000000	9,420800
2233,000000	9,450200
2232,000000	9,438300
2231,000000	9,475500
2230,000000	9,497700
2229,000000	9,520500
2228,000000	9,510700
2227,000000	9,529300
2226,000000	9,553400
2225,000000	9,562700
2224,000000	9,558600
2223,000000	9,563300
2222,000000	9,531600
2221,000000	9,509800
2220,000000	9,543700
2219,000000	9,536000
2218,000000	9,502000
2217,000000	9,472200
2216,000000	9,478200
2215,000000	9,440600
2214,000000	9,453800
2213,000000	9,420300
2212,000000	9,424400
2211,000000	9,404900
2210,000000	9,405100
2209,000000	9,376200
2208,000000	9,358800
2207,000000	9,346400
2206,000000	9,341900
2205,000000	9,351900
2204,000000	9,331500
2203,000000	9,316600
2202,000000	9,306200
2201,000000	9,300300
2200,000000	9,289000
2199,000000	9,274600
2198,000000	9,261100
2197,000000	9,269000
2196,000000	9,258200
2195,000000	9,241100
2194,000000	9,216000
2193,000000	9,222900
2192,000000	9,203600
2191,000000	9,187800
2190,000000	9,210600
2189,000000	9,170600
2188,000000	9,192900
2187,000000	9,174300
2186,000000	9,152000
2185,000000	9,157500
2184,000000	9,151400
2183,000000	9,134500
2182,000000	9,125900
2181,000000	9,118300
2180,000000	9,112500
2179,000000	9,113600
2178,000000	9,098200
2177,000000	9,085500
2176,000000	9,080000
2175,000000	9,075800
2174,000000	9,089300
2173,000000	9,069300
2172,000000	9,071300
2171,000000	9,076600
2170,000000	9,081600
2169,000000	9,076000
2168,000000	9,063000
2167,000000	9,066700
2166,000000	9,094100
2165,000000	9,088100
2164,000000	9,095900
2163,000000	9,093200
2162,000000	9,103900
2161,000000	9,137200
2160,000000	9,145800
2159,000000	9,153400
2158,000000	9,149400
2157,000000	9,190000
2156,000000	9,210600
2155,000000	9,207500
2154,000000	9,231400
2153,000000	9,244300
2152,000000	9,260300
2151,000000	9,274300
2150,000000	9,297700
2149,000000	9,321700
2148,000000	9,330100
2147,000000	9,346000
2146,000000	9,366200
2145,000000	9,377800
2144,000000	9,403900
2143,000000	9,409200
2142,000000	9,416800
2141,000000	9,439400
2140,000000	9,446600
2139,000000	9,459100
2138,000000	9,464600
2137,000000	9,489200
2136,000000	9,489800
2135,000000	9,495000
2134,000000	9,491100
2133,000000	9,508200
2132,000000	9,507700
2131,000000	9,519200
2130,000000	9,531000
2129,000000	9,535200
2128,000000	9,513400
2127,000000	9,511800
2126,000000	9,519500
2125,000000	9,494900
2124,000000	9,492400
2123,000000	9,491400
2122,000000	9,483700
2121,000000	9,464600
2120,000000	9,452600
2119,000000	9,441800
2118,000000	9,440100
2117,000000	9,413800
2116,000000	9,400500
2115,000000	9,395100
2114,000000	9,367700
2113,000000	9,350100
2112,000000	9,333100
2111,000000	9,319900
2110,000000	9,300100
2109,000000	9,277300
2108,000000	9,260000
2107,000000	9,247000
2106,000000	9,212600
2105,000000	9,200400
2104,000000	9,175000
2103,000000	9,140900
2102,000000	9,122900
2101,000000	9,106400
2100,000000	9,084900
2099,000000	9,059000
2098,000000	9,045600
2097,000000	9,042500
2096,000000	9,030200
2095,000000	8,998200
2094,000000	8,975500
2093,000000	8,963900
2092,000000	8,951900
2091,000000	8,932700
2090,000000	8,914600
2089,000000	8,900600
2088,000000	8,881400
2087,000000	8,874200
2086,000000	8,863600
2085,000000	8,843100
2084,000000	8,833200
2083,000000	8,817300
2082,000000	8,797700
2081,000000	8,769000
2080,000000	8,745200
2079,000000	8,724200
2078,000000	8,697200
2077,000000	8,677800
2076,000000	8,651800
2075,000000	8,623000
2074,000000	8,595900
2073,000000	8,571200
2072,000000	8,554400
2071,000000	8,532200
2070,000000	8,499000
2069,000000	8,471500
2068,000000	8,454200
2067,000000	8,427600
2066,000000	8,400900
2065,000000	8,369600
2064,000000	8,338200
2063,000000	8,308700
2062,000000	8,283900
2061,000000	8,252000
2060,000000	8,232300
2059,000000	8,219800
2058,000000	8,208300
2057,000000	8,185300
2056,000000	8,172000
2055,000000	8,163000
2054,000000	8,159400
2053,000000	8,160000
2052,000000	8,154900
2051,000000	8,149200
2050,000000	8,169200
2049,000000	8,164200
2048,000000	8,169800
2047,000000	8,198200
2046,000000	8,214300
2045,000000	8,215200
2044,000000	8,229900
2043,000000	8,250700
2042,000000	8,273500
2041,000000	8,279900
2040,000000	8,306600
2039,000000	8,310200
2038,000000	8,322400
2037,000000	8,343000
2036,000000	8,340400
2035,000000	8,363300
2034,000000	8,364400
2033,000000	8,372100
2032,000000	8,384600
2031,000000	8,393200
2030,000000	8,389900
2029,000000	8,384100
2028,000000	8,381700
2027,000000	8,383000
2026,000000	8,374000
2025,000000	8,380700
2024,000000	8,381300
2023,000000	8,362200
2022,000000	8,356700
2021,000000	8,363700
2020,000000	8,341200
2019,000000	8,333500
2018,000000	8,325500
2017,000000	8,308500
2016,000000	8,290700
2015,000000	8,280800
2014,000000	8,265000
2013,000000	8,253200
2012,000000	8,237100
2011,000000	8,220500
2010,000000	8,183400
2009,000000	8,161200
2008,000000	8,144300
2007,000000	8,110900
2006,000000	8,083400
2005,000000	8,069000
2004,000000	8,023600
2003,000000	8,020100
2002,000000	8,001500
2001,000000	7,955700
2000,000000	7,916300
1999,000000	7,890900
1998,000000	7,855600
1997,000000	7,826400
1996,000000	7,803500
1995,000000	7,774500
1994,000000	7,703400
1993,000000	7,688000
1992,000000	7,654100
1991,000000	7,638300
1990,000000	7,578600
1989,000000	7,535500
1988,000000	7,514000
1987,000000	7,469900
1986,000000	7,439700
1985,000000	7,398300
1984,000000	7,364500
1983,000000	7,327500
1982,000000	7,275100
1981,000000	7,256900
1980,000000	7,234900
1979,000000	7,181100
1978,000000	7,148600
1977,000000	7,105600
1976,000000	7,075600
1975,000000	7,032600
1974,000000	6,990700
1973,000000	6,952300
1972,000000	6,911900
1971,000000	6,896900
1970,000000	6,872000
1969,000000	6,815800
1968,000000	6,799600
1967,000000	6,757800
1966,000000	6,728200
1965,000000	6,706000
1964,000000	6,670300
1963,000000	6,649900
1962,000000	6,612900
1961,000000	6,570700
1960,000000	6,558400
1959,000000	6,522100
1958,000000	6,482100
1957,000000	6,458700
1956,000000	6,454500
1955,000000	6,414100
1954,000000	6,386300
1953,000000	6,369500
1952,000000	6,355300
1951,000000	6,330600
1950,000000	6,288400
1949,000000	6,260100
1948,000000	6,259400
1947,000000	6,242600
1946,000000	6,212500
1945,000000	6,188000
1944,000000	6,169200
1943,000000	6,164900
1942,000000	6,162500
1941,000000	6,143300
1940,000000	6,140600
1939,000000	6,124600
1938,000000	6,139600
1937,000000	6,133500
1936,000000	6,117800
1935,000000	6,138200
1934,000000	6,130900
1933,000000	6,123500
1932,000000	6,131500
1931,000000	6,131800
1930,000000	6,163600
1929,000000	6,192800
1928,000000	6,198600
1927,000000	6,217100
1926,000000	6,242600
1925,000000	6,261400
1924,000000	6,294900
1923,000000	6,329000
1922,000000	6,329400
1921,000000	6,400200
1920,000000	6,454700
1919,000000	6,504600
1918,000000	6,558700
1917,000000	6,585900
1916,000000	6,611500
1915,000000	6,695200
1914,000000	6,744300
1913,000000	6,807500
1912,000000	6,883200
1911,000000	7,001900
1910,000000	7,063600
1909,000000	7,128400
1908,000000	7,191500
1907,000000	7,261700
1906,000000	7,354300
1905,000000	7,494000
1904,000000	7,617400
1903,000000	7,741800
1902,000000	7,847900
1901,000000	7,984000
1900,000000	8,107500
1899,000000	8,273600
1898,000000	8,452200
1897,000000	8,626200
1896,000000	8,784200
1895,000000	8,935700
1894,000000	9,098600
1893,000000	9,281800
1892,000000	9,516000
1891,000000	9,756100
1890,000000	10,042400
1889,000000	10,318700
1888,000000	10,593000
1887,000000	10,869300
1886,000000	11,149000
1885,000000	11,476100
1884,000000	11,802700
1883,000000	12,164500
1882,000000	12,515800
1881,000000	12,865200
1880,000000	13,207900
1879,000000	13,539600
1878,000000	13,853700
1877,000000	14,223200
1876,000000	14,562000
1875,000000	14,892700
1874,000000	15,229200
1873,000000	15,577600
1872,000000	15,931700
1871,000000	16,255200
1870,000000	16,576100
1869,000000	16,887400
1868,000000	17,208100
1867,000000	17,434400
1866,000000	17,640800
1865,000000	17,811500
1864,000000	17,960900
1863,000000	18,093900
1862,000000	18,205500
1861,000000	18,353800
1860,000000	18,532200
1859,000000	18,671700
1858,000000	18,835500
1857,000000	18,980000
1856,000000	19,069600
1855,000000	19,143300
1854,000000	19,231100
1853,000000	19,332400
1852,000000	19,381000
1851,000000	19,406800
1850,000000	19,454400
1849,000000	19,480300
1848,000000	19,500300
1847,000000	19,580000
1846,000000	19,673900
1845,000000	19,671200
1844,000000	19,638300
1843,000000	19,602200
1842,000000	19,582600
1841,000000	19,613100
1840,000000	19,671700
1839,000000	19,695500
1838,000000	19,690900
1837,000000	19,683200
1836,000000	19,686700
1835,000000	19,693800
1834,000000	19,677400
1833,000000	19,643500
1832,000000	19,585800
1831,000000	19,524400
1830,000000	19,502500
1829,000000	19,498200
1828,000000	19,485200
1827,000000	19,427200
1826,000000	19,390900
1825,000000	19,391400
1824,000000	19,341000
1823,000000	19,281200
1822,000000	19,241300
1821,000000	19,224100
1820,000000	19,242600
1819,000000	19,245700
1818,000000	19,217800
1817,000000	19,167500
1816,000000	19,128300
1815,000000	19,116400
1814,000000	19,110400
1813,000000	19,097800
1812,000000	19,080600
1811,000000	19,049000
1810,000000	19,020900
1809,000000	19,000000
1808,000000	18,959500
1807,000000	18,934900
1806,000000	18,912400
1805,000000	18,872600
1804,000000	18,837900
1803,000000	18,795300
1802,000000	18,759300
1801,000000	18,738000
1800,000000	18,704600
1799,000000	18,670000
1798,000000	18,636300
1797,000000	18,582400
1796,000000	18,548200
1795,000000	18,524400
1794,000000	18,484000
1793,000000	18,450300
1792,000000	18,428800
1791,000000	18,390700
1790,000000	18,346800
1789,000000	18,317200
1788,000000	18,285300
1787,000000	18,254800
1786,000000	18,221500
1785,000000	18,183500
1784,000000	18,153000
1783,000000	18,124100
1782,000000	18,088500
1781,000000	18,048600
1780,000000	18,013900
1779,000000	17,976300
1778,000000	17,937000
1777,000000	17,907600
1776,000000	17,885900
1775,000000	17,842700
1774,000000	17,800200
1773,000000	17,753700
1772,000000	17,705900
1771,000000	17,662200
1770,000000	17,612700
1769,000000	17,581200
1768,000000	17,536400
1767,000000	17,490800
1766,000000	17,450500
1765,000000	17,415600
1764,000000	17,382200
1763,000000	17,370900
1762,000000	17,363800
1761,000000	17,375600
1760,000000	17,390800
1759,000000	17,418800
1758,000000	17,459600
1757,000000	17,509600
1756,000000	17,565500
1755,000000	17,611400
1754,000000	17,667900
1753,000000	17,707900
1752,000000	17,746300
1751,000000	17,761700
1750,000000	17,790600
1749,000000	17,814100
1748,000000	17,811700
1747,000000	17,788200
1746,000000	17,785200
1745,000000	17,778800
1744,000000	17,747200
1743,000000	17,701900
1742,000000	17,649600
1741,000000	17,576700
1740,000000	17,501100
1739,000000	17,425800
1738,000000	17,340900
1737,000000	17,233600
1736,000000	17,140400
1735,000000	17,063600
1734,000000	17,000400
1733,000000	16,951300
1732,000000	16,932100
1731,000000	16,927800
1730,000000	16,948900
1729,000000	16,977700
1728,000000	17,043500
1727,000000	17,099700
1726,000000	17,151300
1725,000000	17,209400
1724,000000	17,272300
1723,000000	17,335600
1722,000000	17,377300
1721,000000	17,429100
1720,000000	17,465300
1719,000000	17,501700
1718,000000	17,530800
1717,000000	17,579500
1716,000000	17,626300
1715,000000	17,676100
1714,000000	17,740100
1713,000000	17,789400
1712,000000	17,820300
1711,000000	17,861000
1710,000000	17,919800
1709,000000	17,960700
1708,000000	17,985800
1707,000000	17,994500
1706,000000	17,974700
1705,000000	17,948600
1704,000000	17,933500
1703,000000	17,908600
1702,000000	17,842000
1701,000000	17,791200
1700,000000	17,734300
1699,000000	17,655000
1698,000000	17,579700
1697,000000	17,493300
1696,000000	17,398100
1695,000000	17,349900
1694,000000	17,307300
1693,000000	17,309800
1692,000000	17,316000
1691,000000	17,360800
1690,000000	17,427100
1689,000000	17,518600
1688,000000	17,597800
1687,000000	17,676400
1686,000000	17,712500
1685,000000	17,769000
1684,000000	17,823100
1683,000000	17,853800
1682,000000	17,937100
1681,000000	18,052500
1680,000000	18,249900
1679,000000	18,467900
1678,000000	18,720500
1677,000000	18,984500
1676,000000	19,237700
1675,000000	19,498600
1674,000000	19,724700
1673,000000	19,944900
1672,000000	20,127200
1671,000000	20,285000
1670,000000	20,418100
1669,000000	20,549100
1668,000000	20,651900
1667,000000	20,717200
1666,000000	20,793900
1665,000000	20,848000
1664,000000	20,916900
1663,000000	20,954000
1662,000000	20,996900
1661,000000	21,032800
1660,000000	21,047200
1659,000000	21,093900
1658,000000	21,094000
1657,000000	21,125400
1656,000000	21,117900
1655,000000	21,131200
1654,000000	21,127600
1653,000000	21,134500
1652,000000	21,127100
1651,000000	21,106800
1650,000000	21,103700
1649,000000	21,052400
1648,000000	21,039200
1647,000000	21,000900
1646,000000	20,982000
1645,000000	20,932600
1644,000000	20,927900
1643,000000	20,882900
1642,000000	20,850800
1641,000000	20,799000
1640,000000	20,756300
1639,000000	20,721400
1638,000000	20,678900
1637,000000	20,614700
1636,000000	20,593600
1635,000000	20,560200
1634,000000	20,487900
1633,000000	20,449500
1632,000000	20,388000
1631,000000	20,336400
1630,000000	20,293100
1629,000000	20,238500
1628,000000	20,200000
1627,000000	20,125700
1626,000000	20,066300
1625,000000	20,023800
1624,000000	19,935800
1623,000000	19,903600
1622,000000	19,845500
1621,000000	19,805700
1620,000000	19,756100
1619,000000	19,691800
1618,000000	19,658300
1617,000000	19,605400
1616,000000	19,565600
1615,000000	19,506500
1614,000000	19,460300
1613,000000	19,418400
1612,000000	19,366300
1611,000000	19,321800
1610,000000	19,288600
1609,000000	19,229100
1608,000000	19,162300
1607,000000	19,133400
1606,000000	19,077500
1605,000000	19,020500
1604,000000	18,981600
1603,000000	18,932500
1602,000000	18,880900
1601,000000	18,831400
1600,000000	18,792700
1599,000000	18,735100
1598,000000	18,674800
1597,000000	18,632800
1596,000000	18,587900
1595,000000	18,539200
1594,000000	18,488100
1593,000000	18,444600
1592,000000	18,404800
1591,000000	18,355600
1590,000000	18,308700
1589,000000	18,261700
1588,000000	18,222200
1587,000000	18,168000
1586,000000	18,132400
1585,000000	18,080000
1584,000000	18,040700
1583,000000	18,013700
1582,000000	17,949100
1581,000000	17,913500
1580,000000	17,880900
1579,000000	17,834200
1578,000000	17,806100
1577,000000	17,765500
1576,000000	17,722300
1575,000000	17,696400
1574,000000	17,667300
1573,000000	17,646800
1572,000000	17,611300
1571,000000	17,581800
1570,000000	17,541200
1569,000000	17,518300
1568,000000	17,500500
1567,000000	17,471200
1566,000000	17,453400
1565,000000	17,429000
1564,000000	17,399500
1563,000000	17,375100
1562,000000	17,357400
1561,000000	17,339800
1560,000000	17,302500
1559,000000	17,271600
1558,000000	17,245300
1557,000000	17,215300
1556,000000	17,194800
1555,000000	17,153600
1554,000000	17,123000
1553,000000	17,088800
1552,000000	17,042600
1551,000000	17,011600
1550,000000	16,965300
1549,000000	16,920100
1548,000000	16,897000
1547,000000	16,856100
1546,000000	16,815000
1545,000000	16,786800
1544,000000	16,745000
1543,000000	16,721600
1542,000000	16,688100
1541,000000	16,647800
1540,000000	16,617000
1539,000000	16,587600
1538,000000	16,547500
1537,000000	16,509500
1536,000000	16,482900
1535,000000	16,433500
1534,000000	16,387000
1533,000000	16,343900
1532,000000	16,315100
1531,000000	16,284300
1530,000000	16,243500
1529,000000	16,202200
1528,000000	16,160900
1527,000000	16,109400
1526,000000	16,061400
1525,000000	16,027200
1524,000000	15,993700
1523,000000	15,944600
1522,000000	15,886800
1521,000000	15,832700
1520,000000	15,788700
1519,000000	15,734700
1518,000000	15,685000
1517,000000	15,640200
1516,000000	15,592000
1515,000000	15,541200
1514,000000	15,481000
1513,000000	15,429900
1512,000000	15,387300
1511,000000	15,337100
1510,000000	15,274400
1509,000000	15,219400
1508,000000	15,167100
1507,000000	15,116200
1506,000000	15,059900
1505,000000	15,000400
1504,000000	14,939600
1503,000000	14,889000
1502,000000	14,842200
1501,000000	14,783600
1500,000000	14,727600
1499,000000	14,670900
1498,000000	14,624100
1497,000000	14,577500
1496,000000	14,522300
1495,000000	14,474200
1494,000000	14,436900
1493,000000	14,384600
1492,000000	14,333100
1491,000000	14,305400
1490,000000	14,269700
1489,000000	14,213800
1488,000000	14,171500
1487,000000	14,133700
1486,000000	14,114600
1485,000000	14,075500
1484,000000	14,026100
1483,000000	13,985500
1482,000000	13,946700
1481,000000	13,903800
1480,000000	13,875700
1479,000000	13,854500
1478,000000	13,819800
1477,000000	13,788700
1476,000000	13,766100
1475,000000	13,751600
1474,000000	13,722200
1473,000000	13,696400
1472,000000	13,698600
1471,000000	13,677600
1470,000000	13,658300
1469,000000	13,639800
1468,000000	13,627100
1467,000000	13,628300
1466,000000	13,615200
1465,000000	13,589900
1464,000000	13,600400
1463,000000	13,601600
1462,000000	13,599700
1461,000000	13,615000
1460,000000	13,606600
1459,000000	13,618600
1458,000000	13,637400
1457,000000	13,644500
1456,000000	13,678300
1455,000000	13,711600
1454,000000	13,737200
1453,000000	13,779400
1452,000000	13,809000
1451,000000	13,848600
1450,000000	13,899900
1449,000000	13,933200
1448,000000	13,959900
1447,000000	14,004900
1446,000000	14,060500
1445,000000	14,119200
1444,000000	14,178900
1443,000000	14,217200
1442,000000	14,255900
1441,000000	14,334700
1440,000000	14,402000
1439,000000	14,471300
1438,000000	14,523000
1437,000000	14,616500
1436,000000	14,672500
1435,000000	14,748100
1434,000000	14,829500
1433,000000	14,918700
1432,000000	15,008100
1431,000000	15,104500
1430,000000	15,210700
1429,000000	15,304500
1428,000000	15,407100
1427,000000	15,524600
1426,000000	15,624300
1425,000000	15,763900
1424,000000	15,906600
1423,000000	16,033800
1422,000000	16,186000
1421,000000	16,326700
1420,000000	16,478300
1419,000000	16,658600
1418,000000	16,868300
1417,000000	17,044600
1416,000000	17,205800
1415,000000	17,403200
1414,000000	17,604100
1413,000000	17,837700
1412,000000	18,049100
1411,000000	18,245300
1410,000000	18,487800
1409,000000	18,777700
1408,000000	19,067800
1407,000000	19,354900
1406,000000	19,643200
1405,000000	19,933100
1404,000000	20,320900
1403,000000	20,620400
1402,000000	20,946200
1401,000000	21,240800
1400,000000	21,650400
1399,000000	22,058500
1398,000000	22,396200
1397,000000	22,668300
1396,000000	22,964700
1395,000000	23,422000
1394,000000	23,835700
1393,000000	24,152900
1392,000000	24,472900
1391,000000	24,898100
1390,000000	25,322800
1389,000000	25,676100
1388,000000	26,107500
1387,000000	26,617700
1386,000000	27,089200
1385,000000	27,560200
1384,000000	28,004100
1383,000000	28,543900
1382,000000	29,076500
1381,000000	29,558100
1380,000000	30,024400
1379,000000	30,326800
1378,000000	30,644200
1377,000000	30,840700
1376,000000	31,083900
1375,000000	31,303400
1374,000000	31,511700
1373,000000	31,735000
1372,000000	32,023400
1371,000000	32,247700
1370,000000	32,583200
1369,000000	32,842100
1368,000000	33,064800
1367,000000	33,337000
1366,000000	33,552100
1365,000000	33,723700
1364,000000	33,953500
1363,000000	34,093200
1362,000000	34,266100
1361,000000	34,428700
1360,000000	34,610400
1359,000000	34,706800
1358,000000	34,787100
1357,000000	34,890900
1356,000000	34,987400
1355,000000	35,154400
1354,000000	35,394900
1353,000000	35,632300
1352,000000	35,876600
1351,000000	36,235000
1350,000000	36,564700
1349,000000	36,884900
1348,000000	37,223000
1347,000000	37,526000
1346,000000	37,830100
1345,000000	38,097600
1344,000000	38,363400
1343,000000	38,665600
1342,000000	38,928700
1341,000000	39,190400
1340,000000	39,469100
1339,000000	39,736800
1338,000000	40,046700
1337,000000	40,314700
1336,000000	40,594300
1335,000000	40,841700
1334,000000	41,108800
1333,000000	41,370200
1332,000000	41,638500
1331,000000	41,900900
1330,000000	42,148500
1329,000000	42,407700
1328,000000	42,647500
1327,000000	42,870900
1326,000000	43,116300
1325,000000	43,333200
1324,000000	43,549900
1323,000000	43,766900
1322,000000	43,972900
1321,000000	44,170300
1320,000000	44,389300
1319,000000	44,566800
1318,000000	44,741700
1317,000000	44,906900
1316,000000	45,055300
1315,000000	45,242500
1314,000000	45,421800
1313,000000	45,566900
1312,000000	45,715200
1311,000000	45,865800
1310,000000	45,998000
1309,000000	46,122300
1308,000000	46,248100
1307,000000	46,357500
1306,000000	46,461200
1305,000000	46,562100
1304,000000	46,661200
1303,000000	46,752700
1302,000000	46,821200
1301,000000	46,885900
1300,000000	46,959700
1299,000000	47,026300
1298,000000	47,086500
1297,000000	47,157900
1296,000000	47,205600
1295,000000	47,249200
1294,000000	47,279700
1293,000000	47,321300
1292,000000	47,357800
1291,000000	47,392600
1290,000000	47,403100
1289,000000	47,415500
1288,000000	47,426100
1287,000000	47,448900
1286,000000	47,433700
1285,000000	47,413300
1284,000000	47,395200
1283,000000	47,392100
1282,000000	47,379400
1281,000000	47,342100
1280,000000	47,326400
1279,000000	47,318500
1278,000000	47,273400
1277,000000	47,242200
1276,000000	47,223700
1275,000000	47,184200
1274,000000	47,173900
1273,000000	47,153200
1272,000000	47,125200
1271,000000	47,103400
1270,000000	47,067700
1269,000000	47,049200
1268,000000	47,026800
1267,000000	46,991600
1266,000000	46,959000
1265,000000	46,937900
1264,000000	46,924900
1263,000000	46,892900
1262,000000	46,856600
1261,000000	46,808000
1260,000000	46,769500
1259,000000	46,742300
1258,000000	46,706700
1257,000000	46,661300
1256,000000	46,615600
1255,000000	46,569700
1254,000000	46,527700
1253,000000	46,486100
1252,000000	46,429000
1251,000000	46,361200
1250,000000	46,301500
1249,000000	46,233100
1248,000000	46,168600
1247,000000	46,094800
1246,000000	46,016100
1245,000000	45,934600
1244,000000	45,856000
1243,000000	45,763400
1242,000000	45,657100
1241,000000	45,560100
1240,000000	45,474500
1239,000000	45,370400
1238,000000	45,272700
1237,000000	45,176300
1236,000000	45,075100
1235,000000	44,975400
1234,000000	44,847400
1233,000000	44,724500
1232,000000	44,615600
1231,000000	44,494100
1230,000000	44,365900
1229,000000	44,236100
1228,000000	44,098000
1227,000000	43,966000
1226,000000	43,840600
1225,000000	43,694400
1224,000000	43,550500
1223,000000	43,418300
1222,000000	43,269300
1221,000000	43,125800
1220,000000	42,982800
1219,000000	42,843200
1218,000000	42,695300
1217,000000	42,557400
1216,000000	42,443800
1215,000000	42,327600
1214,000000	42,201200
1213,000000	42,073900
1212,000000	41,965400
1211,000000	41,856700
1210,000000	41,749100
1209,000000	41,636300
1208,000000	41,525100
1207,000000	41,428600
1206,000000	41,337600
1205,000000	41,259600
1204,000000	41,178500
1203,000000	41,117500
1202,000000	41,078300
1201,000000	41,026600
1200,000000	40,980100
1199,000000	40,940600
1198,000000	40,879200
1197,000000	40,809700
1196,000000	40,734100
1195,000000	40,624800
1194,000000	40,479700
1193,000000	40,302200
1192,000000	40,111900
1191,000000	39,859500
1190,000000	39,575200
1189,000000	39,304800
1188,000000	39,035200
1187,000000	38,807000
1186,000000	38,650800
1185,000000	38,568600
1184,000000	38,574900
1183,000000	38,647000
1182,000000	38,799700
1181,000000	39,052400
1180,000000	39,360500
1179,000000	39,698500
1178,000000	40,048900
1177,000000	40,383100
1176,000000	40,686300
1175,000000	40,951800
1174,000000	41,194500
1173,000000	41,430000
1172,000000	41,655300
1171,000000	41,889300
1170,000000	42,114600
1169,000000	42,354800
1168,000000	42,606600
1167,000000	42,861800
1166,000000	43,102200
1165,000000	43,368800
1164,000000	43,657800
1163,000000	43,939600
1162,000000	44,228300
1161,000000	44,525300
1160,000000	44,832700
1159,000000	45,124600
1158,000000	45,407900
1157,000000	45,697400
1156,000000	45,986100
1155,000000	46,260400
1154,000000	46,516200
1153,000000	46,729000
1152,000000	46,941200
1151,000000	47,112600
1150,000000	47,272900
1149,000000	47,433000
1148,000000	47,572400
1147,000000	47,724800
1146,000000	47,897400
1145,000000	48,096200
1144,000000	48,332900
1143,000000	48,599600
1142,000000	48,906100
1141,000000	49,261000
1140,000000	49,614200
1139,000000	49,979500
1138,000000	50,365800
1137,000000	50,766700
1136,000000	51,175900
1135,000000	51,627500
1134,000000	52,078900
1133,000000	52,537200
1132,000000	52,893200
1131,000000	53,245200
1130,000000	53,582300
1129,000000	53,888000
1128,000000	54,131700
1127,000000	54,378000
1126,000000	54,557200
1125,000000	54,691800
1124,000000	54,799700
1123,000000	54,936400
1122,000000	55,019700
1121,000000	55,085000
1120,000000	55,153400
1119,000000	55,202000
1118,000000	55,241200
1117,000000	55,270300
1116,000000	55,292300
1115,000000	55,305600
1114,000000	55,303700
1113,000000	55,332000
1112,000000	55,333100
1111,000000	55,334900
1110,000000	55,327100
1109,000000	55,325300
1108,000000	55,325400
1107,000000	55,322900
1106,000000	55,337100
1105,000000	55,326500
1104,000000	55,329200
1103,000000	55,324900
1102,000000	55,313800
1101,000000	55,311000
1100,000000	55,321900
1099,000000	55,303300
1098,000000	55,285600
1097,000000	55,275500
1096,000000	55,259900
1095,000000	55,259400
1094,000000	55,226500
1093,000000	55,207100
1092,000000	55,196500
1091,000000	55,171800
1090,000000	55,125900
1089,000000	55,100600
1088,000000	55,063100
1087,000000	55,050200
1086,000000	54,998900
1085,000000	54,972700
1084,000000	54,917700
1083,000000	54,875800
1082,000000	54,826800
1081,000000	54,802300
1080,000000	54,737500
1079,000000	54,703100
1078,000000	54,639000
1077,000000	54,613000
1076,000000	54,551700
1075,000000	54,497600
1074,000000	54,456500
1073,000000	54,400100
1072,000000	54,358200
1071,000000	54,302800
1070,000000	54,239900
1069,000000	54,197400
1068,000000	54,125200
1067,000000	54,080600
1066,000000	54,009000
1065,000000	53,970400
1064,000000	53,901000
1063,000000	53,837900
1062,000000	53,790200
1061,000000	53,727500
1060,000000	53,660900
1059,000000	53,607600
1058,000000	53,545800
1057,000000	53,481000
1056,000000	53,410900
1055,000000	53,345300
1054,000000	53,271800
1053,000000	53,200200
1052,000000	53,124900
1051,000000	53,059900
1050,000000	52,996600
1049,000000	52,949500
1048,000000	52,901000
1047,000000	52,821800
1046,000000	52,777900
1045,000000	52,716800
1044,000000	52,652700
1043,000000	52,602900
1042,000000	52,538300
1041,000000	52,482700
1040,000000	52,429000
1039,000000	52,378000
1038,000000	52,308600
1037,000000	52,248400
1036,000000	52,198900
1035,000000	52,126700
1034,000000	52,064000
1033,000000	51,999300
1032,000000	51,944800
1031,000000	51,866200
1030,000000	51,794800
1029,000000	51,738800
1028,000000	51,668000
1027,000000	51,611800
1026,000000	51,532800
1025,000000	51,464700
1024,000000	51,394300
1023,000000	51,322200
1022,000000	51,245600
1021,000000	51,166100
1020,000000	51,122500
1019,000000	51,043700
1018,000000	50,967000
1017,000000	50,923800
1016,000000	50,861800
1015,000000	50,818100
1014,000000	50,759600
1013,000000	50,715600
1012,000000	50,672400
1011,000000	50,644900
1010,000000	50,613700
1009,000000	50,589300
1008,000000	50,578000
1007,000000	50,555000
1006,000000	50,559500
1005,000000	50,561100
1004,000000	50,553700
1003,000000	50,547100
1002,000000	50,542700
1001,000000	50,536900
1000,000000	50,547500
999,000000	50,553500
998,000000	50,551900
997,000000	50,560500
996,000000	50,586700
995,000000	50,615800
994,000000	50,645000
993,000000	50,674200
992,000000	50,707300
991,000000	50,734400
990,000000	50,781400
989,000000	50,831200
988,000000	50,874200
987,000000	50,941600
986,000000	51,011500
985,000000	51,060100
984,000000	51,128800
983,000000	51,201900
982,000000	51,278000
981,000000	51,361500
980,000000	51,447600
979,000000	51,535400
978,000000	51,619200
977,000000	51,717700
976,000000	51,818400
975,000000	51,899800
974,000000	51,996600
973,000000	52,109600
972,000000	52,213300
971,000000	52,314800
970,000000	52,418000
969,000000	52,519700
968,000000	52,631800
967,000000	52,744300
966,000000	52,858300
965,000000	52,968200
964,000000	53,085300
963,000000	53,215800
962,000000	53,345800
961,000000	53,484300
960,000000	53,618900
959,000000	53,751100
958,000000	53,897400
957,000000	54,043000
956,000000	54,197700
955,000000	54,363100
954,000000	54,530000
953,000000	54,699000
952,000000	54,869200
951,000000	55,049300
950,000000	55,236700
949,000000	55,410400
948,000000	55,598400
947,000000	55,798600
946,000000	55,991500
945,000000	56,186000
944,000000	56,369700
943,000000	56,571200
942,000000	56,760600
941,000000	56,944200
940,000000	57,156800
939,000000	57,340600
938,000000	57,533500
937,000000	57,748100
936,000000	57,948900
935,000000	58,160900
934,000000	58,373600
933,000000	58,585900
932,000000	58,799300
931,000000	59,004800
930,000000	59,222000
929,000000	59,426300
928,000000	59,627400
927,000000	59,849400
926,000000	60,066500
925,000000	60,274200
924,000000	60,481400
923,000000	60,688200
922,000000	60,905600
921,000000	61,136300
920,000000	61,364000
919,000000	61,580400
918,000000	61,797500
917,000000	62,018200
916,000000	62,236200
915,000000	62,457400
914,000000	62,687900
913,000000	62,915300
912,000000	63,145100
911,000000	63,368000
910,000000	63,589900
909,000000	63,813300
908,000000	64,041800
907,000000	64,278700
906,000000	64,508600
905,000000	64,726800
904,000000	64,976300
903,000000	65,214200
902,000000	65,448300
901,000000	65,675200
900,000000	65,918000
899,000000	66,169000
898,000000	66,402100
897,000000	66,639200
896,000000	66,879600
895,000000	67,101400
894,000000	67,328300
893,000000	67,578200
892,000000	67,802700
891,000000	68,020400
890,000000	68,248700
889,000000	68,477900
888,000000	68,694600
887,000000	68,885900
886,000000	69,082300
885,000000	69,251800
884,000000	69,455700
883,000000	69,640300
882,000000	69,840900
881,000000	70,012000
880,000000	70,215700
879,000000	70,381300
878,000000	70,584300
877,000000	70,744300
876,000000	70,905300
875,000000	71,028000
874,000000	71,104900
873,000000	71,152700
872,000000	71,194500
871,000000	71,264800
870,000000	71,444900
869,000000	71,772000
868,000000	72,111200
867,000000	72,470800
866,000000	72,812500
865,000000	73,151200
864,000000	73,496500
863,000000	73,849900
862,000000	74,196400
861,000000	74,585400
860,000000	74,943900
859,000000	75,310400
858,000000	75,700000
857,000000	81,435400
856,000000	82,761300
855,000000	83,408700
854,000000	83,629800
853,000000	84,292000
852,000000	84,643400
851,000000	85,060200
850,000000	85,438300
849,000000	85,937800
848,000000	85,968400
847,000000	86,522900
846,000000	86,920500
845,000000	87,283800
844,000000	87,833000
843,000000	87,851400
842,000000	88,073400
841,000000	88,251500
840,000000	88,455200
839,000000	88,843200
838,000000	89,236400
837,000000	89,524000
836,000000	89,509200
835,000000	89,520900
834,000000	89,784300
833,000000	89,751000
832,000000	89,652900
831,000000	89,920500
830,000000	89,665000
829,000000	89,954200
828,000000	89,947400
827,000000	89,898200
826,000000	89,980100
825,000000	90,183800
824,000000	89,836000
823,000000	90,355900
822,000000	90,092800
821,000000	90,375600
820,000000	90,339100
819,000000	90,117700
818,000000	90,400800
817,000000	90,464400
816,000000	90,639500
815,000000	90,365200
814,000000	90,782100
813,000000	90,719500
812,000000	90,987200
811,000000	91,230900
810,000000	91,434300
809,000000	91,689200
808,000000	91,637300
807,000000	91,999200
806,000000	92,035300
805,000000	92,240300
804,000000	92,243000
803,000000	92,393900
802,000000	92,712200
801,000000	92,594700
800,000000	92,846600
799,000000	92,885300
798,000000	92,827500
797,000000	92,714700
796,000000	93,098000
795,000000	92,803100
794,000000	92,937100
793,000000	93,006200
792,000000	92,854100
791,000000	92,568300
790,000000	92,627100
789,000000	92,720200
788,000000	92,572300
787,000000	92,492400
786,000000	92,333700
785,000000	92,132200
784,000000	92,125300
783,000000	92,060600
782,000000	91,892300
781,000000	91,544300
780,000000	91,369400
779,000000	91,376900
778,000000	91,168500
777,000000	90,760700
776,000000	90,775900
775,000000	90,574600
774,000000	90,261200
773,000000	90,213800
772,000000	90,040200
771,000000	89,959900
770,000000	89,711000
769,000000	89,445100
768,000000	89,116300
767,000000	88,915000
766,000000	88,484800
765,000000	88,209600
764,000000	87,941700
763,000000	87,542300
762,000000	87,156900
761,000000	86,751600
760,000000	86,170400
759,000000	85,576000
758,000000	85,166000
757,000000	84,656200
756,000000	84,124900
755,000000	83,582400
754,000000	82,805200
753,000000	82,148600
752,000000	81,721800
751,000000	80,939400
750,000000	80,169300
749,000000	79,567500
748,000000	78,992000
747,000000	78,345900
746,000000	77,704800
745,000000	77,220500
744,000000	76,592700
743,000000	76,182000
742,000000	75,761600
741,000000	75,191300
740,000000	74,707100
739,000000	74,508100
738,000000	74,140600
737,000000	73,949700
736,000000	73,644300
735,000000	73,574800
734,000000	73,311000
733,000000	73,326100
732,000000	73,372500
731,000000	73,289800
730,000000	73,366600
729,000000	73,432900
728,000000	73,689900
727,000000	73,829000
726,000000	74,012900
725,000000	74,190500
724,000000	74,509200
723,000000	74,719000
722,000000	75,039900
721,000000	75,252600
720,000000	75,556400
719,000000	75,737900
718,000000	75,976200
717,000000	76,289200
716,000000	76,558600
715,000000	76,720800
714,000000	76,793800
713,000000	76,960100
712,000000	77,140700
711,000000	77,224900
710,000000	77,327700
709,000000	77,349300
708,000000	77,375400
707,000000	77,305000
706,000000	77,180700
705,000000	77,125400
704,000000	77,055500
703,000000	76,828900
702,000000	76,689000
701,000000	76,513700
700,000000	76,317500
699,000000	75,929900
698,000000	75,691800
697,000000	75,463400
696,000000	75,208900
695,000000	74,963400
694,000000	74,619200
693,000000	74,358800
692,000000	74,109800
691,000000	73,860700
690,000000	73,578700
689,000000	73,254200
688,000000	72,951400
687,000000	72,661700
686,000000	72,366100
685,000000	72,128700
684,000000	71,844400
683,000000	71,561900
682,000000	71,212900
681,000000	70,855200
680,000000	70,441400
679,000000	70,049900
678,000000	69,573900
677,000000	69,055900
676,000000	68,582300
675,000000	67,992100
674,000000	67,408300
673,000000	66,736500
672,000000	65,970600
671,000000	65,216500
670,000000	64,430800
669,000000	63,600400
668,000000	62,736400
667,000000	61,890000
666,000000	61,037300
665,000000	60,165400
664,000000	59,328300
663,000000	58,539500
662,000000	57,837000
661,000000	57,136700
660,000000	56,513700
659,000000	56,014100
658,000000	55,532600
657,000000	55,192700
656,000000	54,956900
655,000000	54,818600
654,000000	54,764100
653,000000	54,765400
652,000000	54,895600
651,000000	55,116500
650,000000	55,423500
649,000000	55,830600
648,000000	56,318300
647,000000	56,889600
646,000000	57,559100
645,000000	58,316400
644,000000	59,124000
643,000000	59,981300
642,000000	60,900600
641,000000	61,880400
640,000000	62,904200
639,000000	63,913100
638,000000	64,950100
637,000000	66,008200
636,000000	67,043500
635,000000	68,080000
634,000000	69,139200
633,000000	70,226700
632,000000	71,313600
631,000000	72,359900
630,000000	73,384600
629,000000	74,363500
628,000000	75,332500
627,000000	76,264100
626,000000	77,151800
625,000000	78,038400
624,000000	78,864700
623,000000	79,646900
622,000000	80,442600
621,000000	81,217100
620,000000	81,929600
619,000000	82,615800
618,000000	83,301300
617,000000	83,992200
616,000000	84,660100
615,000000	85,276500
614,000000	85,889800
613,000000	86,429500
612,000000	86,954800
611,000000	87,510800
610,000000	87,965500
609,000000	88,380300
608,000000	88,801500
607,000000	89,155000
606,000000	89,510400
605,000000	89,833800
604,000000	90,105000
603,000000	90,385500
602,000000	90,605600
601,000000	90,814200
600,000000	91,033700
599,000000	91,211600
598,000000	91,364500
597,000000	91,438100
596,000000	91,544900
595,000000	91,647100
594,000000	91,690900
593,000000	91,767300
592,000000	91,743000
591,000000	91,756700
590,000000	91,759100
589,000000	91,756200
588,000000	91,712500
587,000000	91,674500
586,000000	91,595300
585,000000	91,506300
584,000000	91,446300
583,000000	91,338800
582,000000	91,208100
581,000000	91,100400
580,000000	90,999900
579,000000	90,860800
578,000000	90,726000
577,000000	90,591900
576,000000	90,428200
575,000000	90,273000
574,000000	90,132200
573,000000	89,947100
572,000000	89,719500
571,000000	89,530100
570,000000	89,280500
569,000000	89,057800
568,000000	88,757200
567,000000	88,510500
566,000000	88,189300
565,000000	87,874200
564,000000	87,492100
563,000000	87,156400
562,000000	86,771100
561,000000	86,324600
560,000000	85,895700
559,000000	85,490500
558,000000	85,011300
557,000000	84,549300
556,000000	84,082300
555,000000	83,604000
554,000000	83,054300
553,000000	82,470100
552,000000	81,932000
551,000000	81,329100
550,000000	80,661800
549,000000	79,985400
548,000000	79,245800
547,000000	78,513600
546,000000	77,712200
545,000000	76,912500
544,000000	76,053000
543,000000	75,069400
542,000000	74,050700
541,000000	73,034300
540,000000	71,912600
539,000000	70,759900
538,000000	69,573400
537,000000	68,301900
536,000000	67,043200
535,000000	65,739800
534,000000	64,369700
533,000000	63,021300
532,000000	61,673600
531,000000	60,333300
530,000000	58,980000
529,000000	57,649500
528,000000	56,294500
527,000000	55,025300
526,000000	53,756600
525,000000	52,489700
524,000000	51,239300
523,000000	50,026500
522,000000	48,798300
521,000000	47,688100
520,000000	46,567000
519,000000	45,448600
518,000000	44,462200
517,000000	43,449200
516,000000	42,497800
515,000000	41,548600
514,000000	40,623200
513,000000	39,730700
512,000000	38,874500
511,000000	38,003000
510,000000	37,163800
509,000000	36,388400
508,000000	35,595200
507,000000	34,858300
506,000000	34,197500
505,000000	33,519500
504,000000	32,853300
503,000000	32,261600
502,000000	31,760900
501,000000	31,256900
500,000000	30,747300
499,000000	30,385400
498,000000	30,051400
497,000000	29,743200
496,000000	29,556600
495,000000	29,363300
494,000000	29,237000
493,000000	29,127000
492,000000	29,099600
491,000000	29,107200
490,000000	29,143400
489,000000	29,160700
488,000000	29,182700
487,000000	29,200800
486,000000	29,214700
485,000000	29,247400
484,000000	29,235600
483,000000	29,178100
482,000000	29,069900
481,000000	28,931500
480,000000	28,750400
479,000000	28,527500
478,000000	28,247300
477,000000	27,972800
476,000000	27,622500
475,000000	27,229100
474,000000	26,822100
473,000000	26,371100
472,000000	25,910100
471,000000	25,423500
470,000000	24,943000
469,000000	24,447000
468,000000	23,963200
467,000000	23,505700
466,000000	23,072700
465,000000	22,648600
464,000000	22,273300
463,000000	21,941700
462,000000	21,688100
461,000000	21,475500
460,000000	21,332200
459,000000	21,223700
458,000000	21,214800
457,000000	21,220400
456,000000	21,270100
455,000000	21,404600
454,000000	21,549200
453,000000	21,696900
452,000000	21,845300
451,000000	22,040000
450,000000	22,255600
449,000000	22,478800
448,000000	22,657700
447,000000	22,844400
446,000000	23,015800
445,000000	23,180000
444,000000	23,277300
443,000000	23,388000
442,000000	23,493700
441,000000	23,540200
440,000000	23,575200
439,000000	23,547000
438,000000	23,551600
437,000000	23,513400
436,000000	23,474500
435,000000	23,465600
434,000000	23,366300
433,000000	23,253200
432,000000	23,183900
431,000000	23,038000
430,000000	22,918900
429,000000	22,771900
428,000000	22,617900
427,000000	22,440400
426,000000	22,263900
425,000000	22,078100
424,000000	21,861800
423,000000	21,648600
422,000000	21,472600
421,000000	21,210400
420,000000	20,933300
419,000000	20,664600
418,000000	20,419500
417,000000	20,098700
416,000000	19,808300
415,000000	19,511200
414,000000	19,174200
413,000000	18,804100
412,000000	18,448000
411,000000	18,048100
410,000000	17,679400
409,000000	17,275200
408,000000	16,873000
407,000000	16,451700
406,000000	16,012900
405,000000	15,606900
404,000000	15,151900
403,000000	14,711500
402,000000	14,279100
401,000000	13,844000
400,000000	13,428400
399,000000	12,997200
398,000000	12,572900
397,000000	12,160100
396,000000	11,797600
395,000000	11,450800
394,000000	11,084800
393,000000	10,746900
392,000000	10,417300
391,000000	10,082600
390,000000	9,780800
389,000000	9,534800
388,000000	9,252800
387,000000	9,014300
386,000000	8,819700
385,000000	8,629100
384,000000	8,417800
383,000000	8,239600
382,000000	8,071400
381,000000	7,924500
380,000000	7,799600
379,000000	7,673500
378,000000	7,559700
377,000000	7,448600
376,000000	7,251100
375,000000	7,047500
374,000000	6,908000
373,000000	6,743300
372,000000	6,809800
371,000000	6,844200
370,000000	6,779900
369,000000	6,682100
368,000000	6,607000
367,000000	6,723800
366,000000	6,673600
365,000000	6,515300
364,000000	6,585800
363,000000	6,483000
362,000000	6,488500
361,000000	6,473000
360,000000	6,314600
359,000000	6,346700
358,000000	6,499100
357,000000	6,424200
356,000000	6,325900
355,000000	6,350200
354,000000	6,457800
353,000000	6,367900
352,000000	6,129300
351,000000	6,128200
350,000000	6,084400
349,000000	5,984300
348,000000	5,981200
347,000000	5,976300
346,000000	5,940400
345,000000	5,935900
344,000000	5,869800
343,000000	5,899800
342,000000	5,938200
341,000000	5,952200
340,000000	5,972400
339,000000	5,945000
338,000000	5,897900
337,000000	5,656300
336,000000	5,669500
335,000000	5,672800
334,000000	5,671700
333,000000	5,832200
332,000000	5,806500
331,000000	5,803200
330,000000	5,742300
329,000000	5,841600
328,000000	5,873600
327,000000	5,561200
326,000000	5,375400
325,000000	5,702100
324,000000	6,146200
323,000000	6,134300
322,000000	5,727700
321,000000	5,396900
320,000000	5,850300
319,000000	6,133400
318,000000	6,144100
317,000000	6,114800
316,000000	5,761200
315,000000	5,540400
314,000000	5,540900
313,000000	5,565700
312,000000	5,566200
311,000000	5,570800
310,000000	5,571600
309,000000	5,579700
308,000000	5,573000
307,000000	5,585300
306,000000	5,592100
305,000000	5,581600
304,000000	5,596400
303,000000	5,582200
302,000000	5,598200
301,000000	5,625600
300,000000	5,630800
299,000000	5,618200
298,000000	5,618500
297,000000	5,636200
296,000000	5,629000
295,000000	5,641100
294,000000	5,669100
293,000000	5,656300
292,000000	5,666700
291,000000	5,689900
290,000000	5,686300
289,000000	5,694700
288,000000	5,698500
287,000000	5,747000
286,000000	5,732700
285,000000	5,733400
284,000000	5,740100
283,000000	5,736900
282,000000	5,799900
281,000000	5,802200
280,000000	5,770400
279,000000	5,733700
278,000000	5,761300
277,000000	5,816100
276,000000	5,845300
275,000000	5,870900
274,000000	5,885800
273,000000	5,884600
272,000000	5,911700
271,000000	5,915300
270,000000	5,952400
269,000000	5,966000
268,000000	5,997200
267,000000	6,021700
266,000000	6,099800
265,000000	6,119900
264,000000	6,058000
263,000000	6,104300
262,000000	6,148600
261,000000	6,198700
260,000000	6,217000
259,000000	6,214900
258,000000	6,267000
257,000000	6,296500
256,000000	6,248200
255,000000	6,285500
254,000000	6,304000
253,000000	6,289700
252,000000	6,281800
251,000000	6,312100
250,000000	6,383000
