PE UV       SUBTECH     SPECTRUM    ASCII       PEDS        4.00        
   -1
CICIMAUCR0242-1.Sample.ASC
24/06/20
16:22:23.00
24/06/20
16:22:23.00
Vinicio Soto Monge
C. cupreomarginata. Sex M
250,000000
1
Lambda 1050
1050L1511233
PerkinElmer UV WinLab 6.3.2.0749 / 2.02.05 Lambda 900 UV/VIS/NIR, Aug  7 2015 09:38:08

0
0
3350/servo 860,8/2
0
0
UV/VIS
1
1
1
DoubleDePol,CommonBeamDepol,RBeamAtt,SBeamAtt,60mm sphere, WB InGaAs Detector
0
0
0
0
Program
Program
3350/servo 860,8/2
3350/0,2 860,8/0,2
3350/0,2 860,8/0,2
0
15.00
 
 
 
0
 
860,8
319,2
860,8
Front
100
on
S:100 R:100
0
0
0
0
 
0
 
 
 
0
 
 
0
0
0
0
0
 
 
 
 
0
0


0
0
#HDR
-1
-1
#GR
nm
%R
1.0
0.0
2500,000000
-1,000000
2251
8
67,775100
5,469600
#DATA
2500,000000	9,787100
2499,000000	9,655500
2498,000000	9,690600
2497,000000	9,801200
2496,000000	9,761800
2495,000000	9,662700
2494,000000	9,586700
2493,000000	9,600800
2492,000000	9,548900
2491,000000	9,559000
2490,000000	9,570300
2489,000000	9,582500
2488,000000	9,537800
2487,000000	9,563300
2486,000000	9,560400
2485,000000	9,516300
2484,000000	9,555700
2483,000000	9,571600
2482,000000	9,524100
2481,000000	9,516600
2480,000000	9,566700
2479,000000	9,551800
2478,000000	9,538400
2477,000000	9,560400
2476,000000	9,505700
2475,000000	9,527800
2474,000000	9,532300
2473,000000	9,554100
2472,000000	9,468600
2471,000000	9,543300
2470,000000	9,556300
2469,000000	9,544800
2468,000000	9,565100
2467,000000	9,543800
2466,000000	9,555000
2465,000000	9,564400
2464,000000	9,654300
2463,000000	9,663300
2462,000000	9,643300
2461,000000	9,688700
2460,000000	9,721200
2459,000000	9,799300
2458,000000	9,805700
2457,000000	9,826900
2456,000000	9,919700
2455,000000	9,977000
2454,000000	10,002800
2453,000000	10,059600
2452,000000	10,140600
2451,000000	10,191800
2450,000000	10,286500
2449,000000	10,366300
2448,000000	10,406200
2447,000000	10,498200
2446,000000	10,579100
2445,000000	10,633800
2444,000000	10,695400
2443,000000	10,756500
2442,000000	10,831300
2441,000000	10,897200
2440,000000	10,985600
2439,000000	11,047800
2438,000000	11,087600
2437,000000	11,146600
2436,000000	11,201700
2435,000000	11,272600
2434,000000	11,348700
2433,000000	11,405600
2432,000000	11,456400
2431,000000	11,504600
2430,000000	11,550100
2429,000000	11,591500
2428,000000	11,634800
2427,000000	11,694500
2426,000000	11,728700
2425,000000	11,760500
2424,000000	11,816700
2423,000000	11,839000
2422,000000	11,873400
2421,000000	11,927600
2420,000000	11,937200
2419,000000	11,977900
2418,000000	12,017900
2417,000000	12,041100
2416,000000	12,071800
2415,000000	12,104400
2414,000000	12,121200
2413,000000	12,153500
2412,000000	12,183400
2411,000000	12,232800
2410,000000	12,254400
2409,000000	12,292800
2408,000000	12,317700
2407,000000	12,330500
2406,000000	12,343300
2405,000000	12,382400
2404,000000	12,399400
2403,000000	12,423900
2402,000000	12,442500
2401,000000	12,459100
2400,000000	12,480300
2399,000000	12,501000
2398,000000	12,546700
2397,000000	12,589400
2396,000000	12,639400
2395,000000	12,694200
2394,000000	12,738100
2393,000000	12,769800
2392,000000	12,787200
2391,000000	12,801900
2390,000000	12,823400
2389,000000	12,850300
2388,000000	12,868700
2387,000000	12,882500
2386,000000	12,902600
2385,000000	12,921400
2384,000000	12,937700
2383,000000	12,936900
2382,000000	12,942600
2381,000000	12,948700
2380,000000	12,942800
2379,000000	12,946300
2378,000000	12,947600
2377,000000	12,933100
2376,000000	12,930000
2375,000000	12,936600
2374,000000	12,927800
2373,000000	12,900300
2372,000000	12,891700
2371,000000	12,886600
2370,000000	12,871800
2369,000000	12,852600
2368,000000	12,836400
2367,000000	12,803200
2366,000000	12,755700
2365,000000	12,716500
2364,000000	12,690500
2363,000000	12,649000
2362,000000	12,614200
2361,000000	12,575100
2360,000000	12,530300
2359,000000	12,503400
2358,000000	12,462700
2357,000000	12,423600
2356,000000	12,401000
2355,000000	12,368400
2354,000000	12,340100
2353,000000	12,329500
2352,000000	12,333900
2351,000000	12,336300
2350,000000	12,340800
2349,000000	12,340200
2348,000000	12,355900
2347,000000	12,383600
2346,000000	12,421400
2345,000000	12,471800
2344,000000	12,513700
2343,000000	12,536300
2342,000000	12,564500
2341,000000	12,604200
2340,000000	12,647500
2339,000000	12,673400
2338,000000	12,687200
2337,000000	12,704300
2336,000000	12,710000
2335,000000	12,700800
2334,000000	12,714800
2333,000000	12,720600
2332,000000	12,691200
2331,000000	12,664400
2330,000000	12,635300
2329,000000	12,617600
2328,000000	12,581300
2327,000000	12,528100
2326,000000	12,489200
2325,000000	12,442100
2324,000000	12,375900
2323,000000	12,307700
2322,000000	12,258500
2321,000000	12,171800
2320,000000	12,100000
2319,000000	12,015700
2318,000000	11,913100
2317,000000	11,828400
2316,000000	11,730100
2315,000000	11,637000
2314,000000	11,553100
2313,000000	11,446000
2312,000000	11,353300
2311,000000	11,278400
2310,000000	11,205000
2309,000000	11,144100
2308,000000	11,109800
2307,000000	11,059100
2306,000000	11,037000
2305,000000	11,029200
2304,000000	11,018800
2303,000000	11,032000
2302,000000	11,072400
2301,000000	11,120400
2300,000000	11,185800
2299,000000	11,241600
2298,000000	11,313700
2297,000000	11,396300
2296,000000	11,478100
2295,000000	11,552500
2294,000000	11,635300
2293,000000	11,705000
2292,000000	11,742100
2291,000000	11,811000
2290,000000	11,863600
2289,000000	11,899400
2288,000000	11,911100
2287,000000	11,934300
2286,000000	11,930300
2285,000000	11,919000
2284,000000	11,917300
2283,000000	11,883200
2282,000000	11,861700
2281,000000	11,840300
2280,000000	11,794600
2279,000000	11,749800
2278,000000	11,702700
2277,000000	11,646600
2276,000000	11,653800
2275,000000	11,590500
2274,000000	11,559700
2273,000000	11,533800
2272,000000	11,509700
2271,000000	11,518000
2270,000000	11,534400
2269,000000	11,542100
2268,000000	11,569200
2267,000000	11,621300
2266,000000	11,699800
2265,000000	11,792400
2264,000000	11,898300
2263,000000	12,038000
2262,000000	12,174200
2261,000000	12,327600
2260,000000	12,497300
2259,000000	12,711800
2258,000000	12,900700
2257,000000	13,114300
2256,000000	13,301100
2255,000000	13,529700
2254,000000	13,738600
2253,000000	13,963900
2252,000000	14,177600
2251,000000	14,386000
2250,000000	14,578100
2249,000000	14,746600
2248,000000	14,936400
2247,000000	15,097600
2246,000000	15,250600
2245,000000	15,395700
2244,000000	15,527400
2243,000000	15,662000
2242,000000	15,744600
2241,000000	15,859600
2240,000000	15,960800
2239,000000	16,050900
2238,000000	16,145400
2237,000000	16,203100
2236,000000	16,262500
2235,000000	16,320700
2234,000000	16,370500
2233,000000	16,420300
2232,000000	16,463000
2231,000000	16,495700
2230,000000	16,541800
2229,000000	16,558200
2228,000000	16,560700
2227,000000	16,574300
2226,000000	16,588200
2225,000000	16,567300
2224,000000	16,577400
2223,000000	16,539300
2222,000000	16,526900
2221,000000	16,520200
2220,000000	16,520800
2219,000000	16,463500
2218,000000	16,458700
2217,000000	16,422500
2216,000000	16,383400
2215,000000	16,369500
2214,000000	16,304900
2213,000000	16,288600
2212,000000	16,261800
2211,000000	16,229500
2210,000000	16,206500
2209,000000	16,158900
2208,000000	16,169400
2207,000000	16,128600
2206,000000	16,112700
2205,000000	16,087800
2204,000000	16,069800
2203,000000	16,042200
2202,000000	16,027200
2201,000000	16,030800
2200,000000	16,002600
2199,000000	16,000900
2198,000000	15,984500
2197,000000	15,968100
2196,000000	15,950800
2195,000000	15,933400
2194,000000	15,931800
2193,000000	15,942000
2192,000000	15,921600
2191,000000	15,906100
2190,000000	15,893000
2189,000000	15,889900
2188,000000	15,863400
2187,000000	15,860700
2186,000000	15,849100
2185,000000	15,826700
2184,000000	15,826500
2183,000000	15,821700
2182,000000	15,779500
2181,000000	15,788900
2180,000000	15,766900
2179,000000	15,770800
2178,000000	15,749900
2177,000000	15,760700
2176,000000	15,723300
2175,000000	15,730200
2174,000000	15,737700
2173,000000	15,722900
2172,000000	15,713800
2171,000000	15,717600
2170,000000	15,716700
2169,000000	15,716600
2168,000000	15,740000
2167,000000	15,743300
2166,000000	15,751900
2165,000000	15,760200
2164,000000	15,783100
2163,000000	15,793800
2162,000000	15,794300
2161,000000	15,834300
2160,000000	15,863300
2159,000000	15,885300
2158,000000	15,925100
2157,000000	15,962900
2156,000000	15,992900
2155,000000	16,026700
2154,000000	16,067000
2153,000000	16,112400
2152,000000	16,164100
2151,000000	16,209200
2150,000000	16,250500
2149,000000	16,286500
2148,000000	16,342200
2147,000000	16,388700
2146,000000	16,436000
2145,000000	16,472100
2144,000000	16,517300
2143,000000	16,554500
2142,000000	16,594800
2141,000000	16,625600
2140,000000	16,668600
2139,000000	16,706800
2138,000000	16,729300
2137,000000	16,747300
2136,000000	16,769700
2135,000000	16,816400
2134,000000	16,832300
2133,000000	16,862300
2132,000000	16,900000
2131,000000	16,915500
2130,000000	16,921900
2129,000000	16,938900
2128,000000	16,957500
2127,000000	16,980300
2126,000000	16,991100
2125,000000	16,990500
2124,000000	16,994800
2123,000000	16,995900
2122,000000	16,992000
2121,000000	16,998300
2120,000000	16,996100
2119,000000	16,991400
2118,000000	16,985100
2117,000000	16,958500
2116,000000	16,931200
2115,000000	16,924100
2114,000000	16,928000
2113,000000	16,913700
2112,000000	16,886700
2111,000000	16,871500
2110,000000	16,845200
2109,000000	16,833000
2108,000000	16,816600
2107,000000	16,805600
2106,000000	16,779900
2105,000000	16,754800
2104,000000	16,731800
2103,000000	16,706300
2102,000000	16,680100
2101,000000	16,656600
2100,000000	16,634600
2099,000000	16,602400
2098,000000	16,580000
2097,000000	16,576100
2096,000000	16,559600
2095,000000	16,524800
2094,000000	16,502600
2093,000000	16,493300
2092,000000	16,487700
2091,000000	16,484600
2090,000000	16,464000
2089,000000	16,448400
2088,000000	16,433600
2087,000000	16,417900
2086,000000	16,392800
2085,000000	16,379400
2084,000000	16,371500
2083,000000	16,337400
2082,000000	16,305800
2081,000000	16,281700
2080,000000	16,262600
2079,000000	16,236400
2078,000000	16,204900
2077,000000	16,170900
2076,000000	16,126900
2075,000000	16,098400
2074,000000	16,072500
2073,000000	16,014800
2072,000000	15,969000
2071,000000	15,930000
2070,000000	15,882100
2069,000000	15,835700
2068,000000	15,786700
2067,000000	15,740100
2066,000000	15,688400
2065,000000	15,644300
2064,000000	15,598300
2063,000000	15,561600
2062,000000	15,519700
2061,000000	15,480100
2060,000000	15,448000
2059,000000	15,417300
2058,000000	15,384000
2057,000000	15,359300
2056,000000	15,356300
2055,000000	15,353900
2054,000000	15,349300
2053,000000	15,367900
2052,000000	15,375500
2051,000000	15,399400
2050,000000	15,443200
2049,000000	15,491800
2048,000000	15,560800
2047,000000	15,624700
2046,000000	15,689100
2045,000000	15,760600
2044,000000	15,843500
2043,000000	15,929500
2042,000000	16,009700
2041,000000	16,084100
2040,000000	16,153100
2039,000000	16,242700
2038,000000	16,331200
2037,000000	16,407300
2036,000000	16,469400
2035,000000	16,520500
2034,000000	16,580700
2033,000000	16,636400
2032,000000	16,700300
2031,000000	16,744100
2030,000000	16,789500
2029,000000	16,829000
2028,000000	16,870400
2027,000000	16,899400
2026,000000	16,943200
2025,000000	16,969600
2024,000000	16,986900
2023,000000	17,024900
2022,000000	17,060900
2021,000000	17,077200
2020,000000	17,079900
2019,000000	17,114900
2018,000000	17,122000
2017,000000	17,131400
2016,000000	17,120500
2015,000000	17,125600
2014,000000	17,131600
2013,000000	17,115100
2012,000000	17,106600
2011,000000	17,103300
2010,000000	17,098700
2009,000000	17,069700
2008,000000	17,049600
2007,000000	17,044500
2006,000000	16,994300
2005,000000	16,980100
2004,000000	16,941300
2003,000000	16,901400
2002,000000	16,868000
2001,000000	16,814700
2000,000000	16,775600
1999,000000	16,717100
1998,000000	16,665800
1997,000000	16,617600
1996,000000	16,549900
1995,000000	16,492700
1994,000000	16,424000
1993,000000	16,371100
1992,000000	16,311500
1991,000000	16,250100
1990,000000	16,182100
1989,000000	16,108700
1988,000000	16,044300
1987,000000	15,953600
1986,000000	15,890000
1985,000000	15,806700
1984,000000	15,733100
1983,000000	15,658400
1982,000000	15,581700
1981,000000	15,509800
1980,000000	15,446800
1979,000000	15,366800
1978,000000	15,278600
1977,000000	15,208300
1976,000000	15,131000
1975,000000	15,038000
1974,000000	14,964000
1973,000000	14,901700
1972,000000	14,829400
1971,000000	14,776100
1970,000000	14,692600
1969,000000	14,617900
1968,000000	14,536500
1967,000000	14,471100
1966,000000	14,410700
1965,000000	14,342100
1964,000000	14,277400
1963,000000	14,211800
1962,000000	14,152300
1961,000000	14,091500
1960,000000	14,016200
1959,000000	13,927700
1958,000000	13,886000
1957,000000	13,801200
1956,000000	13,753300
1955,000000	13,699700
1954,000000	13,606200
1953,000000	13,578800
1952,000000	13,503700
1951,000000	13,450900
1950,000000	13,396900
1949,000000	13,352600
1948,000000	13,298300
1947,000000	13,257300
1946,000000	13,208700
1945,000000	13,170100
1944,000000	13,108900
1943,000000	13,080100
1942,000000	13,064400
1941,000000	13,046600
1940,000000	12,998300
1939,000000	13,000900
1938,000000	12,992100
1937,000000	12,986700
1936,000000	12,982000
1935,000000	12,983300
1934,000000	12,993600
1933,000000	13,010200
1932,000000	13,054800
1931,000000	13,085400
1930,000000	13,123900
1929,000000	13,186500
1928,000000	13,224500
1927,000000	13,310300
1926,000000	13,379400
1925,000000	13,446600
1924,000000	13,535800
1923,000000	13,614700
1922,000000	13,722200
1921,000000	13,822500
1920,000000	13,968800
1919,000000	14,088100
1918,000000	14,221000
1917,000000	14,333400
1916,000000	14,496600
1915,000000	14,634800
1914,000000	14,789000
1913,000000	14,972000
1912,000000	15,154500
1911,000000	15,362000
1910,000000	15,541300
1909,000000	15,741300
1908,000000	15,925800
1907,000000	16,098300
1906,000000	16,334900
1905,000000	16,610000
1904,000000	16,869100
1903,000000	17,098900
1902,000000	17,360400
1901,000000	17,617800
1900,000000	17,897700
1899,000000	18,181900
1898,000000	18,505100
1897,000000	18,814200
1896,000000	19,111400
1895,000000	19,395700
1894,000000	19,681000
1893,000000	19,956600
1892,000000	20,280000
1891,000000	20,666200
1890,000000	21,025300
1889,000000	21,411800
1888,000000	21,757300
1887,000000	22,138300
1886,000000	22,497500
1885,000000	22,885300
1884,000000	23,298900
1883,000000	23,747200
1882,000000	24,184900
1881,000000	24,620300
1880,000000	25,045800
1879,000000	25,448200
1878,000000	25,827800
1877,000000	26,222400
1876,000000	26,601700
1875,000000	26,959400
1874,000000	27,295600
1873,000000	27,635000
1872,000000	27,984500
1871,000000	28,286800
1870,000000	28,587100
1869,000000	28,855700
1868,000000	29,129000
1867,000000	29,314200
1866,000000	29,478000
1865,000000	29,590200
1864,000000	29,709000
1863,000000	29,805400
1862,000000	29,884600
1861,000000	29,993600
1860,000000	30,121800
1859,000000	30,233200
1858,000000	30,321500
1857,000000	30,415200
1856,000000	30,465600
1855,000000	30,502000
1854,000000	30,537000
1853,000000	30,582300
1852,000000	30,588600
1851,000000	30,582600
1850,000000	30,583700
1849,000000	30,571100
1848,000000	30,596100
1847,000000	30,634500
1846,000000	30,661700
1845,000000	30,643000
1844,000000	30,574500
1843,000000	30,494100
1842,000000	30,472400
1841,000000	30,499700
1840,000000	30,531300
1839,000000	30,518400
1838,000000	30,483400
1837,000000	30,463000
1836,000000	30,446600
1835,000000	30,426200
1834,000000	30,384300
1833,000000	30,322100
1832,000000	30,246500
1831,000000	30,183100
1830,000000	30,140500
1829,000000	30,119600
1828,000000	30,076000
1827,000000	30,020000
1826,000000	29,969900
1825,000000	29,936500
1824,000000	29,884900
1823,000000	29,827300
1822,000000	29,787900
1821,000000	29,772900
1820,000000	29,800600
1819,000000	29,819900
1818,000000	29,770100
1817,000000	29,713200
1816,000000	29,692400
1815,000000	29,677900
1814,000000	29,663600
1813,000000	29,643100
1812,000000	29,638700
1811,000000	29,620200
1810,000000	29,607000
1809,000000	29,573700
1808,000000	29,538000
1807,000000	29,505400
1806,000000	29,466900
1805,000000	29,441300
1804,000000	29,399300
1803,000000	29,368000
1802,000000	29,337300
1801,000000	29,303000
1800,000000	29,272800
1799,000000	29,225900
1798,000000	29,182800
1797,000000	29,151700
1796,000000	29,104000
1795,000000	29,059300
1794,000000	29,027700
1793,000000	28,994900
1792,000000	28,958900
1791,000000	28,924000
1790,000000	28,882300
1789,000000	28,838500
1788,000000	28,805300
1787,000000	28,764000
1786,000000	28,717600
1785,000000	28,680200
1784,000000	28,632000
1783,000000	28,582300
1782,000000	28,541300
1781,000000	28,489400
1780,000000	28,430300
1779,000000	28,386300
1778,000000	28,333100
1777,000000	28,276200
1776,000000	28,213300
1775,000000	28,142700
1774,000000	28,072800
1773,000000	28,006000
1772,000000	27,944900
1771,000000	27,861700
1770,000000	27,776100
1769,000000	27,695700
1768,000000	27,614500
1767,000000	27,544100
1766,000000	27,479900
1765,000000	27,418000
1764,000000	27,364900
1763,000000	27,337800
1762,000000	27,324500
1761,000000	27,333200
1760,000000	27,349600
1759,000000	27,388900
1758,000000	27,436500
1757,000000	27,472700
1756,000000	27,532000
1755,000000	27,584300
1754,000000	27,630100
1753,000000	27,663000
1752,000000	27,681100
1751,000000	27,677900
1750,000000	27,681300
1749,000000	27,667200
1748,000000	27,645400
1747,000000	27,618500
1746,000000	27,567600
1745,000000	27,499800
1744,000000	27,435900
1743,000000	27,347200
1742,000000	27,231700
1741,000000	27,111500
1740,000000	26,971300
1739,000000	26,815300
1738,000000	26,677100
1737,000000	26,516300
1736,000000	26,378100
1735,000000	26,276700
1734,000000	26,190200
1733,000000	26,129100
1732,000000	26,100100
1731,000000	26,106700
1730,000000	26,143100
1729,000000	26,192600
1728,000000	26,234500
1727,000000	26,316100
1726,000000	26,385300
1725,000000	26,443300
1724,000000	26,506100
1723,000000	26,545100
1722,000000	26,591900
1721,000000	26,644900
1720,000000	26,684200
1719,000000	26,738600
1718,000000	26,791600
1717,000000	26,856400
1716,000000	26,937000
1715,000000	27,002500
1714,000000	27,092900
1713,000000	27,162500
1712,000000	27,243400
1711,000000	27,302000
1710,000000	27,357300
1709,000000	27,392000
1708,000000	27,416100
1707,000000	27,443500
1706,000000	27,423100
1705,000000	27,404600
1704,000000	27,382000
1703,000000	27,364100
1702,000000	27,288000
1701,000000	27,226100
1700,000000	27,154900
1699,000000	27,025600
1698,000000	26,915800
1697,000000	26,818600
1696,000000	26,742700
1695,000000	26,660500
1694,000000	26,631700
1693,000000	26,655100
1692,000000	26,696200
1691,000000	26,765300
1690,000000	26,852500
1689,000000	26,953000
1688,000000	27,036700
1687,000000	27,107400
1686,000000	27,160500
1685,000000	27,213400
1684,000000	27,256300
1683,000000	27,350500
1682,000000	27,475400
1681,000000	27,704000
1680,000000	27,991500
1679,000000	28,340400
1678,000000	28,660500
1677,000000	29,040400
1676,000000	29,399200
1675,000000	29,707500
1674,000000	29,999500
1673,000000	30,268600
1672,000000	30,478200
1671,000000	30,681300
1670,000000	30,857000
1669,000000	31,044900
1668,000000	31,171400
1667,000000	31,279800
1666,000000	31,384400
1665,000000	31,490700
1664,000000	31,581700
1663,000000	31,663600
1662,000000	31,740800
1661,000000	31,798800
1660,000000	31,838400
1659,000000	31,910400
1658,000000	31,961200
1657,000000	31,991800
1656,000000	32,019600
1655,000000	32,038400
1654,000000	32,045600
1653,000000	32,054000
1652,000000	32,050200
1651,000000	32,038700
1650,000000	32,047100
1649,000000	32,023400
1648,000000	32,017300
1647,000000	31,974400
1646,000000	31,947800
1645,000000	31,903900
1644,000000	31,903900
1643,000000	31,848800
1642,000000	31,809500
1641,000000	31,773800
1640,000000	31,752400
1639,000000	31,694700
1638,000000	31,653000
1637,000000	31,585900
1636,000000	31,558100
1635,000000	31,514900
1634,000000	31,457400
1633,000000	31,400300
1632,000000	31,356100
1631,000000	31,303700
1630,000000	31,239100
1629,000000	31,197800
1628,000000	31,119200
1627,000000	31,064400
1626,000000	30,991000
1625,000000	30,941500
1624,000000	30,880600
1623,000000	30,812000
1622,000000	30,760100
1621,000000	30,710300
1620,000000	30,628200
1619,000000	30,557500
1618,000000	30,515400
1617,000000	30,457700
1616,000000	30,397100
1615,000000	30,344900
1614,000000	30,299700
1613,000000	30,245000
1612,000000	30,195800
1611,000000	30,140300
1610,000000	30,076600
1609,000000	30,015200
1608,000000	29,969800
1607,000000	29,913200
1606,000000	29,854200
1605,000000	29,799100
1604,000000	29,734400
1603,000000	29,679600
1602,000000	29,626000
1601,000000	29,577900
1600,000000	29,500100
1599,000000	29,442900
1598,000000	29,392700
1597,000000	29,336400
1596,000000	29,262100
1595,000000	29,220800
1594,000000	29,174900
1593,000000	29,106200
1592,000000	29,070300
1591,000000	29,038200
1590,000000	28,979700
1589,000000	28,944000
1588,000000	28,910900
1587,000000	28,854800
1586,000000	28,825300
1585,000000	28,783200
1584,000000	28,742400
1583,000000	28,686200
1582,000000	28,653700
1581,000000	28,629700
1580,000000	28,603100
1579,000000	28,565500
1578,000000	28,527700
1577,000000	28,514600
1576,000000	28,495200
1575,000000	28,485900
1574,000000	28,468000
1573,000000	28,446000
1572,000000	28,432300
1571,000000	28,435200
1570,000000	28,426600
1569,000000	28,434900
1568,000000	28,438600
1567,000000	28,455500
1566,000000	28,443200
1565,000000	28,428700
1564,000000	28,427800
1563,000000	28,435200
1562,000000	28,443100
1561,000000	28,446000
1560,000000	28,446700
1559,000000	28,434700
1558,000000	28,422300
1557,000000	28,402700
1556,000000	28,403300
1555,000000	28,400500
1554,000000	28,376000
1553,000000	28,354000
1552,000000	28,326200
1551,000000	28,294300
1550,000000	28,272800
1549,000000	28,245400
1548,000000	28,213900
1547,000000	28,190000
1546,000000	28,162600
1545,000000	28,137700
1544,000000	28,106800
1543,000000	28,072100
1542,000000	28,058900
1541,000000	28,051900
1540,000000	28,022800
1539,000000	27,997900
1538,000000	27,985500
1537,000000	27,958900
1536,000000	27,935100
1535,000000	27,931600
1534,000000	27,904800
1533,000000	27,877700
1532,000000	27,849600
1531,000000	27,817500
1530,000000	27,788600
1529,000000	27,760100
1528,000000	27,731400
1527,000000	27,706900
1526,000000	27,664200
1525,000000	27,623800
1524,000000	27,588500
1523,000000	27,543000
1522,000000	27,497700
1521,000000	27,458500
1520,000000	27,423700
1519,000000	27,383900
1518,000000	27,335900
1517,000000	27,280000
1516,000000	27,226900
1515,000000	27,174200
1514,000000	27,118400
1513,000000	27,076600
1512,000000	27,020400
1511,000000	26,966100
1510,000000	26,919400
1509,000000	26,858100
1508,000000	26,810600
1507,000000	26,762900
1506,000000	26,703600
1505,000000	26,644600
1504,000000	26,591000
1503,000000	26,531800
1502,000000	26,474400
1501,000000	26,418600
1500,000000	26,367700
1499,000000	26,316700
1498,000000	26,261600
1497,000000	26,221700
1496,000000	26,182800
1495,000000	26,132200
1494,000000	26,098800
1493,000000	26,065300
1492,000000	26,028000
1491,000000	26,000400
1490,000000	25,954200
1489,000000	25,921700
1488,000000	25,899500
1487,000000	25,881700
1486,000000	25,853300
1485,000000	25,820400
1484,000000	25,795600
1483,000000	25,779200
1482,000000	25,748800
1481,000000	25,720400
1480,000000	25,714500
1479,000000	25,693300
1478,000000	25,669600
1477,000000	25,654400
1476,000000	25,641000
1475,000000	25,634700
1474,000000	25,626700
1473,000000	25,634600
1472,000000	25,650500
1471,000000	25,652000
1470,000000	25,654700
1469,000000	25,667300
1468,000000	25,653000
1467,000000	25,650800
1466,000000	25,679200
1465,000000	25,692000
1464,000000	25,683400
1463,000000	25,714800
1462,000000	25,720600
1461,000000	25,750800
1460,000000	25,780900
1459,000000	25,815900
1458,000000	25,860400
1457,000000	25,887400
1456,000000	25,931400
1455,000000	25,985300
1454,000000	26,041800
1453,000000	26,078900
1452,000000	26,124300
1451,000000	26,204400
1450,000000	26,284900
1449,000000	26,344400
1448,000000	26,401500
1447,000000	26,456000
1446,000000	26,543600
1445,000000	26,631200
1444,000000	26,699100
1443,000000	26,772800
1442,000000	26,840500
1441,000000	26,921100
1440,000000	27,011700
1439,000000	27,107500
1438,000000	27,204400
1437,000000	27,292200
1436,000000	27,383300
1435,000000	27,470500
1434,000000	27,576900
1433,000000	27,695900
1432,000000	27,801200
1431,000000	27,919800
1430,000000	28,040300
1429,000000	28,145400
1428,000000	28,279500
1427,000000	28,428100
1426,000000	28,575800
1425,000000	28,728500
1424,000000	28,895900
1423,000000	29,081000
1422,000000	29,268600
1421,000000	29,426600
1420,000000	29,616700
1419,000000	29,846100
1418,000000	30,066600
1417,000000	30,273200
1416,000000	30,450200
1415,000000	30,650900
1414,000000	30,915900
1413,000000	31,200900
1412,000000	31,422400
1411,000000	31,603000
1410,000000	31,893500
1409,000000	32,193000
1408,000000	32,521100
1407,000000	32,851900
1406,000000	33,157200
1405,000000	33,459800
1404,000000	33,812500
1403,000000	34,128000
1402,000000	34,458300
1401,000000	34,763000
1400,000000	35,180600
1399,000000	35,527500
1398,000000	35,801900
1397,000000	36,009400
1396,000000	36,259600
1395,000000	36,620300
1394,000000	36,950600
1393,000000	37,166800
1392,000000	37,393900
1391,000000	37,657500
1390,000000	37,957500
1389,000000	38,207500
1388,000000	38,514500
1387,000000	38,895200
1386,000000	39,278200
1385,000000	39,623200
1384,000000	40,011200
1383,000000	40,404300
1382,000000	40,867500
1381,000000	41,286100
1380,000000	41,622200
1379,000000	41,866700
1378,000000	42,047300
1377,000000	42,174700
1376,000000	42,343200
1375,000000	42,487300
1374,000000	42,653200
1373,000000	42,847100
1372,000000	43,093200
1371,000000	43,337500
1370,000000	43,631700
1369,000000	43,866200
1368,000000	44,091700
1367,000000	44,312400
1366,000000	44,513700
1365,000000	44,680000
1364,000000	44,848900
1363,000000	44,981300
1362,000000	45,140900
1361,000000	45,274100
1360,000000	45,429300
1359,000000	45,462100
1358,000000	45,537000
1357,000000	45,604600
1356,000000	45,715600
1355,000000	45,872600
1354,000000	46,078000
1353,000000	46,393000
1352,000000	46,626300
1351,000000	46,976200
1350,000000	47,330100
1349,000000	47,674800
1348,000000	47,985800
1347,000000	48,264700
1346,000000	48,540600
1345,000000	48,785100
1344,000000	49,031100
1343,000000	49,316000
1342,000000	49,536200
1341,000000	49,773600
1340,000000	50,018000
1339,000000	50,235600
1338,000000	50,474600
1337,000000	50,685500
1336,000000	50,909700
1335,000000	51,125400
1334,000000	51,316900
1333,000000	51,528900
1332,000000	51,727000
1331,000000	51,911400
1330,000000	52,092800
1329,000000	52,271500
1328,000000	52,436200
1327,000000	52,626400
1326,000000	52,762500
1325,000000	52,926900
1324,000000	53,080500
1323,000000	53,216100
1322,000000	53,359100
1321,000000	53,480100
1320,000000	53,609800
1319,000000	53,732300
1318,000000	53,863900
1317,000000	53,954200
1316,000000	54,069400
1315,000000	54,178600
1314,000000	54,265900
1313,000000	54,365100
1312,000000	54,468300
1311,000000	54,563300
1310,000000	54,633700
1309,000000	54,722800
1308,000000	54,795100
1307,000000	54,862500
1306,000000	54,931900
1305,000000	54,989600
1304,000000	55,045000
1303,000000	55,099700
1302,000000	55,140400
1301,000000	55,179900
1300,000000	55,210000
1299,000000	55,240100
1298,000000	55,266200
1297,000000	55,293300
1296,000000	55,325500
1295,000000	55,336100
1294,000000	55,364700
1293,000000	55,382700
1292,000000	55,403200
1291,000000	55,405400
1290,000000	55,404200
1289,000000	55,402900
1288,000000	55,404400
1287,000000	55,390100
1286,000000	55,367300
1285,000000	55,355400
1284,000000	55,344500
1283,000000	55,315100
1282,000000	55,281400
1281,000000	55,270800
1280,000000	55,233300
1279,000000	55,196900
1278,000000	55,175200
1277,000000	55,158500
1276,000000	55,127200
1275,000000	55,096600
1274,000000	55,073100
1273,000000	55,065800
1272,000000	55,047200
1271,000000	55,041900
1270,000000	55,019200
1269,000000	55,005400
1268,000000	54,990100
1267,000000	54,979400
1266,000000	54,973800
1265,000000	54,951600
1264,000000	54,915100
1263,000000	54,902400
1262,000000	54,893800
1261,000000	54,864200
1260,000000	54,835300
1259,000000	54,821700
1258,000000	54,796100
1257,000000	54,772800
1256,000000	54,751100
1255,000000	54,729400
1254,000000	54,705300
1253,000000	54,661200
1252,000000	54,619400
1251,000000	54,586000
1250,000000	54,542000
1249,000000	54,484700
1248,000000	54,430200
1247,000000	54,369400
1246,000000	54,305200
1245,000000	54,230400
1244,000000	54,157000
1243,000000	54,090400
1242,000000	54,018200
1241,000000	53,917000
1240,000000	53,819900
1239,000000	53,723800
1238,000000	53,623400
1237,000000	53,529400
1236,000000	53,432900
1235,000000	53,337500
1234,000000	53,224700
1233,000000	53,102800
1232,000000	52,987400
1231,000000	52,872100
1230,000000	52,758200
1229,000000	52,633200
1228,000000	52,489500
1227,000000	52,355400
1226,000000	52,236700
1225,000000	52,095000
1224,000000	51,960200
1223,000000	51,831600
1222,000000	51,699100
1221,000000	51,563400
1220,000000	51,427600
1219,000000	51,304300
1218,000000	51,183600
1217,000000	51,064600
1216,000000	50,941000
1215,000000	50,820200
1214,000000	50,717700
1213,000000	50,606600
1212,000000	50,491100
1211,000000	50,394100
1210,000000	50,281000
1209,000000	50,188700
1208,000000	50,099500
1207,000000	50,008000
1206,000000	49,941600
1205,000000	49,875700
1204,000000	49,813200
1203,000000	49,764500
1202,000000	49,726200
1201,000000	49,683300
1200,000000	49,635000
1199,000000	49,602400
1198,000000	49,549000
1197,000000	49,472400
1196,000000	49,380000
1195,000000	49,262400
1194,000000	49,096700
1193,000000	48,886500
1192,000000	48,661700
1191,000000	48,392500
1190,000000	48,091800
1189,000000	47,796000
1188,000000	47,524900
1187,000000	47,303000
1186,000000	47,166400
1185,000000	47,095800
1184,000000	47,107800
1183,000000	47,222600
1182,000000	47,423500
1181,000000	47,706800
1180,000000	48,029500
1179,000000	48,396400
1178,000000	48,754700
1177,000000	49,087600
1176,000000	49,394600
1175,000000	49,665500
1174,000000	49,901600
1173,000000	50,144000
1172,000000	50,379000
1171,000000	50,614800
1170,000000	50,868400
1169,000000	51,126800
1168,000000	51,391600
1167,000000	51,670500
1166,000000	51,936300
1165,000000	52,221300
1164,000000	52,510900
1163,000000	52,789400
1162,000000	53,101400
1161,000000	53,399100
1160,000000	53,692900
1159,000000	53,985900
1158,000000	54,273900
1157,000000	54,553400
1156,000000	54,817800
1155,000000	55,067200
1154,000000	55,295500
1153,000000	55,467100
1152,000000	55,623900
1151,000000	55,755500
1150,000000	55,840200
1149,000000	55,925100
1148,000000	55,996600
1147,000000	56,096100
1146,000000	56,202700
1145,000000	56,328100
1144,000000	56,510900
1143,000000	56,734900
1142,000000	56,974300
1141,000000	57,254700
1140,000000	57,534900
1139,000000	57,849400
1138,000000	58,163000
1137,000000	58,495000
1136,000000	58,830500
1135,000000	59,193200
1134,000000	59,565800
1133,000000	59,946800
1132,000000	60,240100
1131,000000	60,516200
1130,000000	60,781100
1129,000000	61,035100
1128,000000	61,265600
1127,000000	61,476600
1126,000000	61,609200
1125,000000	61,731200
1124,000000	61,820600
1123,000000	61,934200
1122,000000	62,010700
1121,000000	62,069200
1120,000000	62,116700
1119,000000	62,171000
1118,000000	62,196400
1117,000000	62,224100
1116,000000	62,250300
1115,000000	62,266700
1114,000000	62,268600
1113,000000	62,253900
1112,000000	62,251400
1111,000000	62,250400
1110,000000	62,267400
1109,000000	62,257200
1108,000000	62,246300
1107,000000	62,243500
1106,000000	62,250800
1105,000000	62,217500
1104,000000	62,233800
1103,000000	62,241000
1102,000000	62,219400
1101,000000	62,220400
1100,000000	62,207200
1099,000000	62,183900
1098,000000	62,171900
1097,000000	62,175900
1096,000000	62,159400
1095,000000	62,149600
1094,000000	62,118900
1093,000000	62,124000
1092,000000	62,099800
1091,000000	62,057500
1090,000000	62,062300
1089,000000	62,022300
1088,000000	62,014100
1087,000000	61,975700
1086,000000	61,970600
1085,000000	61,926000
1084,000000	61,903600
1083,000000	61,882600
1082,000000	61,852400
1081,000000	61,826400
1080,000000	61,775600
1079,000000	61,752300
1078,000000	61,711900
1077,000000	61,692400
1076,000000	61,653300
1075,000000	61,653100
1074,000000	61,614600
1073,000000	61,596300
1072,000000	61,559100
1071,000000	61,512400
1070,000000	61,481400
1069,000000	61,460800
1068,000000	61,440800
1067,000000	61,399400
1066,000000	61,371900
1065,000000	61,334600
1064,000000	61,313200
1063,000000	61,292200
1062,000000	61,247800
1061,000000	61,193300
1060,000000	61,172300
1059,000000	61,136300
1058,000000	61,090700
1057,000000	61,070000
1056,000000	61,028900
1055,000000	60,990400
1054,000000	60,933000
1053,000000	60,911900
1052,000000	60,878800
1051,000000	60,831900
1050,000000	60,790200
1049,000000	60,752700
1048,000000	60,718700
1047,000000	60,690300
1046,000000	60,639300
1045,000000	60,624700
1044,000000	60,576200
1043,000000	60,554600
1042,000000	60,511400
1041,000000	60,470600
1040,000000	60,438800
1039,000000	60,397500
1038,000000	60,346900
1037,000000	60,319400
1036,000000	60,254700
1035,000000	60,206200
1034,000000	60,160800
1033,000000	60,118700
1032,000000	60,055600
1031,000000	59,991600
1030,000000	59,939200
1029,000000	59,880200
1028,000000	59,818200
1027,000000	59,741400
1026,000000	59,685700
1025,000000	59,599000
1024,000000	59,526300
1023,000000	59,461900
1022,000000	59,382200
1021,000000	59,299100
1020,000000	59,221500
1019,000000	59,152000
1018,000000	59,079400
1017,000000	59,006100
1016,000000	58,944300
1015,000000	58,877500
1014,000000	58,827300
1013,000000	58,765200
1012,000000	58,727900
1011,000000	58,677600
1010,000000	58,657100
1009,000000	58,636800
1008,000000	58,589300
1007,000000	58,581500
1006,000000	58,562300
1005,000000	58,540200
1004,000000	58,531400
1003,000000	58,525900
1002,000000	58,528500
1001,000000	58,516700
1000,000000	58,516600
999,000000	58,507700
998,000000	58,491600
997,000000	58,506600
996,000000	58,508000
995,000000	58,515800
994,000000	58,534200
993,000000	58,544700
992,000000	58,556300
991,000000	58,581500
990,000000	58,609300
989,000000	58,620300
988,000000	58,630700
987,000000	58,665100
986,000000	58,707300
985,000000	58,742500
984,000000	58,777500
983,000000	58,812500
982,000000	58,856200
981,000000	58,896300
980,000000	58,939300
979,000000	58,983900
978,000000	59,012700
977,000000	59,052900
976,000000	59,094600
975,000000	59,128800
974,000000	59,162500
973,000000	59,194300
972,000000	59,233100
971,000000	59,270400
970,000000	59,292900
969,000000	59,329700
968,000000	59,362700
967,000000	59,371300
966,000000	59,401200
965,000000	59,443500
964,000000	59,463500
963,000000	59,482700
962,000000	59,502800
961,000000	59,534500
960,000000	59,571100
959,000000	59,588000
958,000000	59,597700
957,000000	59,613400
956,000000	59,644400
955,000000	59,662500
954,000000	59,671600
953,000000	59,691800
952,000000	59,693500
951,000000	59,697600
950,000000	59,701200
949,000000	59,699900
948,000000	59,715300
947,000000	59,733300
946,000000	59,748400
945,000000	59,743300
944,000000	59,745400
943,000000	59,764800
942,000000	59,779600
941,000000	59,801300
940,000000	59,822800
939,000000	59,828900
938,000000	59,839300
937,000000	59,871800
936,000000	59,914000
935,000000	59,955000
934,000000	59,985700
933,000000	60,018800
932,000000	60,061500
931,000000	60,101800
930,000000	60,159100
929,000000	60,189700
928,000000	60,220300
927,000000	60,254500
926,000000	60,298900
925,000000	60,349200
924,000000	60,383900
923,000000	60,420200
922,000000	60,457300
921,000000	60,515300
920,000000	60,550800
919,000000	60,565900
918,000000	60,596300
917,000000	60,622300
916,000000	60,668100
915,000000	60,688000
914,000000	60,692100
913,000000	60,695500
912,000000	60,697000
911,000000	60,711000
910,000000	60,709100
909,000000	60,716100
908,000000	60,733500
907,000000	60,730700
906,000000	60,724500
905,000000	60,741700
904,000000	60,759500
903,000000	60,759300
902,000000	60,777800
901,000000	60,796700
900,000000	60,835600
899,000000	60,863300
898,000000	60,866100
897,000000	60,878300
896,000000	60,868300
895,000000	60,845000
894,000000	60,849800
893,000000	60,828900
892,000000	60,771800
891,000000	60,736200
890,000000	60,722100
889,000000	60,662500
888,000000	60,582900
887,000000	60,516900
886,000000	60,429000
885,000000	60,337100
884,000000	60,224600
883,000000	60,145300
882,000000	60,064400
881,000000	59,960300
880,000000	59,831600
879,000000	59,678400
878,000000	59,514300
877,000000	59,278800
876,000000	59,032600
875,000000	58,739900
874,000000	58,466700
873,000000	58,238400
872,000000	57,901200
871,000000	57,569100
870,000000	57,443100
869,000000	57,474700
868,000000	57,561300
867,000000	57,627200
866,000000	57,688100
865,000000	57,714800
864,000000	57,760800
863,000000	57,791800
862,000000	57,833100
861,000000	57,849500
860,000000	57,875000
859,000000	57,905900
858,000000	57,956700
857,000000	62,838800
856,000000	64,359700
855,000000	64,459000
854,000000	64,489600
853,000000	64,374200
852,000000	64,526600
851,000000	64,367800
850,000000	64,317800
849,000000	64,318500
848,000000	64,378400
847,000000	64,260100
846,000000	64,483600
845,000000	64,320400
844,000000	64,232400
843,000000	64,118600
842,000000	64,194800
841,000000	64,047000
840,000000	64,285800
839,000000	64,365600
838,000000	64,615100
837,000000	64,154200
836,000000	64,209100
835,000000	64,254900
834,000000	64,189000
833,000000	64,277500
832,000000	64,157400
831,000000	64,191400
830,000000	64,099600
829,000000	64,281800
828,000000	64,302600
827,000000	64,212300
826,000000	64,034300
825,000000	64,261300
824,000000	64,184500
823,000000	64,171000
822,000000	64,024700
821,000000	64,310200
820,000000	64,185000
819,000000	64,120100
818,000000	64,122400
817,000000	64,138500
816,000000	64,251500
815,000000	64,185900
814,000000	64,125000
813,000000	64,147000
812,000000	63,999500
811,000000	63,942500
810,000000	63,830800
809,000000	63,931000
808,000000	63,904700
807,000000	63,723500
806,000000	63,849800
805,000000	63,588600
804,000000	63,816000
803,000000	63,465300
802,000000	63,427500
801,000000	63,440000
800,000000	63,672700
799,000000	63,377000
798,000000	63,331700
797,000000	63,228300
796,000000	63,137200
795,000000	63,078900
794,000000	63,080900
793,000000	62,900300
792,000000	62,853200
791,000000	62,808000
790,000000	62,756000
789,000000	62,553500
788,000000	62,629900
787,000000	62,489600
786,000000	62,308600
785,000000	62,400300
784,000000	62,242400
783,000000	62,078900
782,000000	62,071300
781,000000	61,958300
780,000000	61,816200
779,000000	61,786100
778,000000	61,761800
777,000000	61,522600
776,000000	61,570800
775,000000	61,504500
774,000000	61,303800
773,000000	61,366200
772,000000	61,420300
771,000000	61,294900
770,000000	61,150300
769,000000	61,050000
768,000000	61,025700
767,000000	60,919200
766,000000	60,885500
765,000000	60,746300
764,000000	60,705100
763,000000	60,736500
762,000000	60,518300
761,000000	60,437600
760,000000	60,387800
759,000000	60,322200
758,000000	60,209700
757,000000	60,117600
756,000000	60,009300
755,000000	60,077800
754,000000	59,864500
753,000000	59,806700
752,000000	59,767800
751,000000	59,684300
750,000000	59,632400
749,000000	59,552200
748,000000	59,484500
747,000000	59,284400
746,000000	59,284700
745,000000	59,254900
744,000000	59,176700
743,000000	59,050800
742,000000	58,933600
741,000000	58,887600
740,000000	58,771800
739,000000	58,722400
738,000000	58,597700
737,000000	58,469000
736,000000	58,435000
735,000000	58,311100
734,000000	58,262500
733,000000	58,129100
732,000000	57,944800
731,000000	57,864700
730,000000	57,807600
729,000000	57,739900
728,000000	57,556300
727,000000	57,441100
726,000000	57,409100
725,000000	57,277000
724,000000	57,235900
723,000000	57,049100
722,000000	56,987500
721,000000	56,845000
720,000000	56,727300
719,000000	56,628700
718,000000	56,485600
717,000000	56,387900
716,000000	56,325200
715,000000	56,174700
714,000000	56,026100
713,000000	55,965100
712,000000	55,845400
711,000000	55,803100
710,000000	55,782100
709,000000	55,666000
708,000000	55,548000
707,000000	55,454600
706,000000	55,384000
705,000000	55,317600
704,000000	55,269100
703,000000	55,140000
702,000000	55,037300
701,000000	54,929800
700,000000	54,852900
699,000000	54,772900
698,000000	54,710400
697,000000	54,630900
696,000000	54,585400
695,000000	54,541700
694,000000	54,462100
693,000000	54,419000
692,000000	54,389100
691,000000	54,319800
690,000000	54,210900
689,000000	54,139400
688,000000	53,991400
687,000000	53,951900
686,000000	53,857100
685,000000	53,745800
684,000000	53,693600
683,000000	53,612400
682,000000	53,481900
681,000000	53,388200
680,000000	53,339500
679,000000	53,281200
678,000000	53,184300
677,000000	53,078500
676,000000	52,985600
675,000000	52,912600
674,000000	52,810700
673,000000	52,711900
672,000000	52,615800
671,000000	52,546900
670,000000	52,459200
669,000000	52,379400
668,000000	52,302300
667,000000	52,205700
666,000000	52,103100
665,000000	52,013200
664,000000	51,863700
663,000000	51,731000
662,000000	51,614100
661,000000	51,477400
660,000000	51,299900
659,000000	51,121100
658,000000	50,953100
657,000000	50,821600
656,000000	50,693100
655,000000	50,508600
654,000000	50,360900
653,000000	50,195800
652,000000	50,092600
651,000000	50,033300
650,000000	49,884600
649,000000	49,746800
648,000000	49,665000
647,000000	49,585900
646,000000	49,507700
645,000000	49,442600
644,000000	49,416900
643,000000	49,381100
642,000000	49,352900
641,000000	49,344800
640,000000	49,361300
639,000000	49,407300
638,000000	49,486000
637,000000	49,598900
636,000000	49,701500
635,000000	49,837300
634,000000	50,030800
633,000000	50,223400
632,000000	50,441800
631,000000	50,699300
630,000000	50,974700
629,000000	51,259800
628,000000	51,517300
627,000000	51,774100
626,000000	52,068200
625,000000	52,323700
624,000000	52,581300
623,000000	52,846100
622,000000	53,094100
621,000000	53,317500
620,000000	53,548200
619,000000	53,806800
618,000000	54,054500
617,000000	54,304200
616,000000	54,571100
615,000000	54,789000
614,000000	55,024600
613,000000	55,289900
612,000000	55,511900
611,000000	55,769300
610,000000	56,070300
609,000000	56,362700
608,000000	56,642100
607,000000	56,940900
606,000000	57,259300
605,000000	57,578600
604,000000	57,927700
603,000000	58,263100
602,000000	58,615600
601,000000	58,983600
600,000000	59,320000
599,000000	59,687300
598,000000	60,094700
597,000000	60,469800
596,000000	60,878700
595,000000	61,281700
594,000000	61,671900
593,000000	62,056300
592,000000	62,456000
591,000000	62,844800
590,000000	63,171300
589,000000	63,511700
588,000000	63,836100
587,000000	64,165100
586,000000	64,459100
585,000000	64,757600
584,000000	65,040500
583,000000	65,312200
582,000000	65,576100
581,000000	65,818300
580,000000	66,044400
579,000000	66,264600
578,000000	66,440300
577,000000	66,675800
576,000000	66,837600
575,000000	67,009800
574,000000	67,154600
573,000000	67,274200
572,000000	67,433000
571,000000	67,550900
570,000000	67,634300
569,000000	67,715900
568,000000	67,736400
567,000000	67,775100
566,000000	67,757200
565,000000	67,724300
564,000000	67,626100
563,000000	67,558500
562,000000	67,397100
561,000000	67,261800
560,000000	67,100800
559,000000	66,923300
558,000000	66,771600
557,000000	66,531000
556,000000	66,269100
555,000000	66,010700
554,000000	65,721900
553,000000	65,413500
552,000000	65,029500
551,000000	64,632800
550,000000	64,197900
549,000000	63,686200
548,000000	63,193400
547,000000	62,649900
546,000000	62,057400
545,000000	61,446700
544,000000	60,774400
543,000000	60,104400
542,000000	59,381400
541,000000	58,632900
540,000000	57,850700
539,000000	57,066700
538,000000	56,248000
537,000000	55,400600
536,000000	54,589700
535,000000	53,734100
534,000000	52,899800
533,000000	52,029900
532,000000	51,154300
531,000000	50,306100
530,000000	49,483300
529,000000	48,641200
528,000000	47,825400
527,000000	47,040500
526,000000	46,257500
525,000000	45,505100
524,000000	44,760300
523,000000	44,013400
522,000000	43,310100
521,000000	42,568400
520,000000	41,854000
519,000000	41,190700
518,000000	40,523900
517,000000	39,856800
516,000000	39,232500
515,000000	38,616200
514,000000	37,979100
513,000000	37,329800
512,000000	36,727800
511,000000	36,118600
510,000000	35,503200
509,000000	34,906400
508,000000	34,309100
507,000000	33,746300
506,000000	33,138800
505,000000	32,538100
504,000000	31,934900
503,000000	31,336800
502,000000	30,737800
501,000000	30,127900
500,000000	29,534800
499,000000	28,993700
498,000000	28,428500
497,000000	27,866400
496,000000	27,342800
495,000000	26,789200
494,000000	26,282200
493,000000	25,826000
492,000000	25,341600
491,000000	24,901200
490,000000	24,487500
489,000000	24,070700
488,000000	23,657100
487,000000	23,305500
486,000000	22,971600
485,000000	22,607000
484,000000	22,318200
483,000000	21,998300
482,000000	21,703300
481,000000	21,447900
480,000000	21,174300
479,000000	20,933100
478,000000	20,701800
477,000000	20,455400
476,000000	20,262500
475,000000	20,047500
474,000000	19,886400
473,000000	19,732300
472,000000	19,587700
471,000000	19,414200
470,000000	19,271400
469,000000	19,147300
468,000000	19,071100
467,000000	18,913500
466,000000	18,832700
465,000000	18,744600
464,000000	18,622600
463,000000	18,532200
462,000000	18,432100
461,000000	18,287800
460,000000	18,181200
459,000000	18,067100
458,000000	17,947500
457,000000	17,793000
456,000000	17,684600
455,000000	17,555700
454,000000	17,414300
453,000000	17,252600
452,000000	17,149000
451,000000	17,009300
450,000000	16,843300
449,000000	16,730700
448,000000	16,611200
447,000000	16,478700
446,000000	16,342400
445,000000	16,175100
444,000000	16,060900
443,000000	15,948700
442,000000	15,764300
441,000000	15,604900
440,000000	15,465400
439,000000	15,295600
438,000000	15,126900
437,000000	14,988400
436,000000	14,816500
435,000000	14,675600
434,000000	14,508500
433,000000	14,333100
432,000000	14,193700
431,000000	14,013100
430,000000	13,809600
429,000000	13,685200
428,000000	13,518000
427,000000	13,322300
426,000000	13,137900
425,000000	12,995300
424,000000	12,799000
423,000000	12,626400
422,000000	12,446000
421,000000	12,263000
420,000000	12,070200
419,000000	11,884200
418,000000	11,691700
417,000000	11,510100
416,000000	11,331500
415,000000	11,179100
414,000000	10,986800
413,000000	10,801800
412,000000	10,624800
411,000000	10,469400
410,000000	10,273200
409,000000	10,113600
408,000000	9,953600
407,000000	9,810400
406,000000	9,636600
405,000000	9,476500
404,000000	9,314200
403,000000	9,168200
402,000000	9,030300
401,000000	8,881700
400,000000	8,725100
399,000000	8,605600
398,000000	8,487800
397,000000	8,338000
396,000000	8,226000
395,000000	8,091000
394,000000	7,980300
393,000000	7,860500
392,000000	7,728200
391,000000	7,609900
390,000000	7,490200
389,000000	7,403700
388,000000	7,299200
387,000000	7,189400
386,000000	7,080500
385,000000	6,998700
384,000000	6,889100
383,000000	6,789900
382,000000	6,728000
381,000000	6,666900
380,000000	6,562600
379,000000	6,469300
378,000000	6,422900
377,000000	6,370500
376,000000	6,271300
375,000000	6,147900
374,000000	6,162200
373,000000	6,156600
372,000000	6,116900
371,000000	6,091600
370,000000	6,048300
369,000000	6,001500
368,000000	5,944200
367,000000	5,873400
366,000000	5,883200
365,000000	5,807700
364,000000	5,734900
363,000000	5,806900
362,000000	5,822900
361,000000	5,834900
360,000000	5,784100
359,000000	5,750900
358,000000	5,730100
357,000000	5,713700
356,000000	5,745400
355,000000	5,722900
354,000000	5,702600
353,000000	5,698300
352,000000	5,661400
351,000000	5,684100
350,000000	5,688100
349,000000	5,680200
348,000000	5,684900
347,000000	5,641800
346,000000	5,638800
345,000000	5,639700
344,000000	5,557600
343,000000	5,576500
342,000000	5,639000
341,000000	5,628800
340,000000	5,611400
339,000000	5,604900
338,000000	5,646800
337,000000	5,685700
336,000000	5,616100
335,000000	5,565700
334,000000	5,579900
333,000000	5,516100
332,000000	5,546500
331,000000	5,641700
330,000000	5,657000
329,000000	5,601400
328,000000	5,494900
327,000000	5,589800
326,000000	5,648000
325,000000	5,563200
324,000000	5,574700
323,000000	5,658500
322,000000	5,625900
321,000000	5,720300
320,000000	5,660900
319,000000	5,469600
318,000000	5,598800
317,000000	5,592900
316,000000	5,561200
315,000000	5,635900
314,000000	5,631200
313,000000	5,597600
312,000000	5,611000
311,000000	5,635300
310,000000	5,618800
309,000000	5,596200
308,000000	5,621200
307,000000	5,650200
306,000000	5,655100
305,000000	5,651800
304,000000	5,669600
303,000000	5,652100
302,000000	5,646500
301,000000	5,639900
300,000000	5,645200
299,000000	5,641100
298,000000	5,664100
297,000000	5,681400
296,000000	5,673800
295,000000	5,656800
294,000000	5,654400
293,000000	5,690200
292,000000	5,694600
291,000000	5,699200
290,000000	5,708100
289,000000	5,704200
288,000000	5,696400
287,000000	5,674600
286,000000	5,691000
285,000000	5,722700
284,000000	5,757000
283,000000	5,736100
282,000000	5,723800
281,000000	5,732000
280,000000	5,742600
279,000000	5,764100
278,000000	5,761200
277,000000	5,758800
276,000000	5,792400
275,000000	5,809500
274,000000	5,797300
273,000000	5,797600
272,000000	5,836500
271,000000	5,863000
270,000000	5,877800
269,000000	5,903400
268,000000	5,923700
267,000000	5,929600
266,000000	5,942300
265,000000	5,963100
264,000000	5,975300
263,000000	6,028700
262,000000	6,024400
261,000000	6,055500
260,000000	6,072900
259,000000	6,120200
258,000000	6,168000
257,000000	6,164700
256,000000	6,154200
255,000000	6,164400
254,000000	6,164300
253,000000	6,211500
252,000000	6,216100
251,000000	6,255400
250,000000	6,296200
