PE UV       SUBTECH     SPECTRUM    ASCII       PEDS        4.00        
   -1
CICIMAUCR0013-4.Sample.ASC
24/04/23
10:18:00.00
24/04/23
10:18:00.00
Vinicio Soto Monge
C. resplendens
250,000000
1
Lambda 1050
1050L1511233
PerkinElmer UV WinLab 6.3.2.0749 / 2.02.05 Lambda 900 UV/VIS/NIR, Aug  7 2015 09:38:08

0
0
3350/servo 860,8/2
0
0
UV/VIS
1
1
1
DoubleDePol,CommonBeamDepol,RBeamAtt,SBeamAtt,60mm sphere, WB InGaAs Detector
0
0
0
0
Program
Program
3350/servo 860,8/2
3350/0,2 860,8/0,2
3350/0,2 860,8/0,2
0
15.00
 
 
 
0
 
860,8
319,2
860,8
Front
100
on
S:100 R:100
0
0
0
0
 
0
 
 
 
0
 
 
0
0
0
0
0
 
 
 
 
0
0


0
0
#HDR
-1
-1
#GR
nm
%R
1.0
0.0
2500,000000
-1,000000
2251
8
89,980400
5,750600
#DATA
2500.000000	8.400397
2499.000000	8.455316
2498.000000	8.517714
2497.000000	8.445159
2496.000000	8.362445
2495.000000	8.423057
2494.000000	8.265444
2493.000000	8.322930
2492.000000	8.290447
2491.000000	8.342911
2490.000000	8.372714
2489.000000	8.266113
2488.000000	8.228607
2487.000000	8.227156
2486.000000	8.245686
2485.000000	8.174470
2484.000000	8.186637
2483.000000	8.168330
2482.000000	8.219454
2481.000000	8.161856
2480.000000	8.250263
2479.000000	8.197464
2478.000000	8.208069
2477.000000	8.170228
2476.000000	8.151587
2475.000000	8.170786
2474.000000	8.155382
2473.000000	8.205501
2472.000000	8.160182
2471.000000	8.134955
2470.000000	8.142992
2469.000000	8.192888
2468.000000	8.195009
2467.000000	8.205836
2466.000000	8.209185
2465.000000	8.210413
2464.000000	8.208292
2463.000000	8.237761
2462.000000	8.265109
2461.000000	8.301163
2460.000000	8.355748
2459.000000	8.386109
2458.000000	8.394258
2457.000000	8.450740
2456.000000	8.487129
2455.000000	8.523854
2454.000000	8.588038
2453.000000	8.639496
2452.000000	8.705132
2451.000000	8.737391
2450.000000	8.803138
2449.000000	8.860624
2448.000000	8.919339
2447.000000	8.976379
2446.000000	9.054962
2445.000000	9.110774
2444.000000	9.166363
2443.000000	9.231328
2442.000000	9.279550
2441.000000	9.354004
2440.000000	9.388272
2439.000000	9.459600
2438.000000	9.495878
2437.000000	9.573903
2436.000000	9.593549
2435.000000	9.644003
2434.000000	9.678160
2433.000000	9.718680
2432.000000	9.759200
2431.000000	9.806752
2430.000000	9.828630
2429.000000	9.855643
2428.000000	9.891809
2427.000000	9.924627
2426.000000	9.968495
2425.000000	9.978988
2424.000000	10.029107
2423.000000	10.134257
2422.000000	10.220096
2421.000000	10.281825
2420.000000	10.326809
2419.000000	10.367887
2418.000000	10.372910
2417.000000	10.401932
2416.000000	10.422806
2415.000000	10.459307
2414.000000	10.488218
2413.000000	10.541128
2412.000000	10.549723
2411.000000	10.593703
2410.000000	10.633776
2409.000000	10.667933
2408.000000	10.687691
2407.000000	10.709011
2406.000000	10.751763
2405.000000	10.779222
2404.000000	10.812710
2403.000000	10.825100
2402.000000	10.855015
2401.000000	10.897767
2400.000000	10.920539
2399.000000	10.956370
2398.000000	10.987513
2397.000000	10.997448
2396.000000	11.026470
2395.000000	11.063083
2394.000000	11.094896
2393.000000	11.150373
2392.000000	11.160196
2391.000000	11.160196
2390.000000	11.201051
2389.000000	11.228399
2388.000000	11.225608
2387.000000	11.253514
2386.000000	11.274053
2385.000000	11.278741
2384.000000	11.284546
2383.000000	11.290127
2382.000000	11.290685
2381.000000	11.264565
2380.000000	11.263449
2379.000000	11.263449
2378.000000	11.239561
2377.000000	11.225943
2376.000000	11.211432
2375.000000	11.191674
2374.000000	11.166894
2373.000000	11.138764
2372.000000	11.127267
2371.000000	11.105165
2370.000000	11.068329
2369.000000	11.023233
2368.000000	10.985281
2367.000000	10.950342
2366.000000	10.885489
2365.000000	10.837602
2364.000000	10.799650
2363.000000	10.724973
2362.000000	10.648287
2361.000000	10.599731
2360.000000	10.548272
2359.000000	10.484869
2358.000000	10.411309
2357.000000	10.374138
2356.000000	10.346232
2355.000000	10.310624
2354.000000	10.284838
2353.000000	10.270885
2352.000000	10.290420
2351.000000	10.294661
2350.000000	10.318661
2349.000000	10.349022
2348.000000	10.382510
2347.000000	10.435978
2346.000000	10.477837
2345.000000	10.541463
2344.000000	10.579303
2343.000000	10.622837
2342.000000	10.669496
2341.000000	10.698518
2340.000000	10.729550
2339.000000	10.748749
2338.000000	10.773083
2337.000000	10.790385
2336.000000	10.761809
2335.000000	10.762702
2334.000000	10.748972
2333.000000	10.715150
2332.000000	10.690816
2331.000000	10.621721
2330.000000	10.573945
2329.000000	10.528961
2328.000000	10.459754
2327.000000	10.387421
2326.000000	10.315647
2325.000000	10.253919
2324.000000	10.179242
2323.000000	10.089608
2322.000000	10.002541
2321.000000	9.907883
2320.000000	9.807087
2319.000000	9.710643
2318.000000	9.604488
2317.000000	9.502687
2316.000000	9.401890
2315.000000	9.304889
2314.000000	9.202641
2313.000000	9.144485
2312.000000	9.053734
2311.000000	8.978946
2310.000000	8.921794
2309.000000	8.876252
2308.000000	8.848346
2307.000000	8.837518
2306.000000	8.837071
2305.000000	8.843211
2304.000000	8.889088
2303.000000	8.929720
2302.000000	9.007633
2301.000000	9.076952
2300.000000	9.146271
2299.000000	9.216371
2298.000000	9.303996
2297.000000	9.376217
2296.000000	9.478241
2295.000000	9.541979
2294.000000	9.618107
2293.000000	9.645343
2292.000000	9.715443
2291.000000	9.734084
2290.000000	9.750381
2289.000000	9.766679
2288.000000	9.756521
2287.000000	9.747702
2286.000000	9.727052
2285.000000	9.714773
2284.000000	9.682849
2283.000000	9.643669
2282.000000	9.580712
2281.000000	9.541867
2280.000000	9.499227
2279.000000	9.448661
2278.000000	9.402002
2277.000000	9.368961
2276.000000	9.348757
2275.000000	9.328888
2274.000000	9.312033
2273.000000	9.293503
2272.000000	9.267830
2271.000000	9.303884
2270.000000	9.329893
2269.000000	9.362040
2268.000000	9.426113
2267.000000	9.500678
2266.000000	9.585959
2265.000000	9.697471
2264.000000	9.833876
2263.000000	9.973183
2262.000000	10.121532
2261.000000	10.316763
2260.000000	10.528179
2259.000000	10.725085
2258.000000	10.935162
2257.000000	11.159415
2256.000000	11.410346
2255.000000	11.661166
2254.000000	11.828826
2253.000000	12.052521
2252.000000	12.272197
2251.000000	12.491651
2250.000000	12.700835
2249.000000	12.873964
2248.000000	13.038386
2247.000000	13.211404
2246.000000	13.380403
2245.000000	13.542928
2244.000000	13.661361
2243.000000	13.780688
2242.000000	13.897558
2241.000000	14.032624
2240.000000	14.126835
2239.000000	14.237901
2238.000000	14.329879
2237.000000	14.423309
2236.000000	14.494079
2235.000000	14.576569
2234.000000	14.651357
2233.000000	14.719448
2232.000000	14.774925
2231.000000	14.832189
2230.000000	14.882308
2229.000000	14.907200
2228.000000	14.940353
2227.000000	14.981319
2226.000000	14.992369
2225.000000	15.014918
2224.000000	15.027643
2223.000000	15.043159
2222.000000	15.058451
2221.000000	15.019829
2220.000000	15.031661
2219.000000	15.035010
2218.000000	15.031773
2217.000000	15.000965
2216.000000	14.988574
2215.000000	15.012015
2214.000000	14.979198
2213.000000	14.969040
2212.000000	14.975403
2211.000000	14.969263
2210.000000	14.942139
2209.000000	14.911219
2208.000000	14.939571
2207.000000	14.903740
2206.000000	14.928855
2205.000000	14.903405
2204.000000	14.887331
2203.000000	14.896149
2202.000000	14.891908
2201.000000	14.874271
2200.000000	14.876503
2199.000000	14.888671
2198.000000	14.889005
2197.000000	14.880857
2196.000000	14.879182
2195.000000	14.888001
2194.000000	14.867350
2193.000000	14.868690
2192.000000	14.865899
2191.000000	14.876280
2190.000000	14.854960
2189.000000	14.846142
2188.000000	14.843686
2187.000000	14.838774
2186.000000	14.821138
2185.000000	14.818905
2184.000000	14.810980
2183.000000	14.794236
2182.000000	14.788209
2181.000000	14.785865
2180.000000	14.783409
2179.000000	14.773251
2178.000000	14.780953
2177.000000	14.775707
2176.000000	14.760079
2175.000000	14.760526
2174.000000	14.770349
2173.000000	14.765995
2172.000000	14.779502
2171.000000	14.789548
2170.000000	14.801157
2169.000000	14.818347
2168.000000	14.844467
2167.000000	14.859871
2166.000000	14.869583
2165.000000	14.879182
2164.000000	14.888671
2163.000000	14.903405
2162.000000	14.923944
2161.000000	14.957096
2160.000000	14.979309
2159.000000	14.987570
2158.000000	14.993597
2157.000000	15.046172
2156.000000	15.089148
2155.000000	15.103212
2154.000000	15.123640
2153.000000	15.160587
2152.000000	15.193851
2151.000000	15.208697
2150.000000	15.234148
2149.000000	15.254352
2148.000000	15.279132
2147.000000	15.304694
2146.000000	15.344209
2145.000000	15.351576
2144.000000	15.380934
2143.000000	15.390757
2142.000000	15.408951
2141.000000	15.423239
2140.000000	15.442550
2139.000000	15.456838
2138.000000	15.480837
2137.000000	15.469675
2136.000000	15.483628
2135.000000	15.498809
2134.000000	15.506734
2133.000000	15.511981
2132.000000	15.517004
2131.000000	15.510306
2130.000000	15.504837
2129.000000	15.496911
2128.000000	15.493451
2127.000000	15.469563
2126.000000	15.469228
2125.000000	15.458512
2124.000000	15.429713
2123.000000	15.422011
2122.000000	15.399575
2121.000000	15.371557
2120.000000	15.357604
2119.000000	15.348228
2118.000000	15.320433
2117.000000	15.278239
2116.000000	15.238166
2115.000000	15.207693
2114.000000	15.192847
2113.000000	15.162262
2112.000000	15.142058
2111.000000	15.136588
2110.000000	15.093836
2109.000000	15.036908
2108.000000	15.004202
2107.000000	14.984444
2106.000000	14.958324
2105.000000	14.926734
2104.000000	14.908540
2103.000000	14.868578
2102.000000	14.823928
2101.000000	14.802162
2100.000000	14.781958
2099.000000	14.755279
2098.000000	14.732173
2097.000000	14.703151
2096.000000	14.666092
2095.000000	14.647227
2094.000000	14.633386
2093.000000	14.613628
2092.000000	14.579583
2091.000000	14.557705
2090.000000	14.544979
2089.000000	14.513613
2088.000000	14.495530
2087.000000	14.491735
2086.000000	14.487158
2085.000000	14.460145
2084.000000	14.432462
2083.000000	14.426769
2082.000000	14.408016
2081.000000	14.380110
2080.000000	14.354660
2079.000000	14.352874
2078.000000	14.341265
2077.000000	14.320168
2076.000000	14.294718
2075.000000	14.268263
2074.000000	14.245826
2073.000000	14.252747
2072.000000	14.239017
2071.000000	14.218255
2070.000000	14.197158
2069.000000	14.184656
2068.000000	14.163336
2067.000000	14.158201
2066.000000	14.168694
2065.000000	14.158424
2064.000000	14.131076
2063.000000	14.128956
2062.000000	14.120807
2061.000000	14.134760
2060.000000	14.154852
2059.000000	14.156192
2058.000000	14.166908
2057.000000	14.209772
2056.000000	14.241026
2055.000000	14.276076
2054.000000	14.317266
2053.000000	14.379887
2052.000000	14.436257
2051.000000	14.520422
2050.000000	14.592308
2049.000000	14.689421
2048.000000	14.787762
2047.000000	14.890568
2046.000000	14.992369
2045.000000	15.110691
2044.000000	15.208139
2043.000000	15.331484
2042.000000	15.430606
2041.000000	15.547812
2040.000000	15.669259
2039.000000	15.777758
2038.000000	15.886703
2037.000000	16.008709
2036.000000	16.099906
2035.000000	16.182619
2034.000000	16.288662
2033.000000	16.374278
2032.000000	16.466257
2031.000000	16.544952
2030.000000	16.615945
2029.000000	16.712388
2028.000000	16.774674
2027.000000	16.834282
2026.000000	16.917554
2025.000000	17.002500
2024.000000	17.039782
2023.000000	17.095371
2022.000000	17.151853
2021.000000	17.196279
2020.000000	17.260687
2019.000000	17.320629
2018.000000	17.347530
2017.000000	17.389389
2016.000000	17.438504
2015.000000	17.477796
2014.000000	17.500567
2013.000000	17.554035
2012.000000	17.551579
2011.000000	17.580267
2010.000000	17.600583
2009.000000	17.615317
2008.000000	17.621456
2007.000000	17.624470
2006.000000	17.619001
2005.000000	17.630051
2004.000000	17.604266
2003.000000	17.582053
2002.000000	17.572676
2001.000000	17.554928
2000.000000	17.543877
1999.000000	17.500902
1998.000000	17.472773
1997.000000	17.454913
1996.000000	17.426449
1995.000000	17.369409
1994.000000	17.341056
1993.000000	17.295402
1992.000000	17.248073
1991.000000	17.175182
1990.000000	17.126514
1989.000000	17.073939
1988.000000	17.004732
1987.000000	16.956957
1986.000000	16.900140
1985.000000	16.837854
1984.000000	16.770433
1983.000000	16.716518
1982.000000	16.644744
1981.000000	16.589267
1980.000000	16.511130
1979.000000	16.465587
1978.000000	16.402184
1977.000000	16.321480
1976.000000	16.244347
1975.000000	16.197689
1974.000000	16.137523
1973.000000	16.069432
1972.000000	16.015741
1971.000000	15.956915
1970.000000	15.900321
1969.000000	15.855114
1968.000000	15.792269
1967.000000	15.703751
1966.000000	15.677631
1965.000000	15.620368
1964.000000	15.578955
1963.000000	15.497246
1962.000000	15.458736
1961.000000	15.424802
1960.000000	15.359837
1959.000000	15.308378
1958.000000	15.247989
1957.000000	15.209479
1956.000000	15.159471
1955.000000	15.096403
1954.000000	15.042600
1953.000000	14.994714
1952.000000	14.960557
1951.000000	14.889340
1950.000000	14.875499
1949.000000	14.832412
1948.000000	14.799036
1947.000000	14.752489
1946.000000	14.709960
1945.000000	14.687747
1944.000000	14.673571
1943.000000	14.671338
1942.000000	14.688975
1941.000000	14.696900
1940.000000	14.689756
1939.000000	14.683059
1938.000000	14.685626
1937.000000	14.693551
1936.000000	14.706835
1935.000000	14.755949
1934.000000	14.815557
1933.000000	14.869918
1932.000000	14.940353
1931.000000	14.994267
1930.000000	15.062023
1929.000000	15.141834
1928.000000	15.240734
1927.000000	15.322331
1926.000000	15.407835
1925.000000	15.526045
1924.000000	15.666245
1923.000000	15.796511
1922.000000	15.925214
1921.000000	16.073562
1920.000000	16.222246
1919.000000	16.349609
1918.000000	16.504097
1917.000000	16.680798
1916.000000	16.859844
1915.000000	17.078627
1914.000000	17.274640
1913.000000	17.440178
1912.000000	17.636749
1911.000000	17.807869
1910.000000	18.005221
1909.000000	18.244655
1908.000000	18.445913
1907.000000	18.719281
1906.000000	18.961841
1905.000000	19.190447
1904.000000	19.421621
1903.000000	19.653242
1902.000000	19.890332
1901.000000	20.153430
1900.000000	20.409384
1899.000000	20.640447
1898.000000	20.888588
1897.000000	21.144989
1896.000000	21.400831
1895.000000	21.683576
1894.000000	21.955492
1893.000000	22.237009
1892.000000	22.525223
1891.000000	22.818237
1890.000000	23.083344
1889.000000	23.383614
1888.000000	23.721054
1887.000000	24.087070
1886.000000	24.465588
1885.000000	24.894672
1884.000000	25.387939
1883.000000	25.876630
1882.000000	26.383739
1881.000000	26.902123
1880.000000	27.426087
1879.000000	27.932638
1878.000000	28.418427
1877.000000	28.879435
1876.000000	29.296798
1875.000000	29.694404
1874.000000	30.052383
1873.000000	30.366048
1872.000000	30.663080
1871.000000	30.896709
1870.000000	31.075755
1869.000000	31.237052
1868.000000	31.361513
1867.000000	31.465993
1866.000000	31.563553
1865.000000	31.639234
1864.000000	31.714022
1863.000000	31.816717
1862.000000	31.899988
1861.000000	31.953233
1860.000000	31.966405
1859.000000	31.949103
1858.000000	31.927895
1857.000000	31.912267
1856.000000	31.882129
1855.000000	31.836139
1854.000000	31.772067
1853.000000	31.663791
1852.000000	31.594808
1851.000000	31.574046
1850.000000	31.575273
1849.000000	31.517340
1848.000000	31.375019
1847.000000	31.210150
1846.000000	31.101652
1845.000000	31.060797
1844.000000	31.068164
1843.000000	31.082341
1842.000000	31.042937
1841.000000	30.963349
1840.000000	30.896709
1839.000000	30.855408
1838.000000	30.821698
1837.000000	30.732622
1836.000000	30.603472
1835.000000	30.485709
1834.000000	30.405228
1833.000000	30.347853
1832.000000	30.274292
1831.000000	30.191802
1830.000000	30.088215
1829.000000	29.983288
1828.000000	29.871775
1827.000000	29.755463
1826.000000	29.659577
1825.000000	29.601310
1824.000000	29.578761
1823.000000	29.604770
1822.000000	29.598519
1821.000000	29.529423
1820.000000	29.438338
1819.000000	29.384200
1818.000000	29.389670
1817.000000	29.409874
1816.000000	29.417353
1815.000000	29.407641
1814.000000	29.402283
1813.000000	29.387549
1812.000000	29.357299
1811.000000	29.305952
1810.000000	29.261079
1809.000000	29.238977
1808.000000	29.207946
1807.000000	29.163184
1806.000000	29.091521
1805.000000	29.034705
1804.000000	28.997199
1803.000000	28.950205
1802.000000	28.901983
1801.000000	28.823958
1800.000000	28.750956
1799.000000	28.688446
1798.000000	28.644131
1797.000000	28.597919
1796.000000	28.548246
1795.000000	28.506833
1794.000000	28.426241
1793.000000	28.342857
1792.000000	28.294301
1791.000000	28.222973
1790.000000	28.141152
1789.000000	28.072057
1788.000000	27.998496
1787.000000	27.905848
1786.000000	27.810409
1785.000000	27.706711
1784.000000	27.611607
1783.000000	27.506791
1782.000000	27.418273
1781.000000	27.324955
1780.000000	27.198039
1779.000000	27.069224
1778.000000	26.963516
1777.000000	26.833027
1776.000000	26.700864
1775.000000	26.550171
1774.000000	26.397358
1773.000000	26.219763
1772.000000	26.061034
1771.000000	25.886342
1770.000000	25.732077
1769.000000	25.580603
1768.000000	25.434487
1767.000000	25.282789
1766.000000	25.180541
1765.000000	25.103074
1764.000000	25.045811
1763.000000	25.044360
1762.000000	25.049941
1761.000000	25.105418
1760.000000	25.181323
1759.000000	25.262808
1758.000000	25.361931
1757.000000	25.407139
1756.000000	25.446654
1755.000000	25.496438
1754.000000	25.495545
1753.000000	25.468867
1752.000000	25.450560
1751.000000	25.398544
1750.000000	25.311253
1749.000000	25.237805
1748.000000	25.125176
1747.000000	24.999375
1746.000000	24.843213
1745.000000	24.684371
1744.000000	24.468267
1743.000000	24.213875
1742.000000	23.937493
1741.000000	23.660330
1740.000000	23.367875
1739.000000	23.117836
1738.000000	22.855184
1737.000000	22.657832
1736.000000	22.492740
1735.000000	22.413152
1734.000000	22.384576
1733.000000	22.407794
1732.000000	22.474322
1731.000000	22.588179
1730.000000	22.742220
1729.000000	22.904410
1728.000000	23.012240
1727.000000	23.163379
1726.000000	23.296323
1725.000000	23.365977
1724.000000	23.426589
1723.000000	23.446123
1722.000000	23.458290
1721.000000	23.471908
1720.000000	23.455053
1719.000000	23.465211
1718.000000	23.496577
1717.000000	23.499480
1716.000000	23.559868
1715.000000	23.621931
1714.000000	23.656535
1713.000000	23.716366
1712.000000	23.768606
1711.000000	23.781889
1710.000000	23.784233
1709.000000	23.790372
1708.000000	23.739583
1707.000000	23.724068
1706.000000	23.656423
1705.000000	23.602844
1704.000000	23.501377
1703.000000	23.416543
1702.000000	23.293979
1701.000000	23.108683
1700.000000	22.935219
1699.000000	22.745346
1698.000000	22.595100
1697.000000	22.465504
1696.000000	22.409134
1695.000000	22.442398
1694.000000	22.539846
1693.000000	22.717551
1692.000000	22.901173
1691.000000	23.146970
1690.000000	23.315858
1689.000000	23.465211
1688.000000	23.517228
1687.000000	23.542678
1686.000000	23.542567
1685.000000	23.580296
1684.000000	23.706989
1683.000000	23.978125
1682.000000	24.400846
1681.000000	24.973925
1680.000000	25.634852
1679.000000	26.312858
1678.000000	27.030602
1677.000000	27.624220
1676.000000	28.190937
1675.000000	28.651722
1674.000000	29.070313
1673.000000	29.426952
1672.000000	29.722645
1671.000000	29.976814
1670.000000	30.215578
1669.000000	30.400874
1668.000000	30.577241
1667.000000	30.681386
1666.000000	30.803280
1665.000000	30.903742
1664.000000	30.996948
1663.000000	31.076424
1662.000000	31.139046
1661.000000	31.186151
1660.000000	31.238615
1659.000000	31.252568
1658.000000	31.288064
1657.000000	31.291748
1656.000000	31.279023
1655.000000	31.284157
1654.000000	31.270316
1653.000000	31.251116
1652.000000	31.217071
1651.000000	31.188942
1650.000000	31.166729
1649.000000	31.099531
1648.000000	31.058230
1647.000000	30.987460
1646.000000	30.929527
1645.000000	30.846032
1644.000000	30.781736
1643.000000	30.721794
1642.000000	30.613742
1641.000000	30.542860
1640.000000	30.452668
1639.000000	30.373973
1638.000000	30.297399
1637.000000	30.217699
1636.000000	30.118911
1635.000000	30.025593
1634.000000	29.925466
1633.000000	29.816298
1632.000000	29.729901
1631.000000	29.628099
1630.000000	29.521610
1629.000000	29.430301
1628.000000	29.315440
1627.000000	29.209508
1626.000000	29.097214
1625.000000	28.995190
1624.000000	28.880552
1623.000000	28.776071
1622.000000	28.678177
1621.000000	28.575594
1620.000000	28.467318
1619.000000	28.398335
1618.000000	28.288161
1617.000000	28.163924
1616.000000	28.079982
1615.000000	27.978069
1614.000000	27.887430
1613.000000	27.793666
1612.000000	27.702915
1611.000000	27.614844
1610.000000	27.530679
1609.000000	27.446961
1608.000000	27.375075
1607.000000	27.292250
1606.000000	27.191118
1605.000000	27.114097
1604.000000	27.032388
1603.000000	26.945321
1602.000000	26.863389
1601.000000	26.793512
1600.000000	26.710464
1599.000000	26.627639
1598.000000	26.567138
1597.000000	26.510545
1596.000000	26.456965
1595.000000	26.382623
1594.000000	26.315202
1593.000000	26.271111
1592.000000	26.217196
1591.000000	26.163840
1590.000000	26.113609
1589.000000	26.081573
1588.000000	26.043844
1587.000000	25.993278
1586.000000	25.971623
1585.000000	25.941038
1584.000000	25.898285
1583.000000	25.871607
1582.000000	25.852743
1581.000000	25.847162
1580.000000	25.842697
1579.000000	25.829860
1578.000000	25.821823
1577.000000	25.832985
1576.000000	25.837115
1575.000000	25.830530
1574.000000	25.851180
1573.000000	25.877970
1572.000000	25.891253
1571.000000	25.913690
1570.000000	25.945726
1569.000000	25.988478
1568.000000	26.032123
1567.000000	26.062038
1566.000000	26.094409
1565.000000	26.131022
1564.000000	26.163616
1563.000000	26.199894
1562.000000	26.234498
1561.000000	26.265306
1560.000000	26.290087
1559.000000	26.313974
1558.000000	26.342550
1557.000000	26.355499
1556.000000	26.368224
1555.000000	26.388428
1554.000000	26.392111
1553.000000	26.406846
1552.000000	26.416334
1551.000000	26.414659
1550.000000	26.402269
1549.000000	26.386307
1548.000000	26.392446
1547.000000	26.396465
1546.000000	26.401265
1545.000000	26.405841
1544.000000	26.416669
1543.000000	26.429505
1542.000000	26.430510
1541.000000	26.427831
1540.000000	26.432631
1539.000000	26.432184
1538.000000	26.418343
1537.000000	26.430287
1536.000000	26.419906
1535.000000	26.414325
1534.000000	26.417562
1533.000000	26.397581
1532.000000	26.379609
1531.000000	26.383739
1530.000000	26.365880
1529.000000	26.345229
1528.000000	26.313863
1527.000000	26.297677
1526.000000	26.271111
1525.000000	26.252134
1524.000000	26.227131
1523.000000	26.191746
1522.000000	26.172881
1521.000000	26.155914
1520.000000	26.119860
1519.000000	26.088940
1518.000000	26.059806
1517.000000	26.025426
1516.000000	25.987027
1515.000000	25.963697
1514.000000	25.948293
1513.000000	25.900295
1512.000000	25.878081
1511.000000	25.841245
1510.000000	25.808316
1509.000000	25.774048
1508.000000	25.727500
1507.000000	25.700487
1506.000000	25.655279
1505.000000	25.609625
1504.000000	25.599691
1503.000000	25.552585
1502.000000	25.533609
1501.000000	25.497666
1500.000000	25.473890
1499.000000	25.460272
1498.000000	25.442300
1497.000000	25.425557
1496.000000	25.395530
1495.000000	25.389837
1494.000000	25.384814
1493.000000	25.380907
1492.000000	25.367065
1491.000000	25.391623
1490.000000	25.386711
1489.000000	25.382246
1488.000000	25.389502
1487.000000	25.395976
1486.000000	25.394860
1485.000000	25.394637
1484.000000	25.430468
1483.000000	25.443751
1482.000000	25.475899
1481.000000	25.494987
1480.000000	25.524567
1479.000000	25.538186
1478.000000	25.597681
1477.000000	25.633624
1476.000000	25.653047
1475.000000	25.697362
1474.000000	25.734198
1473.000000	25.794140
1472.000000	25.824279
1471.000000	25.865021
1470.000000	25.875961
1469.000000	25.941931
1468.000000	25.984125
1467.000000	26.044960
1466.000000	26.095860
1465.000000	26.129236
1464.000000	26.202462
1463.000000	26.257046
1462.000000	26.376149
1461.000000	26.452054
1460.000000	26.541576
1459.000000	26.631769
1458.000000	26.747970
1457.000000	26.847427
1456.000000	26.970883
1455.000000	27.070564
1454.000000	27.196364
1453.000000	27.356210
1452.000000	27.495517
1451.000000	27.613058
1450.000000	27.729928
1449.000000	27.845236
1448.000000	28.029528
1447.000000	28.203327
1446.000000	28.381033
1445.000000	28.507838
1444.000000	28.653284
1443.000000	28.822172
1442.000000	28.967395
1441.000000	29.136841
1440.000000	29.288985
1439.000000	29.467919
1438.000000	29.626648
1437.000000	29.756914
1436.000000	29.919662
1435.000000	30.072922
1434.000000	30.248842
1433.000000	30.425543
1432.000000	30.585724
1431.000000	30.721459
1430.000000	30.918141
1429.000000	31.164161
1428.000000	31.335728
1427.000000	31.556297
1426.000000	31.848530
1425.000000	32.105600
1424.000000	32.387117
1423.000000	32.631128
1422.000000	32.870562
1421.000000	33.173733
1420.000000	33.445650
1419.000000	33.719576
1418.000000	33.945392
1417.000000	34.168306
1416.000000	34.490453
1415.000000	34.774202
1414.000000	34.981712
1413.000000	35.223267
1412.000000	35.455557
1411.000000	35.810969
1410.000000	36.185133
1409.000000	36.530722
1408.000000	36.941946
1407.000000	37.365895
1406.000000	37.799667
1405.000000	38.218593
1404.000000	38.623789
1403.000000	39.072853
1402.000000	39.582307
1401.000000	40.018981
1400.000000	40.309427
1399.000000	40.579223
1398.000000	40.838750
1397.000000	41.201863
1396.000000	41.457930
1395.000000	41.568103
1394.000000	41.741679
1393.000000	41.938695
1392.000000	42.123880
1391.000000	42.330831
1390.000000	42.603641
1389.000000	42.945770
1388.000000	43.285331
1387.000000	43.649784
1386.000000	44.100411
1385.000000	44.640450
1384.000000	45.096323
1383.000000	45.543713
1382.000000	45.846438
1381.000000	46.042227
1380.000000	46.148159
1379.000000	46.252193
1378.000000	46.325641
1377.000000	46.437266
1376.000000	46.639864
1375.000000	46.907427
1374.000000	47.278466
1373.000000	47.730656
1372.000000	48.226045
1371.000000	48.658812
1370.000000	49.080975
1369.000000	49.487623
1368.000000	49.817249
1367.000000	50.111602
1366.000000	50.403053
1365.000000	50.663138
1364.000000	50.871540
1363.000000	51.130397
1362.000000	51.298838
1361.000000	51.347618
1360.000000	51.371617
1359.000000	51.530459
1358.000000	51.690193
1357.000000	51.979077
1356.000000	52.416086
1355.000000	52.991955
1354.000000	53.632009
1353.000000	54.287690
1352.000000	55.047293
1351.000000	55.710230
1350.000000	56.322043
1349.000000	56.874136
1348.000000	57.363832
1347.000000	57.812673
1346.000000	58.216084
1345.000000	58.650860
1344.000000	59.040987
1343.000000	59.389701
1342.000000	59.731941
1341.000000	60.068600
1340.000000	60.382934
1339.000000	60.676953
1338.000000	60.950879
1337.000000	61.216321
1336.000000	61.479196
1335.000000	61.718296
1334.000000	61.953600
1333.000000	62.162895
1332.000000	62.358126
1331.000000	62.560501
1330.000000	62.753611
1329.000000	62.923615
1328.000000	63.078996
1327.000000	63.233372
1326.000000	63.374577
1325.000000	63.507968
1324.000000	63.636224
1323.000000	63.761132
1322.000000	63.887490
1321.000000	63.992417
1320.000000	64.099130
1319.000000	64.211647
1318.000000	64.297375
1317.000000	64.385670
1316.000000	64.478429
1315.000000	64.565831
1314.000000	64.637047
1313.000000	64.698218
1312.000000	64.759164
1311.000000	64.821228
1310.000000	64.892221
1309.000000	64.949372
1308.000000	64.985204
1307.000000	65.025500
1306.000000	65.056978
1305.000000	65.073610
1304.000000	65.084884
1303.000000	65.094707
1302.000000	65.092809
1301.000000	65.085889
1300.000000	65.083991
1299.000000	65.069145
1298.000000	65.058206
1297.000000	65.054522
1296.000000	65.038225
1295.000000	65.024942
1294.000000	65.012886
1293.000000	64.981297
1292.000000	64.949707
1291.000000	64.924815
1290.000000	64.887756
1289.000000	64.831385
1288.000000	64.765750
1287.000000	64.699669
1286.000000	64.632582
1285.000000	64.561255
1284.000000	64.486131
1283.000000	64.403418
1282.000000	64.324723
1281.000000	64.254958
1280.000000	64.177044
1279.000000	64.101809
1278.000000	64.030146
1277.000000	63.954353
1276.000000	63.897537
1275.000000	63.844180
1274.000000	63.779773
1273.000000	63.737691
1272.000000	63.691478
1271.000000	63.636559
1270.000000	63.586663
1269.000000	63.546590
1268.000000	63.507745
1267.000000	63.462872
1266.000000	63.394669
1265.000000	63.338522
1264.000000	63.286282
1263.000000	63.221205
1262.000000	63.160258
1261.000000	63.098753
1260.000000	63.059461
1259.000000	62.991482
1258.000000	62.919038
1257.000000	62.858314
1256.000000	62.772364
1255.000000	62.674804
1254.000000	62.601244
1253.000000	62.510382
1252.000000	62.399762
1251.000000	62.298184
1250.000000	62.196941
1249.000000	62.092125
1248.000000	61.954269
1247.000000	61.811614
1246.000000	61.679450
1245.000000	61.506991
1244.000000	61.343908
1243.000000	61.171448
1242.000000	60.991287
1241.000000	60.798958
1240.000000	60.586537
1239.000000	60.394097
1238.000000	60.202549
1237.000000	59.986222
1236.000000	59.777373
1235.000000	59.567296
1234.000000	59.348959
1233.000000	59.130063
1232.000000	58.904582
1231.000000	58.668497
1230.000000	58.463331
1229.000000	58.226130
1228.000000	57.985133
1227.000000	57.762666
1226.000000	57.536403
1225.000000	57.318624
1224.000000	57.096939
1223.000000	56.871792
1222.000000	56.654237
1221.000000	56.446950
1220.000000	56.263217
1219.000000	56.075576
1218.000000	55.903117
1217.000000	55.736685
1216.000000	55.573825
1215.000000	55.411858
1214.000000	55.260049
1213.000000	55.121747
1212.000000	54.988802
1211.000000	54.860658
1210.000000	54.755396
1209.000000	54.637632
1208.000000	54.520762
1207.000000	54.477340
1206.000000	54.409137
1205.000000	54.372748
1204.000000	54.342833
1203.000000	54.328321
1202.000000	54.282109
1201.000000	54.236789
1200.000000	54.162001
1199.000000	54.030731
1198.000000	53.904372
1197.000000	53.698091
1196.000000	53.423383
1195.000000	53.075339
1194.000000	52.620247
1193.000000	52.099854
1192.000000	51.508915
1191.000000	50.898330
1190.000000	50.361752
1189.000000	49.908558
1188.000000	49.560625
1187.000000	49.403346
1186.000000	49.420648
1185.000000	49.576922
1184.000000	49.917041
1183.000000	50.399258
1182.000000	51.014643
1181.000000	51.635162
1180.000000	52.260593
1179.000000	52.824631
1178.000000	53.325600
1177.000000	53.748545
1176.000000	54.121705
1175.000000	54.506474
1174.000000	54.853402
1173.000000	55.242078
1172.000000	55.638567
1171.000000	56.035392
1170.000000	56.462131
1169.000000	56.890099
1168.000000	57.331350
1167.000000	57.745587
1166.000000	58.195880
1165.000000	58.660683
1164.000000	59.062196
1163.000000	59.517623
1162.000000	59.955078
1161.000000	60.349112
1160.000000	60.753304
1159.000000	61.143877
1158.000000	61.517484
1157.000000	61.809828
1156.000000	62.094469
1155.000000	62.267375
1154.000000	62.398981
1153.000000	62.451332
1152.000000	62.466290
1151.000000	62.446979
1150.000000	62.438272
1149.000000	62.410924
1148.000000	62.407017
1147.000000	62.480801
1146.000000	62.645893
1145.000000	62.878295
1144.000000	63.194638
1143.000000	63.543018
1142.000000	63.925219
1141.000000	64.333541
1140.000000	64.692190
1139.000000	65.099060
1138.000000	65.512517
1137.000000	65.979106
1136.000000	66.384972
1135.000000	66.787601
1134.000000	67.118009
1133.000000	67.397963
1132.000000	67.691088
1131.000000	67.967470
1130.000000	68.195630
1129.000000	68.393316
1128.000000	68.516550
1127.000000	68.648713
1126.000000	68.738570
1125.000000	68.791927
1124.000000	68.876649
1123.000000	68.935141
1122.000000	68.960591
1121.000000	68.985483
1120.000000	69.002227
1119.000000	69.011380
1118.000000	69.024440
1117.000000	69.006692
1116.000000	68.978339
1115.000000	68.957800
1114.000000	68.935475
1113.000000	68.904109
1112.000000	68.887924
1111.000000	68.873859
1110.000000	68.847850
1109.000000	68.829209
1108.000000	68.811126
1107.000000	68.787127
1106.000000	68.749844
1105.000000	68.716915
1104.000000	68.684656
1103.000000	68.658424
1102.000000	68.623374
1101.000000	68.587319
1100.000000	68.542335
1099.000000	68.503378
1098.000000	68.463974
1097.000000	68.422227
1096.000000	68.363401
1095.000000	68.305021
1094.000000	68.249991
1093.000000	68.195518
1092.000000	68.142831
1091.000000	68.072731
1090.000000	68.000957
1089.000000	67.937331
1088.000000	67.874821
1087.000000	67.799140
1086.000000	67.726584
1085.000000	67.656931
1084.000000	67.587947
1083.000000	67.510257
1082.000000	67.435133
1081.000000	67.358224
1080.000000	67.291696
1079.000000	67.211885
1078.000000	67.156966
1077.000000	67.088205
1076.000000	67.011073
1075.000000	66.961065
1074.000000	66.897774
1073.000000	66.819637
1072.000000	66.741612
1071.000000	66.690265
1070.000000	66.626304
1069.000000	66.559329
1068.000000	66.499499
1067.000000	66.427501
1066.000000	66.364322
1065.000000	66.301924
1064.000000	66.236735
1063.000000	66.173556
1062.000000	66.094637
1061.000000	66.030788
1060.000000	65.980669
1059.000000	65.917936
1058.000000	65.845045
1057.000000	65.770146
1056.000000	65.698036
1055.000000	65.640438
1054.000000	65.578263
1053.000000	65.520665
1052.000000	65.478360
1051.000000	65.411050
1050.000000	65.343518
1049.000000	65.301435
1048.000000	65.262255
1047.000000	65.207671
1046.000000	65.159672
1045.000000	65.112455
1044.000000	65.079414
1043.000000	65.036774
1042.000000	64.982525
1041.000000	64.943344
1040.000000	64.905392
1039.000000	64.856947
1038.000000	64.802140
1037.000000	64.747109
1036.000000	64.707036
1035.000000	64.659484
1034.000000	64.601886
1033.000000	64.548641
1032.000000	64.502875
1031.000000	64.450523
1030.000000	64.408329
1029.000000	64.373726
1028.000000	64.312221
1027.000000	64.252390
1026.000000	64.204950
1025.000000	64.158626
1024.000000	64.112748
1023.000000	64.068322
1022.000000	64.023002
1021.000000	63.972995
1020.000000	63.932921
1019.000000	63.914503
1018.000000	63.894634
1017.000000	63.875547
1016.000000	63.864273
1015.000000	63.861594
1014.000000	63.850431
1013.000000	63.857463
1012.000000	63.876998
1011.000000	63.903006
1010.000000	63.936047
1009.000000	63.977571
1008.000000	64.023002
1007.000000	64.069884
1006.000000	64.098460
1005.000000	64.149584
1004.000000	64.190662
1003.000000	64.235870
1002.000000	64.281747
1001.000000	64.318360
1000.000000	64.368479
999.000000	64.417371
998.000000	64.464030
997.000000	64.525646
996.000000	64.595635
995.000000	64.665065
994.000000	64.721212
993.000000	64.787629
992.000000	64.857840
991.000000	64.917448
990.000000	64.979064
989.000000	65.074615
988.000000	65.170388
987.000000	65.242721
986.000000	65.321081
985.000000	65.404464
984.000000	65.492648
983.000000	65.595454
982.000000	65.683190
981.000000	65.780973
980.000000	65.882328
979.000000	65.967944
978.000000	66.073764
977.000000	66.145203
976.000000	66.240195
975.000000	66.343448
974.000000	66.438887
973.000000	66.529637
972.000000	66.614472
971.000000	66.703883
970.000000	66.805907
969.000000	66.866631
968.000000	66.948786
967.000000	67.052150
966.000000	67.145134
965.000000	67.238005
964.000000	67.346504
963.000000	67.446407
962.000000	67.536600
961.000000	67.653471
960.000000	67.770006
959.000000	67.901500
958.000000	68.019933
957.000000	68.143501
956.000000	68.238047
955.000000	68.344090
954.000000	68.458728
953.000000	68.598928
952.000000	68.696823
951.000000	68.818158
950.000000	68.927662
949.000000	69.027454
948.000000	69.148789
947.000000	69.246349
946.000000	69.365117
945.000000	69.460221
944.000000	69.570283
943.000000	69.656345
942.000000	69.780583
941.000000	69.845883
940.000000	69.955052
939.000000	70.032184
938.000000	70.127176
937.000000	70.226857
936.000000	70.289143
935.000000	70.366834
934.000000	70.447985
933.000000	70.555590
932.000000	70.587515
931.000000	70.670340
930.000000	70.784532
929.000000	70.845590
928.000000	70.926183
927.000000	71.008227
926.000000	71.126772
925.000000	71.206918
924.000000	71.291083
923.000000	71.397796
922.000000	71.531968
921.000000	71.634886
920.000000	71.772072
919.000000	71.871417
918.000000	72.000343
917.000000	72.087299
916.000000	72.226159
915.000000	72.375624
914.000000	72.467491
913.000000	72.603115
912.000000	72.746998
911.000000	72.860185
910.000000	73.014227
909.000000	73.149515
908.000000	73.289939
907.000000	73.451124
906.000000	73.605836
905.000000	73.750947
904.000000	73.905435
903.000000	74.061374
902.000000	74.230597
901.000000	74.379392
900.000000	74.504969
899.000000	74.653541
898.000000	74.787825
897.000000	74.903691
896.000000	75.020562
895.000000	75.118456
894.000000	75.241243
893.000000	75.353314
892.000000	75.466054
891.000000	75.579241
890.000000	75.688522
889.000000	75.802043
888.000000	75.893464
887.000000	75.939788
886.000000	76.074630
885.000000	76.169399
884.000000	76.256243
883.000000	76.300223
882.000000	76.386620
881.000000	76.481500
880.000000	76.533964
879.000000	76.573256
878.000000	76.638667
877.000000	76.728190
876.000000	76.735446
875.000000	76.762459
874.000000	76.743259
873.000000	76.811908
872.000000	76.817936
871.000000	76.761789
870.000000	76.754645
869.000000	76.663336
868.000000	76.627617
867.000000	76.493109
866.000000	76.410619
865.000000	76.257359
864.000000	76.096285
863.000000	75.762417
862.000000	75.394168
861.000000	75.076374
860.000000	74.787937
859.000000	74.426832
858.000000	75.753933
857.000000	75.365400
856.000000	75.676200
855.000000	76.220200
854.000000	76.317200
853.000000	77.150200
852.000000	77.487300
851.000000	77.743300
850.000000	77.898100
849.000000	78.229400
848.000000	78.576900
847.000000	79.226100
846.000000	79.495900
845.000000	79.823500
844.000000	80.332300
843.000000	80.506400
842.000000	80.806700
841.000000	81.234100
840.000000	81.570400
839.000000	81.705800
838.000000	81.891700
837.000000	82.499500
836.000000	82.773800
835.000000	82.879500
834.000000	83.249900
833.000000	83.617900
832.000000	83.732100
831.000000	84.157200
830.000000	84.368000
829.000000	84.772100
828.000000	85.081200
827.000000	85.329700
826.000000	85.596700
825.000000	86.014500
824.000000	86.227200
823.000000	86.479000
822.000000	86.874500
821.000000	87.208000
820.000000	87.309100
819.000000	87.613400
818.000000	87.801700
817.000000	88.136100
816.000000	88.259300
815.000000	88.410600
814.000000	88.567400
813.000000	88.588700
812.000000	88.745800
811.000000	88.573500
810.000000	88.705900
809.000000	88.658800
808.000000	88.666600
807.000000	88.528200
806.000000	88.326100
805.000000	88.188400
804.000000	88.164000
803.000000	88.103900
802.000000	87.907200
801.000000	87.826400
800.000000	87.748600
799.000000	87.641400
798.000000	87.578700
797.000000	87.474600
796.000000	87.442800
795.000000	87.457400
794.000000	87.353900
793.000000	87.404300
792.000000	87.468200
791.000000	87.662800
790.000000	87.542900
789.000000	87.554900
788.000000	87.672600
787.000000	87.755600
786.000000	87.923200
785.000000	87.859000
784.000000	88.042500
783.000000	88.175600
782.000000	88.204800
781.000000	88.240000
780.000000	88.334000
779.000000	88.369300
778.000000	88.389700
777.000000	88.470400
776.000000	88.490600
775.000000	88.446300
774.000000	88.408500
773.000000	88.318700
772.000000	88.201900
771.000000	88.114100
770.000000	87.934900
769.000000	87.792700
768.000000	87.765400
767.000000	87.583900
766.000000	87.350200
765.000000	87.164300
764.000000	86.967500
763.000000	86.745400
762.000000	86.607300
761.000000	86.544700
760.000000	86.365200
759.000000	86.119000
758.000000	85.963800
757.000000	85.844300
756.000000	85.682500
755.000000	85.590500
754.000000	85.395100
753.000000	85.136200
752.000000	84.937300
751.000000	84.699000
750.000000	84.438500
749.000000	84.197500
748.000000	83.902400
747.000000	83.611600
746.000000	83.362700
745.000000	83.017600
744.000000	82.603100
743.000000	82.203800
742.000000	81.837500
741.000000	81.425800
740.000000	80.924200
739.000000	80.490200
738.000000	80.062400
737.000000	79.598300
736.000000	79.099400
735.000000	78.603400
734.000000	78.089400
733.000000	77.550900
732.000000	76.992500
731.000000	76.421100
730.000000	75.892900
729.000000	75.379000
728.000000	74.915800
727.000000	74.392400
726.000000	73.866700
725.000000	73.452700
724.000000	72.992400
723.000000	72.559200
722.000000	72.151200
721.000000	71.761500
720.000000	71.442200
719.000000	71.152100
718.000000	70.844500
717.000000	70.535800
716.000000	70.372200
715.000000	70.153300
714.000000	69.916400
713.000000	69.884600
712.000000	69.870800
711.000000	69.811300
710.000000	69.766200
709.000000	69.862300
708.000000	69.981300
707.000000	70.137500
706.000000	70.270200
705.000000	70.469800
704.000000	70.803600
703.000000	71.043800
702.000000	71.274800
701.000000	71.500700
700.000000	71.836100
699.000000	72.107200
698.000000	72.370900
697.000000	72.608800
696.000000	72.846200
695.000000	73.142500
694.000000	73.335800
693.000000	73.521200
692.000000	73.762600
691.000000	73.946900
690.000000	74.145500
689.000000	74.236000
688.000000	74.279100
687.000000	74.387000
686.000000	74.443700
685.000000	74.459300
684.000000	74.435400
683.000000	74.359300
682.000000	74.251700
681.000000	74.110400
680.000000	73.943600
679.000000	73.749300
678.000000	73.480400
677.000000	73.254000
676.000000	72.968500
675.000000	72.614500
674.000000	72.327100
673.000000	71.963800
672.000000	71.591500
671.000000	71.211800
670.000000	70.817500
669.000000	70.420700
668.000000	69.967200
667.000000	69.537800
666.000000	69.065700
665.000000	68.575000
664.000000	68.086300
663.000000	67.552900
662.000000	66.979300
661.000000	66.426000
660.000000	65.718800
659.000000	65.096400
658.000000	64.439100
657.000000	63.743200
656.000000	63.074300
655.000000	62.315500
654.000000	61.595200
653.000000	60.901400
652.000000	60.155300
651.000000	59.448900
650.000000	58.775800
649.000000	58.127200
648.000000	57.532900
647.000000	56.975200
646.000000	56.442900
645.000000	55.993800
644.000000	55.624700
643.000000	55.316700
642.000000	55.101000
641.000000	54.946400
640.000000	54.881500
639.000000	54.940600
638.000000	55.079600
637.000000	55.372600
636.000000	55.715000
635.000000	56.189900
634.000000	56.729600
633.000000	57.348000
632.000000	58.038000
631.000000	58.834200
630.000000	59.667400
629.000000	60.562400
628.000000	61.423200
627.000000	62.358500
626.000000	63.278800
625.000000	64.269300
624.000000	65.239800
623.000000	66.200600
622.000000	67.161200
621.000000	68.063400
620.000000	68.939100
619.000000	69.893600
618.000000	70.743000
617.000000	71.591700
616.000000	72.434300
615.000000	73.241300
614.000000	74.083300
613.000000	74.813200
612.000000	75.596900
611.000000	76.341900
610.000000	77.110500
609.000000	77.728700
608.000000	78.389100
607.000000	78.990000
606.000000	79.610800
605.000000	80.112300
604.000000	80.624000
603.000000	81.115000
602.000000	81.596200
601.000000	82.040900
600.000000	82.446900
599.000000	82.900600
598.000000	83.303700
597.000000	83.678400
596.000000	84.033300
595.000000	84.401900
594.000000	84.811300
593.000000	85.184800
592.000000	85.518800
591.000000	85.936800
590.000000	86.283800
589.000000	86.561000
588.000000	86.882500
587.000000	87.184300
586.000000	87.465000
585.000000	87.733500
584.000000	87.977000
583.000000	88.192300
582.000000	88.446300
581.000000	88.645400
580.000000	88.827100
579.000000	88.997800
578.000000	89.177800
577.000000	89.338400
576.000000	89.465400
575.000000	89.584600
574.000000	89.681900
573.000000	89.747600
572.000000	89.904700
571.000000	89.898700
570.000000	89.943100
569.000000	89.979400
568.000000	89.980400
567.000000	89.910600
566.000000	89.849000
565.000000	89.751600
564.000000	89.674900
563.000000	89.565200
562.000000	89.448900
561.000000	89.300500
560.000000	89.116400
559.000000	88.990200
558.000000	88.811400
557.000000	88.610100
556.000000	88.393000
555.000000	88.147500
554.000000	87.904700
553.000000	87.659400
552.000000	87.338400
551.000000	87.006900
550.000000	86.700700
549.000000	86.337900
548.000000	85.965300
547.000000	85.529600
546.000000	85.087900
545.000000	84.636400
544.000000	84.119900
543.000000	83.593500
542.000000	83.021900
541.000000	82.405100
540.000000	81.786200
539.000000	81.103400
538.000000	80.410900
537.000000	79.675400
536.000000	78.861200
535.000000	77.999100
534.000000	77.145800
533.000000	76.211600
532.000000	75.205900
531.000000	74.172400
530.000000	73.065000
529.000000	71.921900
528.000000	70.725600
527.000000	69.553400
526.000000	68.279800
525.000000	66.985500
524.000000	65.642600
523.000000	64.311900
522.000000	62.949000
521.000000	61.574700
520.000000	60.221500
519.000000	58.846600
518.000000	57.499900
517.000000	56.174000
516.000000	54.867500
515.000000	53.571400
514.000000	52.284500
513.000000	51.022700
512.000000	49.798400
511.000000	48.632100
510.000000	47.491200
509.000000	46.391400
508.000000	45.361400
507.000000	44.344100
506.000000	43.403900
505.000000	42.442500
504.000000	41.546900
503.000000	40.694100
502.000000	39.835200
501.000000	39.038500
500.000000	38.261600
499.000000	37.533100
498.000000	36.824200
497.000000	36.161600
496.000000	35.516200
495.000000	34.899600
494.000000	34.333300
493.000000	33.799800
492.000000	33.326700
491.000000	32.899200
490.000000	32.523300
489.000000	32.147300
488.000000	31.837000
487.000000	31.585500
486.000000	31.379800
485.000000	31.185700
484.000000	31.020600
483.000000	30.895400
482.000000	30.785700
481.000000	30.698800
480.000000	30.588900
479.000000	30.495700
478.000000	30.427500
477.000000	30.341000
476.000000	30.213200
475.000000	30.064600
474.000000	29.903900
473.000000	29.726600
472.000000	29.515400
471.000000	29.257700
470.000000	28.958200
469.000000	28.644600
468.000000	28.305500
467.000000	27.938400
466.000000	27.537500
465.000000	27.123000
464.000000	26.675000
463.000000	26.192900
462.000000	25.703200
461.000000	25.212600
460.000000	24.712500
459.000000	24.225000
458.000000	23.741400
457.000000	23.278900
456.000000	22.851700
455.000000	22.456800
454.000000	22.095600
453.000000	21.768500
452.000000	21.487900
451.000000	21.241500
450.000000	21.043300
449.000000	20.892900
448.000000	20.800800
447.000000	20.749900
446.000000	20.739100
445.000000	20.778100
444.000000	20.842700
443.000000	20.940400
442.000000	21.062800
441.000000	21.196900
440.000000	21.340100
439.000000	21.472300
438.000000	21.623000
437.000000	21.776900
436.000000	21.923800
435.000000	22.083100
434.000000	22.204200
433.000000	22.306000
432.000000	22.403400
431.000000	22.476000
430.000000	22.519200
429.000000	22.544800
428.000000	22.564700
427.000000	22.554700
426.000000	22.540000
425.000000	22.492700
424.000000	22.417900
423.000000	22.330900
422.000000	22.222800
421.000000	22.109900
420.000000	21.992700
419.000000	21.822500
418.000000	21.633600
417.000000	21.461200
416.000000	21.260100
415.000000	21.045600
414.000000	20.831500
413.000000	20.566500
412.000000	20.311000
411.000000	20.069500
410.000000	19.781400
409.000000	19.488700
408.000000	19.165800
407.000000	18.832100
406.000000	18.505300
405.000000	18.168400
404.000000	17.820500
403.000000	17.467400
402.000000	17.105100
401.000000	16.731200
400.000000	16.332600
399.000000	15.934000
398.000000	15.522300
397.000000	15.124600
396.000000	14.738000
395.000000	14.325400
394.000000	13.918100
393.000000	13.509600
392.000000	13.107900
391.000000	12.688700
390.000000	12.306100
389.000000	11.910500
388.000000	11.538400
387.000000	11.203400
386.000000	10.865000
385.000000	10.516600
384.000000	10.191100
383.000000	9.875900
382.000000	9.575500
381.000000	9.316600
380.000000	9.046600
379.000000	8.810900
378.000000	8.578100
377.000000	8.370900
376.000000	8.114500
375.000000	7.928100
374.000000	7.744600
373.000000	7.557300
372.000000	7.497500
371.000000	7.416200
370.000000	7.265000
369.000000	7.154000
368.000000	7.039900
367.000000	7.033800
366.000000	6.958600
365.000000	6.875700
364.000000	6.804500
363.000000	6.678800
362.000000	6.573200
361.000000	6.530500
360.000000	6.532600
359.000000	6.504200
358.000000	6.419300
357.000000	6.313200
356.000000	6.287900
355.000000	6.250800
354.000000	6.196300
353.000000	6.154800
352.000000	6.124300
351.000000	6.102600
350.000000	6.008900
349.000000	5.995600
348.000000	5.988600
347.000000	6.015500
346.000000	5.994800
345.000000	5.934300
344.000000	5.899500
343.000000	5.907300
342.000000	5.929100
341.000000	5.926800
340.000000	5.871100
339.000000	5.890400
338.000000	5.788600
337.000000	5.879700
336.000000	5.880200
335.000000	5.804300
334.000000	5.901100
333.000000	5.858600
332.000000	5.827700
331.000000	5.785000
330.000000	5.814700
329.000000	5.753700
328.000000	5.750600
327.000000	5.815200
326.000000	5.756600
325.000000	5.751100
324.000000	5.874700
323.000000	5.826000
322.000000	5.805200
321.000000	5.809400
320.000000	5.946200
319.000000	5.875300
318.000000	5.880300
317.000000	5.920800
316.000000	5.830900
315.000000	5.851900
314.000000	5.909500
313.000000	5.836000
312.000000	5.867200
311.000000	5.843600
310.000000	5.881100
309.000000	5.894300
308.000000	5.882600
307.000000	5.897100
306.000000	5.832300
305.000000	5.921700
304.000000	5.876800
303.000000	5.930700
302.000000	5.961500
301.000000	5.912000
300.000000	5.915700
299.000000	5.958900
298.000000	5.942300
297.000000	5.951900
296.000000	5.898100
295.000000	5.977800
294.000000	5.962000
293.000000	5.952300
292.000000	5.985000
291.000000	5.980500
290.000000	6.001600
289.000000	5.998400
288.000000	5.991800
287.000000	6.012500
286.000000	5.999700
285.000000	6.005600
284.000000	6.019400
283.000000	6.029100
282.000000	6.078800
281.000000	6.065200
280.000000	6.075100
279.000000	6.074300
278.000000	6.057300
277.000000	6.099100
276.000000	6.094800
275.000000	6.089500
274.000000	6.134100
273.000000	6.146400
272.000000	6.121300
271.000000	6.165100
270.000000	6.183400
269.000000	6.217100
268.000000	6.203500
267.000000	6.269500
266.000000	6.264000
265.000000	6.275900
264.000000	6.302400
263.000000	6.347500
262.000000	6.382900
261.000000	6.377100
260.000000	6.428800
259.000000	6.476500
258.000000	6.463300
257.000000	6.505100
256.000000	6.525200
255.000000	6.520900
254.000000	6.526800
253.000000	6.564600
252.000000	6.545300
251.000000	6.597300
250.000000	6.623200
