PE UV       SUBTECH     SPECTRUM    ASCII       PEDS        4.00        
   -1
CICIMAUCR0108-2.Sample.ASC
24/04/19
17:04:33.00
24/04/19
17:04:33.00
Vinicio Soto Monge
C. resplendens
250,000000
1
Lambda 1050
1050L1511233
PerkinElmer UV WinLab 6.3.2.0749 / 2.02.05 Lambda 900 UV/VIS/NIR, Aug  7 2015 09:38:08

0
0
3350/servo 860,8/2
0
0
UV/VIS
1
1
1
DoubleDePol,CommonBeamDepol,RBeamAtt,SBeamAtt,60mm sphere, WB InGaAs Detector
0
0
0
0
Program
Program
3350/servo 860,8/2
3350/0,2 860,8/0,2
3350/0,2 860,8/0,2
0
15.00
 
 
 
0
 
860,8
319,2
860,8
Front
100
on
S:100 R:100
0
0
0
0
 
0
 
 
 
0
 
 
0
0
0
0
0
 
 
 
 
0
0


0
0
#HDR
-1
-1
#GR
nm
%R
1.0
0.0
2500,000000
-1,000000
2251
8
90,331100
5,360400
#DATA
2500.000000	10.637762
2499.000000	10.593478
2498.000000	10.640379
2497.000000	10.488606
2496.000000	10.504005
2495.000000	10.496255
2494.000000	10.426005
2493.000000	10.464149
2492.000000	10.377293
2491.000000	10.395711
2490.000000	10.383332
2489.000000	10.302312
2488.000000	10.337840
2487.000000	10.275340
2486.000000	10.351528
2485.000000	10.300601
2484.000000	10.255211
2483.000000	10.246756
2482.000000	10.279365
2481.000000	10.305533
2480.000000	10.246354
2479.000000	10.216764
2478.000000	10.210625
2477.000000	10.238403
2476.000000	10.296475
2475.000000	10.321837
2474.000000	10.308955
2473.000000	10.290638
2472.000000	10.298186
2471.000000	10.282083
2470.000000	10.246052
2469.000000	10.313786
2468.000000	10.352534
2467.000000	10.343375
2466.000000	10.341765
2465.000000	10.386250
2464.000000	10.431037
2463.000000	10.453179
2462.000000	10.473509
2461.000000	10.522221
2460.000000	10.579186
2459.000000	10.670773
2458.000000	10.733777
2457.000000	10.779973
2456.000000	10.863206
2455.000000	10.967575
2454.000000	11.029673
2453.000000	11.108377
2452.000000	11.191107
2451.000000	11.282996
2450.000000	11.374684
2449.000000	11.480864
2448.000000	11.586642
2447.000000	11.692319
2446.000000	11.753712
2445.000000	11.859792
2444.000000	11.951781
2443.000000	12.032901
2442.000000	12.136968
2441.000000	12.239827
2440.000000	12.312191
2439.000000	12.394317
2438.000000	12.492848
2437.000000	12.553135
2436.000000	12.652672
2435.000000	12.746473
2434.000000	12.803539
2433.000000	12.861209
2432.000000	12.940819
2431.000000	13.003520
2430.000000	13.036834
2429.000000	13.115739
2428.000000	13.180454
2427.000000	13.233897
2426.000000	13.281804
2425.000000	13.319042
2424.000000	13.363326
2423.000000	13.365138
2422.000000	13.380637
2421.000000	13.397746
2420.000000	13.403081
2419.000000	13.412340
2418.000000	13.439816
2417.000000	13.472022
2416.000000	13.500304
2415.000000	13.526673
2414.000000	13.546097
2413.000000	13.555558
2412.000000	13.576894
2411.000000	13.609000
2410.000000	13.621480
2409.000000	13.632752
2408.000000	13.640301
2407.000000	13.658417
2406.000000	13.673815
2405.000000	13.696561
2404.000000	13.718300
2403.000000	13.730177
2402.000000	13.736215
2401.000000	13.754734
2400.000000	13.793281
2399.000000	13.809082
2398.000000	13.818341
2397.000000	13.826192
2396.000000	13.854372
2395.000000	13.879735
2394.000000	13.888088
2393.000000	13.902078
2392.000000	13.916370
2391.000000	13.923314
2390.000000	13.950086
2389.000000	13.959446
2388.000000	13.950488
2387.000000	13.950186
2386.000000	13.948576
2385.000000	13.949582
2384.000000	13.936800
2383.000000	13.913149
2382.000000	13.897851
2381.000000	13.888692
2380.000000	13.869670
2379.000000	13.833338
2378.000000	13.803043
2377.000000	13.783418
2376.000000	13.735913
2375.000000	13.701493
2374.000000	13.688811
2373.000000	13.644226
2372.000000	13.577700
2371.000000	13.530195
2370.000000	13.477759
2369.000000	13.423310
2368.000000	13.356381
2367.000000	13.276570
2366.000000	13.215781
2365.000000	13.132447
2364.000000	13.034620
2363.000000	12.933270
2362.000000	12.840375
2361.000000	12.766401
2360.000000	12.669279
2359.000000	12.573767
2358.000000	12.505429
2357.000000	12.419679
2356.000000	12.342485
2355.000000	12.308165
2354.000000	12.268008
2353.000000	12.229159
2352.000000	12.217182
2351.000000	12.226542
2350.000000	12.243853
2349.000000	12.253213
2348.000000	12.292766
2347.000000	12.362815
2346.000000	12.410823
2345.000000	12.444438
2344.000000	12.488017
2343.000000	12.524954
2342.000000	12.572257
2341.000000	12.607483
2340.000000	12.625498
2339.000000	12.647741
2338.000000	12.650257
2337.000000	12.638381
2336.000000	12.622177
2335.000000	12.586146
2334.000000	12.548002
2333.000000	12.513984
2332.000000	12.444941
2331.000000	12.386064
2330.000000	12.326482
2329.000000	12.246268
2328.000000	12.156594
2327.000000	12.066718
2326.000000	11.959430
2325.000000	11.848218
2324.000000	11.746566
2323.000000	11.639480
2322.000000	11.504214
2321.000000	11.352844
2320.000000	11.222609
2319.000000	11.066308
2318.000000	10.918561
2317.000000	10.780476
2316.000000	10.615117
2315.000000	10.474415
2314.000000	10.338846
2313.000000	10.198246
2312.000000	10.086027
2311.000000	9.979242
2310.000000	9.900437
2309.000000	9.828174
2308.000000	9.765271
2307.000000	9.732058
2306.000000	9.706696
2305.000000	9.715955
2304.000000	9.765674
2303.000000	9.823947
2302.000000	9.887655
2301.000000	9.981054
2300.000000	10.091159
2299.000000	10.188584
2298.000000	10.293053
2297.000000	10.401850
2296.000000	10.512861
2295.000000	10.606864
2294.000000	10.698652
2293.000000	10.759844
2292.000000	10.810871
2291.000000	10.868138
2290.000000	10.905377
2289.000000	10.935771
2288.000000	10.927216
2287.000000	10.909302
2286.000000	10.899237
2285.000000	10.832711
2284.000000	10.790742
2283.000000	10.772626
2282.000000	10.714252
2281.000000	10.646015
2280.000000	10.587137
2279.000000	10.535708
2278.000000	10.486291
2277.000000	10.420570
2276.000000	10.391584
2275.000000	10.368436
2274.000000	10.323548
2273.000000	10.338545
2272.000000	10.328480
2271.000000	10.349012
2270.000000	10.393295
2269.000000	10.421073
2268.000000	10.494645
2267.000000	10.596195
2266.000000	10.734280
2265.000000	10.875284
2264.000000	11.047890
2263.000000	11.222911
2262.000000	11.468988
2261.000000	11.694030
2260.000000	11.957820
2259.000000	12.229058
2258.000000	12.520828
2257.000000	12.811188
2256.000000	13.098026
2255.000000	13.425524
2254.000000	13.680760
2253.000000	13.972227
2252.000000	14.227262
2251.000000	14.489039
2250.000000	14.721327
2249.000000	14.936808
2248.000000	15.151383
2247.000000	15.348647
2246.000000	15.534437
2245.000000	15.699394
2244.000000	15.871799
2243.000000	16.031019
2242.000000	16.142232
2241.000000	16.270151
2240.000000	16.361940
2239.000000	16.465302
2238.000000	16.581547
2237.000000	16.660050
2236.000000	16.718323
2235.000000	16.805784
2234.000000	16.880361
2233.000000	16.943667
2232.000000	16.974364
2231.000000	17.013515
2230.000000	17.029920
2229.000000	17.062025
2228.000000	17.096748
2227.000000	17.108926
2226.000000	17.083865
2225.000000	17.103592
2224.000000	17.081450
2223.000000	17.076921
2222.000000	17.065548
2221.000000	17.039481
2220.000000	16.995600
2219.000000	16.971445
2218.000000	16.961582
2217.000000	16.888916
2216.000000	16.882173
2215.000000	16.835373
2214.000000	16.805180
2213.000000	16.778106
2212.000000	16.756166
2211.000000	16.712385
2210.000000	16.713392
2209.000000	16.667497
2208.000000	16.660654
2207.000000	16.615967
2206.000000	16.608822
2205.000000	16.571382
2204.000000	16.543805
2203.000000	16.516933
2202.000000	16.502641
2201.000000	16.508781
2200.000000	16.467315
2199.000000	16.444770
2198.000000	16.410048
2197.000000	16.409746
2196.000000	16.401090
2195.000000	16.372709
2194.000000	16.383679
2193.000000	16.371199
2192.000000	16.373111
2191.000000	16.358216
2190.000000	16.347547
2189.000000	16.304673
2188.000000	16.297426
2187.000000	16.287462
2186.000000	16.268340
2185.000000	16.237844
2184.000000	16.245393
2183.000000	16.208154
2182.000000	16.211476
2181.000000	16.185107
2180.000000	16.176149
2179.000000	16.169205
2178.000000	16.167292
2177.000000	16.148572
2176.000000	16.176652
2175.000000	16.171117
2174.000000	16.161153
2173.000000	16.177759
2172.000000	16.181685
2171.000000	16.189032
2170.000000	16.200707
2169.000000	16.237241
2168.000000	16.239656
2167.000000	16.276291
2166.000000	16.295816
2165.000000	16.316046
2164.000000	16.359222
2163.000000	16.375023
2162.000000	16.430680
2161.000000	16.455741
2160.000000	16.480600
2159.000000	16.534848
2158.000000	16.585774
2157.000000	16.637807
2156.000000	16.683399
2155.000000	16.725268
2154.000000	16.769350
2153.000000	16.825007
2152.000000	16.882274
2151.000000	16.932697
2150.000000	16.991473
2149.000000	17.044010
2148.000000	17.094836
2147.000000	17.142944
2146.000000	17.195481
2145.000000	17.237651
2144.000000	17.274990
2143.000000	17.322394
2142.000000	17.368992
2141.000000	17.411364
2140.000000	17.467020
2139.000000	17.490169
2138.000000	17.509090
2137.000000	17.542102
2136.000000	17.588398
2135.000000	17.605608
2134.000000	17.623221
2133.000000	17.642746
2132.000000	17.656032
2131.000000	17.673745
2130.000000	17.682602
2129.000000	17.696893
2128.000000	17.698000
2127.000000	17.689949
2126.000000	17.691257
2125.000000	17.679985
2124.000000	17.671531
2123.000000	17.659554
2122.000000	17.638721
2121.000000	17.623825
2120.000000	17.619900
2119.000000	17.593430
2118.000000	17.566256
2117.000000	17.536767
2116.000000	17.514827
2115.000000	17.492987
2114.000000	17.459573
2113.000000	17.429379
2112.000000	17.395563
2111.000000	17.353292
2110.000000	17.331754
2109.000000	17.300151
2108.000000	17.262711
2107.000000	17.233424
2106.000000	17.203834
2105.000000	17.169917
2104.000000	17.139220
2103.000000	17.101780
2102.000000	17.073700
2101.000000	17.052665
2100.000000	17.014118
2099.000000	16.982214
2098.000000	16.952524
2097.000000	16.931388
2096.000000	16.910756
2095.000000	16.891835
2094.000000	16.861843
2093.000000	16.837285
2092.000000	16.822793
2091.000000	16.807293
2090.000000	16.793002
2089.000000	16.774282
2088.000000	16.763110
2087.000000	16.740264
2086.000000	16.729394
2085.000000	16.715706
2084.000000	16.685714
2083.000000	16.675650
2082.000000	16.641934
2081.000000	16.615062
2080.000000	16.609627
2079.000000	16.567356
2078.000000	16.530520
2077.000000	16.499521
2076.000000	16.468623
2075.000000	16.423937
2074.000000	16.394347
2073.000000	16.364858
2072.000000	16.313731
2071.000000	16.257370
2070.000000	16.222848
2069.000000	16.189736
2068.000000	16.157027
2067.000000	16.119385
2066.000000	16.070875
2065.000000	16.030113
2064.000000	15.989654
2063.000000	15.954932
2062.000000	15.924034
2061.000000	15.900080
2060.000000	15.892834
2059.000000	15.874215
2058.000000	15.882367
2057.000000	15.884682
2056.000000	15.886795
2055.000000	15.934803
2054.000000	15.972243
2053.000000	16.017734
2052.000000	16.088186
2051.000000	16.167091
2050.000000	16.266830
2049.000000	16.359524
2048.000000	16.508076
2047.000000	16.628649
2046.000000	16.745296
2045.000000	16.903007
2044.000000	17.048841
2043.000000	17.206652
2042.000000	17.353191
2041.000000	17.508285
2040.000000	17.666398
2039.000000	17.814145
2038.000000	17.946090
2037.000000	18.100681
2036.000000	18.226688
2035.000000	18.353803
2034.000000	18.501147
2033.000000	18.618297
2032.000000	18.726289
2031.000000	18.828544
2030.000000	18.933316
2029.000000	19.033659
2028.000000	19.131184
2027.000000	19.224884
2026.000000	19.318584
2025.000000	19.406246
2024.000000	19.489077
2023.000000	19.566372
2022.000000	19.645378
2021.000000	19.726397
2020.000000	19.811241
2019.000000	19.852002
2018.000000	19.914805
2017.000000	19.972273
2016.000000	20.034975
2015.000000	20.100092
2014.000000	20.128172
2013.000000	20.157258
2012.000000	20.199932
2011.000000	20.252871
2010.000000	20.255890
2009.000000	20.289808
2008.000000	20.301684
2007.000000	20.309534
2006.000000	20.306414
2005.000000	20.313459
2004.000000	20.304703
2003.000000	20.290210
2002.000000	20.290210
2001.000000	20.266257
2000.000000	20.256393
1999.000000	20.222879
1998.000000	20.180306
1997.000000	20.138941
1996.000000	20.093953
1995.000000	20.053695
1994.000000	20.018469
1993.000000	19.974789
1992.000000	19.905344
1991.000000	19.843045
1990.000000	19.780746
1989.000000	19.726800
1988.000000	19.620519
1987.000000	19.556509
1986.000000	19.489983
1985.000000	19.399000
1984.000000	19.331870
1983.000000	19.246623
1982.000000	19.186941
1981.000000	19.086497
1980.000000	19.028727
1979.000000	18.954854
1978.000000	18.869104
1977.000000	18.753967
1976.000000	18.681905
1975.000000	18.622021
1974.000000	18.517350
1973.000000	18.427273
1972.000000	18.349575
1971.000000	18.286672
1970.000000	18.208471
1969.000000	18.121514
1968.000000	18.047238
1967.000000	17.972560
1966.000000	17.929584
1965.000000	17.835783
1964.000000	17.767445
1963.000000	17.680891
1962.000000	17.625234
1961.000000	17.548040
1960.000000	17.450615
1959.000000	17.374930
1958.000000	17.320683
1957.000000	17.249527
1956.000000	17.174546
1955.000000	17.086482
1954.000000	17.018044
1953.000000	16.955342
1952.000000	16.873115
1951.000000	16.814540
1950.000000	16.748617
1949.000000	16.667699
1948.000000	16.620295
1947.000000	16.579936
1946.000000	16.519348
1945.000000	16.475970
1944.000000	16.425950
1943.000000	16.417294
1942.000000	16.403003
1941.000000	16.396058
1940.000000	16.397870
1939.000000	16.384786
1938.000000	16.377439
1937.000000	16.384887
1936.000000	16.401795
1935.000000	16.432592
1934.000000	16.489457
1933.000000	16.548837
1932.000000	16.621100
1931.000000	16.686821
1930.000000	16.767740
1929.000000	16.892137
1928.000000	16.975471
1927.000000	17.087690
1926.000000	17.192159
1925.000000	17.334572
1924.000000	17.472556
1923.000000	17.623725
1922.000000	17.794217
1921.000000	17.962093
1920.000000	18.144763
1919.000000	18.303178
1918.000000	18.509098
1917.000000	18.706060
1916.000000	18.914596
1915.000000	19.137122
1914.000000	19.388029
1913.000000	19.632999
1912.000000	19.878069
1911.000000	20.128071
1910.000000	20.357340
1909.000000	20.602712
1908.000000	20.875259
1907.000000	21.153341
1906.000000	21.459200
1905.000000	21.763752
1904.000000	22.057333
1903.000000	22.354739
1902.000000	22.639060
1901.000000	22.923885
1900.000000	23.247660
1899.000000	23.551004
1898.000000	23.878402
1897.000000	24.189495
1896.000000	24.470697
1895.000000	24.760252
1894.000000	25.049606
1893.000000	25.369154
1892.000000	25.694740
1891.000000	26.013885
1890.000000	26.319342
1889.000000	26.612118
1888.000000	26.933175
1887.000000	27.252924
1886.000000	27.633462
1885.000000	28.044093
1884.000000	28.508066
1883.000000	28.933291
1882.000000	29.390621
1881.000000	29.867175
1880.000000	30.269251
1879.000000	30.689846
1878.000000	31.110038
1877.000000	31.485645
1876.000000	31.838003
1875.000000	32.183416
1874.000000	32.499844
1873.000000	32.778127
1872.000000	33.049868
1871.000000	33.260115
1870.000000	33.410277
1869.000000	33.564566
1868.000000	33.705167
1867.000000	33.779342
1866.000000	33.833288
1865.000000	33.888139
1864.000000	33.926787
1863.000000	33.971876
1862.000000	34.021192
1861.000000	34.057424
1860.000000	34.087919
1859.000000	34.083592
1858.000000	34.072722
1857.000000	34.054505
1856.000000	34.015757
1855.000000	33.978720
1854.000000	33.926686
1853.000000	33.846070
1852.000000	33.774813
1851.000000	33.730831
1850.000000	33.684837
1849.000000	33.654945
1848.000000	33.619015
1847.000000	33.531957
1846.000000	33.432621
1845.000000	33.335297
1844.000000	33.263839
1843.000000	33.265047
1842.000000	33.267664
1841.000000	33.232538
1840.000000	33.186644
1839.000000	33.127968
1838.000000	33.072111
1837.000000	33.026116
1836.000000	32.958181
1835.000000	32.860354
1834.000000	32.764137
1833.000000	32.678186
1832.000000	32.599180
1831.000000	32.523697
1830.000000	32.453144
1829.000000	32.373736
1828.000000	32.276613
1827.000000	32.199318
1826.000000	32.128162
1825.000000	32.066869
1824.000000	32.026310
1823.000000	32.002859
1822.000000	32.022082
1821.000000	32.012219
1820.000000	31.976792
1819.000000	31.932005
1818.000000	31.887218
1817.000000	31.886715
1816.000000	31.891848
1815.000000	31.876852
1814.000000	31.860145
1813.000000	31.844444
1812.000000	31.830354
1811.000000	31.797141
1810.000000	31.734037
1809.000000	31.689954
1808.000000	31.661271
1807.000000	31.627856
1806.000000	31.569784
1805.000000	31.507183
1804.000000	31.455351
1803.000000	31.425258
1802.000000	31.377049
1801.000000	31.317065
1800.000000	31.260201
1799.000000	31.215212
1798.000000	31.161367
1797.000000	31.120304
1796.000000	31.067566
1795.000000	31.017244
1794.000000	30.967425
1793.000000	30.920222
1792.000000	30.856413
1791.000000	30.789384
1790.000000	30.722656
1789.000000	30.668912
1788.000000	30.615973
1787.000000	30.558605
1786.000000	30.481612
1785.000000	30.418206
1784.000000	30.320983
1783.000000	30.235636
1782.000000	30.159448
1781.000000	30.083863
1780.000000	29.990867
1779.000000	29.899281
1778.000000	29.791691
1777.000000	29.696179
1776.000000	29.585369
1775.000000	29.446781
1774.000000	29.329932
1773.000000	29.190439
1772.000000	29.026790
1771.000000	28.898770
1770.000000	28.774473
1769.000000	28.637798
1768.000000	28.512595
1767.000000	28.409132
1766.000000	28.314426
1765.000000	28.257259
1764.000000	28.214988
1763.000000	28.209050
1762.000000	28.221128
1761.000000	28.248906
1760.000000	28.319860
1759.000000	28.388701
1758.000000	28.456335
1757.000000	28.530208
1756.000000	28.576002
1755.000000	28.587676
1754.000000	28.597842
1753.000000	28.596634
1752.000000	28.575901
1751.000000	28.549331
1750.000000	28.489044
1749.000000	28.401886
1748.000000	28.331938
1747.000000	28.229884
1746.000000	28.088780
1745.000000	27.933585
1744.000000	27.763395
1743.000000	27.548719
1742.000000	27.320658
1741.000000	27.071964
1740.000000	26.826995
1739.000000	26.582830
1738.000000	26.360003
1737.000000	26.170287
1736.000000	26.023949
1735.000000	25.922700
1734.000000	25.877914
1733.000000	25.876706
1732.000000	25.934577
1731.000000	26.006135
1730.000000	26.098930
1729.000000	26.201990
1728.000000	26.315719
1727.000000	26.414451
1726.000000	26.497987
1725.000000	26.546196
1724.000000	26.610004
1723.000000	26.615137
1722.000000	26.652678
1721.000000	26.690118
1720.000000	26.722928
1719.000000	26.773150
1718.000000	26.805658
1717.000000	26.881444
1716.000000	26.955720
1715.000000	27.036537
1714.000000	27.132553
1713.000000	27.201595
1712.000000	27.258761
1711.000000	27.297711
1710.000000	27.324281
1709.000000	27.320859
1708.000000	27.340082
1707.000000	27.292175
1706.000000	27.275166
1705.000000	27.239538
1704.000000	27.169288
1703.000000	27.078708
1702.000000	26.988932
1701.000000	26.843903
1700.000000	26.681362
1699.000000	26.525161
1698.000000	26.388183
1697.000000	26.264792
1696.000000	26.201990
1695.000000	26.190818
1694.000000	26.253420
1693.000000	26.363525
1692.000000	26.517814
1691.000000	26.656603
1690.000000	26.789454
1689.000000	26.890804
1688.000000	26.942535
1687.000000	26.937201
1686.000000	26.969709
1685.000000	26.985812
1684.000000	27.106083
1683.000000	27.367156
1682.000000	27.729075
1681.000000	28.188821
1680.000000	28.713684
1679.000000	29.276993
1678.000000	29.809908
1677.000000	30.304678
1676.000000	30.771771
1675.000000	31.143654
1674.000000	31.457163
1673.000000	31.740277
1672.000000	32.005677
1671.000000	32.224177
1670.000000	32.417516
1669.000000	32.593443
1668.000000	32.751255
1667.000000	32.849182
1666.000000	32.967138
1665.000000	33.061040
1664.000000	33.143367
1663.000000	33.230828
1662.000000	33.289403
1661.000000	33.338819
1660.000000	33.407661
1659.000000	33.453857
1658.000000	33.482943
1657.000000	33.497033
1656.000000	33.517464
1655.000000	33.505789
1654.000000	33.496429
1653.000000	33.506997
1652.000000	33.493410
1651.000000	33.465229
1650.000000	33.431312
1649.000000	33.400615
1648.000000	33.366597
1647.000000	33.314967
1646.000000	33.272193
1645.000000	33.215328
1644.000000	33.155042
1643.000000	33.115187
1642.000000	33.068487
1641.000000	32.996325
1640.000000	32.939360
1639.000000	32.866292
1638.000000	32.790506
1637.000000	32.744008
1636.000000	32.664901
1635.000000	32.586298
1634.000000	32.510009
1633.000000	32.445898
1632.000000	32.363671
1631.000000	32.262624
1630.000000	32.200727
1629.000000	32.117594
1628.000000	32.029731
1627.000000	31.935930
1626.000000	31.852295
1625.000000	31.772986
1624.000000	31.693980
1623.000000	31.605312
1622.000000	31.524192
1621.000000	31.449514
1620.000000	31.359537
1619.000000	31.290092
1618.000000	31.206859
1617.000000	31.126343
1616.000000	31.044821
1615.000000	30.976785
1614.000000	30.892042
1613.000000	30.813841
1612.000000	30.750434
1611.000000	30.692262
1610.000000	30.620099
1609.000000	30.538677
1608.000000	30.471145
1607.000000	30.404417
1606.000000	30.329940
1605.000000	30.252242
1604.000000	30.186924
1603.000000	30.114661
1602.000000	30.032736
1601.000000	29.966209
1600.000000	29.898375
1599.000000	29.834566
1598.000000	29.758881
1597.000000	29.699702
1596.000000	29.655015
1595.000000	29.603787
1594.000000	29.541186
1593.000000	29.484322
1592.000000	29.440239
1591.000000	29.401592
1590.000000	29.360528
1589.000000	29.314332
1588.000000	29.266425
1587.000000	29.233515
1586.000000	29.189030
1585.000000	29.152596
1584.000000	29.124919
1583.000000	29.102274
1582.000000	29.091706
1581.000000	29.072583
1580.000000	29.062016
1579.000000	29.052857
1578.000000	29.033835
1577.000000	29.034338
1576.000000	29.033231
1575.000000	29.039572
1574.000000	29.058493
1573.000000	29.065337
1572.000000	29.073389
1571.000000	29.085466
1570.000000	29.102777
1569.000000	29.137097
1568.000000	29.165579
1567.000000	29.184601
1566.000000	29.215298
1565.000000	29.231804
1564.000000	29.251832
1563.000000	29.273269
1562.000000	29.301148
1561.000000	29.326007
1560.000000	29.344627
1559.000000	29.365863
1558.000000	29.375927
1557.000000	29.382368
1556.000000	29.380054
1555.000000	29.376229
1554.000000	29.372807
1553.000000	29.353584
1552.000000	29.331040
1551.000000	29.324095
1550.000000	29.320975
1549.000000	29.299638
1548.000000	29.272967
1547.000000	29.261595
1546.000000	29.256562
1545.000000	29.241063
1544.000000	29.223953
1543.000000	29.217613
1542.000000	29.199597
1541.000000	29.195571
1540.000000	29.192552
1539.000000	29.185306
1538.000000	29.177556
1537.000000	29.179670
1536.000000	29.175241
1535.000000	29.157830
1534.000000	29.157830
1533.000000	29.148973
1532.000000	29.127536
1531.000000	29.105192
1530.000000	29.084460
1529.000000	29.066545
1528.000000	29.061110
1527.000000	29.029809
1526.000000	29.001629
1525.000000	28.976367
1524.000000	28.951306
1523.000000	28.924434
1522.000000	28.903500
1521.000000	28.878339
1520.000000	28.845126
1519.000000	28.812819
1518.000000	28.789369
1517.000000	28.766824
1516.000000	28.726969
1515.000000	28.699593
1514.000000	28.668696
1513.000000	28.633570
1512.000000	28.600660
1511.000000	28.573284
1510.000000	28.529000
1509.000000	28.509173
1508.000000	28.479081
1507.000000	28.434092
1506.000000	28.399672
1505.000000	28.373806
1504.000000	28.337876
1503.000000	28.306173
1502.000000	28.276784
1501.000000	28.245987
1500.000000	28.241156
1499.000000	28.220826
1498.000000	28.213378
1497.000000	28.203515
1496.000000	28.192243
1495.000000	28.200596
1494.000000	28.186808
1493.000000	28.188418
1492.000000	28.220423
1491.000000	28.210359
1490.000000	28.239747
1489.000000	28.255951
1488.000000	28.252328
1487.000000	28.263399
1486.000000	28.280508
1485.000000	28.305569
1484.000000	28.309393
1483.000000	28.334051
1482.000000	28.369881
1481.000000	28.390010
1480.000000	28.424531
1479.000000	28.471935
1478.000000	28.512092
1477.000000	28.527491
1476.000000	28.556577
1475.000000	28.635583
1474.000000	28.686409
1473.000000	28.734719
1472.000000	28.781015
1471.000000	28.841805
1470.000000	28.881761
1469.000000	28.902896
1468.000000	28.951810
1467.000000	29.015518
1466.000000	29.058292
1465.000000	29.126026
1464.000000	29.194062
1463.000000	29.263507
1462.000000	29.336172
1461.000000	29.415984
1460.000000	29.487039
1459.000000	29.564536
1458.000000	29.667999
1457.000000	29.757371
1456.000000	29.858721
1455.000000	29.956648
1454.000000	30.060312
1453.000000	30.156227
1452.000000	30.308402
1451.000000	30.425452
1450.000000	30.526399
1449.000000	30.607217
1448.000000	30.733627
1447.000000	30.864767
1446.000000	31.029925
1445.000000	31.139427
1444.000000	31.243192
1443.000000	31.374433
1442.000000	31.524092
1441.000000	31.634197
1440.000000	31.769061
1439.000000	31.896679
1438.000000	32.055497
1437.000000	32.152518
1436.000000	32.265844
1435.000000	32.406747
1434.000000	32.557715
1433.000000	32.687748
1432.000000	32.798155
1431.000000	32.979115
1430.000000	33.104418
1429.000000	33.279439
1428.000000	33.439162
1427.000000	33.631998
1426.000000	33.842748
1425.000000	34.048567
1424.000000	34.291725
1423.000000	34.484863
1422.000000	34.699538
1421.000000	34.936960
1420.000000	35.199743
1419.000000	35.415425
1418.000000	35.600511
1417.000000	35.757517
1416.000000	36.024629
1415.000000	36.299188
1414.000000	36.500377
1413.000000	36.671071
1412.000000	36.850923
1411.000000	37.135849
1410.000000	37.451069
1409.000000	37.778366
1408.000000	38.119753
1407.000000	38.446648
1406.000000	38.832118
1405.000000	39.225740
1404.000000	39.570348
1403.000000	39.968197
1402.000000	40.353063
1401.000000	40.819552
1400.000000	41.123299
1399.000000	41.318751
1398.000000	41.509071
1397.000000	41.768936
1396.000000	42.043898
1395.000000	42.183190
1394.000000	42.277595
1393.000000	42.374113
1392.000000	42.550544
1391.000000	42.715199
1390.000000	42.873413
1389.000000	43.114357
1388.000000	43.374222
1387.000000	43.624827
1386.000000	43.950716
1385.000000	44.328134
1384.000000	44.742690
1383.000000	45.085688
1382.000000	45.381785
1381.000000	45.574822
1380.000000	45.651815
1379.000000	45.715121
1378.000000	45.760009
1377.000000	45.851193
1376.000000	45.978106
1375.000000	46.186844
1374.000000	46.478915
1373.000000	46.822617
1372.000000	47.201646
1371.000000	47.578561
1370.000000	47.904047
1369.000000	48.226513
1368.000000	48.535090
1367.000000	48.748860
1366.000000	48.969775
1365.000000	49.185155
1364.000000	49.349307
1363.000000	49.525536
1362.000000	49.692708
1361.000000	49.790937
1360.000000	49.805530
1359.000000	49.859275
1358.000000	49.978237
1357.000000	50.157083
1356.000000	50.491425
1355.000000	50.964758
1354.000000	51.520922
1353.000000	52.083527
1352.000000	52.743455
1351.000000	53.354672
1350.000000	53.906809
1349.000000	54.414865
1348.000000	54.880448
1347.000000	55.305572
1346.000000	55.663063
1345.000000	56.052961
1344.000000	56.447288
1343.000000	56.777604
1342.000000	57.087087
1341.000000	57.403313
1340.000000	57.703135
1339.000000	57.989469
1338.000000	58.244805
1337.000000	58.511816
1336.000000	58.758698
1335.000000	58.986357
1334.000000	59.207172
1333.000000	59.420841
1332.000000	59.625452
1331.000000	59.807820
1330.000000	59.984955
1329.000000	60.152227
1328.000000	60.308025
1327.000000	60.448224
1326.000000	60.586912
1325.000000	60.719059
1324.000000	60.850300
1323.000000	60.968155
1322.000000	61.064170
1321.000000	61.169646
1320.000000	61.279349
1319.000000	61.385429
1318.000000	61.481545
1317.000000	61.569106
1316.000000	61.656566
1315.000000	61.735573
1314.000000	61.799180
1313.000000	61.864801
1312.000000	61.935051
1311.000000	61.992620
1310.000000	62.050490
1309.000000	62.096082
1308.000000	62.134026
1307.000000	62.169755
1306.000000	62.192500
1305.000000	62.214240
1304.000000	62.219372
1303.000000	62.226921
1302.000000	62.234067
1301.000000	62.226216
1300.000000	62.213938
1299.000000	62.208402
1298.000000	62.198640
1297.000000	62.184549
1296.000000	62.160093
1295.000000	62.145097
1294.000000	62.121848
1293.000000	62.092057
1292.000000	62.056227
1291.000000	62.006408
1290.000000	61.953670
1289.000000	61.896302
1288.000000	61.835815
1287.000000	61.767578
1286.000000	61.679715
1285.000000	61.595072
1284.000000	61.505196
1283.000000	61.416730
1282.000000	61.336214
1281.000000	61.246740
1280.000000	61.157972
1279.000000	61.070310
1278.000000	60.983856
1277.000000	60.901226
1276.000000	60.829970
1275.000000	60.760122
1274.000000	60.694200
1273.000000	60.626667
1272.000000	60.562758
1271.000000	60.504283
1270.000000	60.435844
1269.000000	60.362776
1268.000000	60.287494
1267.000000	60.227208
1266.000000	60.168028
1265.000000	60.109151
1264.000000	60.047053
1263.000000	59.980124
1262.000000	59.916517
1261.000000	59.855123
1260.000000	59.796951
1259.000000	59.722071
1258.000000	59.636623
1257.000000	59.572211
1256.000000	59.511924
1255.000000	59.420237
1254.000000	59.333078
1253.000000	59.252864
1252.000000	59.169329
1251.000000	59.053588
1250.000000	58.956969
1249.000000	58.853808
1248.000000	58.719245
1247.000000	58.601591
1246.000000	58.476289
1245.000000	58.312237
1244.000000	58.161572
1243.000000	57.999735
1242.000000	57.813743
1241.000000	57.639225
1240.000000	57.462996
1239.000000	57.291396
1238.000000	57.107820
1237.000000	56.897573
1236.000000	56.702221
1235.000000	56.508178
1234.000000	56.307995
1233.000000	56.109825
1232.000000	55.891627
1231.000000	55.679065
1230.000000	55.484821
1229.000000	55.271252
1228.000000	55.077813
1227.000000	54.861728
1226.000000	54.642020
1225.000000	54.446568
1224.000000	54.247090
1223.000000	54.064419
1222.000000	53.868464
1221.000000	53.682069
1220.000000	53.504733
1219.000000	53.344305
1218.000000	53.188608
1217.000000	53.042371
1216.000000	52.918577
1215.000000	52.759760
1214.000000	52.641502
1213.000000	52.515897
1212.000000	52.411730
1211.000000	52.303637
1210.000000	52.184876
1209.000000	52.077689
1208.000000	52.013880
1207.000000	51.957721
1206.000000	51.907398
1205.000000	51.872172
1204.000000	51.847213
1203.000000	51.832518
1202.000000	51.792864
1201.000000	51.747373
1200.000000	51.678230
1199.000000	51.583120
1198.000000	51.465567
1197.000000	51.307353
1196.000000	51.083318
1195.000000	50.788227
1194.000000	50.417653
1193.000000	50.008531
1192.000000	49.529461
1191.000000	49.011744
1190.000000	48.544551
1189.000000	48.164113
1188.000000	47.881200
1187.000000	47.732145
1186.000000	47.705072
1185.000000	47.832387
1184.000000	48.093762
1183.000000	48.475206
1182.000000	48.954377
1181.000000	49.476120
1180.000000	50.006518
1179.000000	50.493136
1178.000000	50.929432
1177.000000	51.293364
1176.000000	51.616534
1175.000000	51.934874
1174.000000	52.218492
1173.000000	52.554444
1172.000000	52.915558
1171.000000	53.276269
1170.000000	53.641610
1169.000000	53.998296
1168.000000	54.372997
1167.000000	54.763197
1166.000000	55.123707
1165.000000	55.500320
1164.000000	55.910850
1163.000000	56.329734
1162.000000	56.689339
1161.000000	57.052163
1160.000000	57.412975
1159.000000	57.768856
1158.000000	58.084277
1157.000000	58.392451
1156.000000	58.640944
1155.000000	58.807612
1154.000000	58.916006
1153.000000	58.963007
1152.000000	58.980016
1151.000000	58.931707
1150.000000	58.900104
1149.000000	58.864677
1148.000000	58.837100
1147.000000	58.887121
1146.000000	59.011115
1145.000000	59.199120
1144.000000	59.454959
1143.000000	59.774205
1142.000000	60.108447
1141.000000	60.465535
1140.000000	60.819201
1139.000000	61.194002
1138.000000	61.556425
1137.000000	61.987185
1136.000000	62.379700
1135.000000	62.758024
1134.000000	63.099713
1133.000000	63.353942
1132.000000	63.680636
1131.000000	63.944627
1130.000000	64.173393
1129.000000	64.379111
1128.000000	64.515284
1127.000000	64.636661
1126.000000	64.739923
1125.000000	64.810978
1124.000000	64.908704
1123.000000	64.962046
1122.000000	65.013878
1121.000000	65.039040
1120.000000	65.072957
1119.000000	65.106572
1118.000000	65.107377
1117.000000	65.087550
1116.000000	65.089463
1115.000000	65.083726
1114.000000	65.053633
1113.000000	65.045581
1112.000000	65.033806
1111.000000	65.028673
1110.000000	65.009349
1109.000000	64.987912
1108.000000	64.970098
1107.000000	64.941213
1106.000000	64.923197
1105.000000	64.910415
1104.000000	64.876699
1103.000000	64.856872
1102.000000	64.823559
1101.000000	64.776860
1100.000000	64.750591
1099.000000	64.715768
1098.000000	64.679234
1097.000000	64.629113
1096.000000	64.586741
1095.000000	64.529374
1094.000000	64.480460
1093.000000	64.420174
1092.000000	64.355761
1091.000000	64.296079
1090.000000	64.216167
1089.000000	64.158095
1088.000000	64.090361
1087.000000	64.011355
1086.000000	63.953484
1085.000000	63.881321
1084.000000	63.809260
1083.000000	63.718981
1082.000000	63.653864
1081.000000	63.578984
1080.000000	63.508734
1079.000000	63.442007
1078.000000	63.376587
1077.000000	63.309457
1076.000000	63.227130
1075.000000	63.173889
1074.000000	63.111992
1073.000000	63.030268
1072.000000	62.966963
1071.000000	62.904764
1070.000000	62.830186
1069.000000	62.768290
1068.000000	62.706091
1067.000000	62.644798
1066.000000	62.584613
1065.000000	62.531070
1064.000000	62.475614
1063.000000	62.422776
1062.000000	62.360275
1061.000000	62.308544
1060.000000	62.248962
1059.000000	62.178209
1058.000000	62.132315
1057.000000	62.087729
1056.000000	62.005703
1055.000000	61.951255
1054.000000	61.930220
1053.000000	61.895497
1052.000000	61.844571
1051.000000	61.812566
1050.000000	61.794953
1049.000000	61.767678
1048.000000	61.746342
1047.000000	61.727320
1046.000000	61.715343
1045.000000	61.705782
1044.000000	61.696019
1043.000000	61.681224
1042.000000	61.668442
1041.000000	61.657472
1040.000000	61.637645
1039.000000	61.621240
1038.000000	61.610370
1037.000000	61.599098
1036.000000	61.564376
1035.000000	61.538510
1034.000000	61.529653
1033.000000	61.499862
1032.000000	61.462523
1031.000000	61.430317
1030.000000	61.399721
1029.000000	61.360670
1028.000000	61.323432
1027.000000	61.282268
1026.000000	61.223592
1025.000000	61.161897
1024.000000	61.103825
1023.000000	61.056220
1022.000000	61.013647
1021.000000	60.967149
1020.000000	60.902635
1019.000000	60.833794
1018.000000	60.772502
1017.000000	60.733955
1016.000000	60.698830
1015.000000	60.665717
1014.000000	60.633008
1013.000000	60.595870
1012.000000	60.594461
1011.000000	60.599795
1010.000000	60.608149
1009.000000	60.637939
1008.000000	60.660182
1007.000000	60.673769
1006.000000	60.707586
1005.000000	60.732747
1004.000000	60.759518
1003.000000	60.801890
1002.000000	60.834096
1001.000000	60.856439
1000.000000	60.900623
999.000000	60.940579
998.000000	60.986674
997.000000	61.051590
996.000000	61.108555
995.000000	61.159884
994.000000	61.219969
993.000000	61.297063
992.000000	61.386838
991.000000	61.457390
990.000000	61.546662
989.000000	61.634928
988.000000	61.735069
987.000000	61.839539
986.000000	61.962527
985.000000	62.070921
984.000000	62.204578
983.000000	62.333806
982.000000	62.467663
981.000000	62.587230
980.000000	62.697939
979.000000	62.825154
978.000000	62.962434
977.000000	63.068111
976.000000	63.173788
975.000000	63.304526
974.000000	63.418456
973.000000	63.530071
972.000000	63.636754
971.000000	63.758736
970.000000	63.870351
969.000000	63.998371
968.000000	64.105357
967.000000	64.224521
966.000000	64.346200
965.000000	64.459526
964.000000	64.567116
963.000000	64.685877
962.000000	64.810576
961.000000	64.949566
960.000000	65.058263
959.000000	65.171186
958.000000	65.298804
957.000000	65.408910
956.000000	65.516600
955.000000	65.597115
954.000000	65.710643
953.000000	65.787737
952.000000	65.879324
951.000000	65.979465
950.000000	66.038443
949.000000	66.126407
948.000000	66.217491
947.000000	66.306964
946.000000	66.395934
945.000000	66.489534
944.000000	66.576591
943.000000	66.672909
942.000000	66.794488
941.000000	66.894730
940.000000	67.004634
939.000000	67.134969
938.000000	67.269028
937.000000	67.396344
936.000000	67.505141
935.000000	67.618266
934.000000	67.753432
933.000000	67.913558
932.000000	68.047416
931.000000	68.187514
930.000000	68.320365
929.000000	68.477069
928.000000	68.634679
927.000000	68.824797
926.000000	68.986332
925.000000	69.179872
924.000000	69.367776
923.000000	69.572387
922.000000	69.780621
921.000000	69.979093
920.000000	70.165186
919.000000	70.387611
918.000000	70.597959
917.000000	70.790895
916.000000	70.994298
915.000000	71.189449
914.000000	71.380473
913.000000	71.587298
912.000000	71.781744
911.000000	71.986355
910.000000	72.203546
909.000000	72.407554
908.000000	72.634709
907.000000	72.826538
906.000000	73.046145
905.000000	73.270181
904.000000	73.491298
903.000000	73.725096
902.000000	73.959296
901.000000	74.179205
900.000000	74.410789
899.000000	74.614696
898.000000	74.818602
897.000000	75.020093
896.000000	75.214741
895.000000	75.419251
894.000000	75.633222
893.000000	75.825856
892.000000	76.013962
891.000000	76.209515
890.000000	76.395406
889.000000	76.586229
888.000000	76.766685
887.000000	76.938788
886.000000	77.127295
885.000000	77.339153
884.000000	77.525447
883.000000	77.716370
882.000000	77.886661
881.000000	78.076276
880.000000	78.278874
879.000000	78.448058
878.000000	78.631232
877.000000	78.819539
876.000000	78.993654
875.000000	79.183269
874.000000	79.354869
873.000000	79.529789
872.000000	79.709642
871.000000	79.869567
870.000000	80.033920
869.000000	80.179855
868.000000	80.332936
867.000000	80.499000
866.000000	80.624504
865.000000	80.758362
864.000000	80.881551
863.000000	80.985215
862.000000	81.044696
861.000000	81.078110
860.000000	81.107801
859.000000	81.157318
858.000000	81.107700
857.000000	80.523800
856.000000	81.305900
855.000000	81.493400
854.000000	81.436600
853.000000	81.613100
852.000000	81.714300
851.000000	81.987100
850.000000	81.975600
849.000000	82.091400
848.000000	82.241400
847.000000	82.411100
846.000000	82.560900
845.000000	82.726900
844.000000	83.144400
843.000000	83.114600
842.000000	83.276500
841.000000	83.168400
840.000000	83.289300
839.000000	83.327000
838.000000	83.716400
837.000000	83.862900
836.000000	84.094900
835.000000	84.086500
834.000000	84.037100
833.000000	84.162400
832.000000	84.385700
831.000000	84.316100
830.000000	84.573500
829.000000	84.429500
828.000000	84.679900
827.000000	84.581000
826.000000	84.654800
825.000000	84.622800
824.000000	84.486800
823.000000	84.543400
822.000000	84.539600
821.000000	84.564100
820.000000	84.503900
819.000000	84.394100
818.000000	84.292600
817.000000	84.089800
816.000000	83.785300
815.000000	83.740800
814.000000	83.564000
813.000000	83.360700
812.000000	83.268800
811.000000	83.123100
810.000000	82.822600
809.000000	82.534100
808.000000	82.490600
807.000000	82.376700
806.000000	82.122900
805.000000	81.906800
804.000000	81.829100
803.000000	81.605500
802.000000	81.546000
801.000000	81.392900
800.000000	81.460700
799.000000	81.409100
798.000000	81.253800
797.000000	81.266600
796.000000	81.220600
795.000000	81.088700
794.000000	81.125500
793.000000	81.095300
792.000000	81.124600
791.000000	81.043500
790.000000	80.986500
789.000000	80.886900
788.000000	80.927900
787.000000	81.024100
786.000000	80.992500
785.000000	81.042600
784.000000	80.995500
783.000000	81.016500
782.000000	81.061400
781.000000	81.066000
780.000000	81.139700
779.000000	81.143100
778.000000	81.071900
777.000000	81.094900
776.000000	81.063700
775.000000	80.951900
774.000000	80.891500
773.000000	80.899500
772.000000	80.853100
771.000000	80.827600
770.000000	80.759700
769.000000	80.583300
768.000000	80.416500
767.000000	80.332700
766.000000	80.309500
765.000000	80.236700
764.000000	80.099600
763.000000	79.973600
762.000000	79.922100
761.000000	79.796800
760.000000	79.623600
759.000000	79.513900
758.000000	79.361500
757.000000	79.223000
756.000000	79.077900
755.000000	78.864200
754.000000	78.696700
753.000000	78.497900
752.000000	78.237500
751.000000	78.022100
750.000000	77.846200
749.000000	77.612900
748.000000	77.387700
747.000000	77.146100
746.000000	76.870100
745.000000	76.628100
744.000000	76.334200
743.000000	75.990400
742.000000	75.632800
741.000000	75.343600
740.000000	75.040800
739.000000	74.631100
738.000000	74.255000
737.000000	73.910100
736.000000	73.489800
735.000000	73.031600
734.000000	72.683000
733.000000	72.344100
732.000000	71.898100
731.000000	71.446800
730.000000	71.044200
729.000000	70.650700
728.000000	70.333500
727.000000	69.979900
726.000000	69.643600
725.000000	69.324000
724.000000	69.001200
723.000000	68.691300
722.000000	68.435000
721.000000	68.198800
720.000000	68.055600
719.000000	67.896700
718.000000	67.731400
717.000000	67.597700
716.000000	67.441200
715.000000	67.382400
714.000000	67.396200
713.000000	67.398400
712.000000	67.381700
711.000000	67.373000
710.000000	67.461700
709.000000	67.527100
708.000000	67.610300
707.000000	67.690500
706.000000	67.777400
705.000000	67.874600
704.000000	67.985200
703.000000	68.106600
702.000000	68.179500
701.000000	68.305900
700.000000	68.414900
699.000000	68.441700
698.000000	68.565000
697.000000	68.618400
696.000000	68.669200
695.000000	68.760300
694.000000	68.724200
693.000000	68.772400
692.000000	68.758600
691.000000	68.690500
690.000000	68.686700
689.000000	68.649600
688.000000	68.563900
687.000000	68.479100
686.000000	68.346300
685.000000	68.228900
684.000000	68.122000
683.000000	67.928700
682.000000	67.742100
681.000000	67.508800
680.000000	67.208100
679.000000	66.973600
678.000000	66.643100
677.000000	66.232300
676.000000	65.838300
675.000000	65.378900
674.000000	64.859300
673.000000	64.360300
672.000000	63.718900
671.000000	63.086600
670.000000	62.399400
669.000000	61.707600
668.000000	61.011200
667.000000	60.279200
666.000000	59.509000
665.000000	58.779800
664.000000	57.990200
663.000000	57.247300
662.000000	56.498700
661.000000	55.827500
660.000000	55.132900
659.000000	54.539700
658.000000	53.964700
657.000000	53.419800
656.000000	52.989900
655.000000	52.588600
654.000000	52.262600
653.000000	52.062300
652.000000	51.909700
651.000000	51.846200
650.000000	51.883200
649.000000	52.005000
648.000000	52.270600
647.000000	52.632300
646.000000	53.128900
645.000000	53.668800
644.000000	54.394600
643.000000	55.191000
642.000000	56.066600
641.000000	57.018700
640.000000	58.089900
639.000000	59.141500
638.000000	60.282100
637.000000	61.343500
636.000000	62.477500
635.000000	63.605300
634.000000	64.744900
633.000000	65.875700
632.000000	66.943500
631.000000	68.062000
630.000000	69.196000
629.000000	70.300900
628.000000	71.368900
627.000000	72.381200
626.000000	73.431200
625.000000	74.490800
624.000000	75.460400
623.000000	76.454100
622.000000	77.386500
621.000000	78.310800
620.000000	79.176200
619.000000	80.030500
618.000000	80.830000
617.000000	81.568100
616.000000	82.286000
615.000000	82.928600
614.000000	83.537100
613.000000	84.141800
612.000000	84.693100
611.000000	85.182000
610.000000	85.631600
609.000000	86.040600
608.000000	86.511800
607.000000	86.893000
606.000000	87.236700
605.000000	87.605600
604.000000	87.869100
603.000000	88.165300
602.000000	88.447500
601.000000	88.771200
600.000000	89.000500
599.000000	89.239900
598.000000	89.398600
597.000000	89.592900
596.000000	89.727300
595.000000	89.874000
594.000000	90.010800
593.000000	90.062400
592.000000	90.131100
591.000000	90.206000
590.000000	90.247500
589.000000	90.290900
588.000000	90.298200
587.000000	90.309900
586.000000	90.324600
585.000000	90.331100
584.000000	90.329600
583.000000	90.275000
582.000000	90.214800
581.000000	90.103500
580.000000	90.065400
579.000000	89.987300
578.000000	89.900900
577.000000	89.775400
576.000000	89.639500
575.000000	89.502500
574.000000	89.349700
573.000000	89.151300
572.000000	88.991800
571.000000	88.805800
570.000000	88.598000
569.000000	88.375300
568.000000	88.142000
567.000000	87.930700
566.000000	87.616200
565.000000	87.338500
564.000000	87.048500
563.000000	86.732600
562.000000	86.394900
561.000000	86.014300
560.000000	85.657200
559.000000	85.129300
558.000000	84.626100
557.000000	84.168000
556.000000	83.681800
555.000000	83.142900
554.000000	82.523500
553.000000	81.896600
552.000000	81.208300
551.000000	80.475800
550.000000	79.707400
549.000000	78.842900
548.000000	78.032500
547.000000	77.121500
546.000000	76.118100
545.000000	75.108600
544.000000	74.028900
543.000000	72.803700
542.000000	71.589000
541.000000	70.295700
540.000000	68.950600
539.000000	67.545500
538.000000	66.159700
537.000000	64.689900
536.000000	63.253700
535.000000	61.792700
534.000000	60.288400
533.000000	58.765400
532.000000	57.309500
531.000000	55.888500
530.000000	54.527300
529.000000	53.192300
528.000000	51.922600
527.000000	50.711800
526.000000	49.582900
525.000000	48.482900
524.000000	47.427800
523.000000	46.411700
522.000000	45.459200
521.000000	44.546800
520.000000	43.670900
519.000000	42.861500
518.000000	42.125100
517.000000	41.392700
516.000000	40.701600
515.000000	40.038800
514.000000	39.411200
513.000000	38.812400
512.000000	38.201900
511.000000	37.641000
510.000000	37.096600
509.000000	36.548800
508.000000	36.001700
507.000000	35.504200
506.000000	35.005100
505.000000	34.497600
504.000000	34.039600
503.000000	33.587800
502.000000	33.159000
501.000000	32.775400
500.000000	32.416000
499.000000	32.085500
498.000000	31.789000
497.000000	31.503400
496.000000	31.226800
495.000000	31.000200
494.000000	30.795400
493.000000	30.608700
492.000000	30.428200
491.000000	30.261200
490.000000	30.128900
489.000000	30.012700
488.000000	29.942200
487.000000	29.893700
486.000000	29.840900
485.000000	29.806700
484.000000	29.788600
483.000000	29.769300
482.000000	29.748200
481.000000	29.717200
480.000000	29.721500
479.000000	29.738700
478.000000	29.710100
477.000000	29.685300
476.000000	29.678900
475.000000	29.677200
474.000000	29.682100
473.000000	29.663300
472.000000	29.640900
471.000000	29.615100
470.000000	29.585600
469.000000	29.557500
468.000000	29.514100
467.000000	29.446000
466.000000	29.359000
465.000000	29.285500
464.000000	29.205300
463.000000	29.079600
462.000000	28.963900
461.000000	28.830700
460.000000	28.699600
459.000000	28.544500
458.000000	28.374000
457.000000	28.195100
456.000000	27.978300
455.000000	27.779400
454.000000	27.584000
453.000000	27.350400
452.000000	27.076400
451.000000	26.811700
450.000000	26.529500
449.000000	26.238100
448.000000	25.930900
447.000000	25.602700
446.000000	25.265100
445.000000	24.899400
444.000000	24.505800
443.000000	24.127300
442.000000	23.710000
441.000000	23.275400
440.000000	22.833500
439.000000	22.377100
438.000000	21.915300
437.000000	21.436400
436.000000	20.956600
435.000000	20.468300
434.000000	19.961800
433.000000	19.442500
432.000000	18.906100
431.000000	18.370600
430.000000	17.859500
429.000000	17.334300
428.000000	16.815000
427.000000	16.304600
426.000000	15.806400
425.000000	15.303000
424.000000	14.808300
423.000000	14.329500
422.000000	13.864100
421.000000	13.403100
420.000000	12.962100
419.000000	12.542500
418.000000	12.140400
417.000000	11.766900
416.000000	11.404100
415.000000	11.053100
414.000000	10.724400
413.000000	10.398500
412.000000	10.094400
411.000000	9.822700
410.000000	9.569100
409.000000	9.330400
408.000000	9.091400
407.000000	8.884400
406.000000	8.694200
405.000000	8.515100
404.000000	8.341400
403.000000	8.176700
402.000000	8.017300
401.000000	7.889600
400.000000	7.765300
399.000000	7.656000
398.000000	7.560100
397.000000	7.454300
396.000000	7.369500
395.000000	7.279200
394.000000	7.186400
393.000000	7.112100
392.000000	7.041800
391.000000	6.970800
390.000000	6.903600
389.000000	6.854700
388.000000	6.787800
387.000000	6.745700
386.000000	6.702500
385.000000	6.644400
384.000000	6.600800
383.000000	6.544300
382.000000	6.504100
381.000000	6.460700
380.000000	6.418500
379.000000	6.387400
378.000000	6.347300
377.000000	6.306400
376.000000	6.262800
375.000000	6.179400
374.000000	6.175500
373.000000	6.202100
372.000000	6.123100
371.000000	6.093300
370.000000	6.080700
369.000000	6.069700
368.000000	6.065400
367.000000	5.980700
366.000000	5.953700
365.000000	5.976900
364.000000	6.018800
363.000000	5.937700
362.000000	5.835700
361.000000	5.845400
360.000000	5.840200
359.000000	5.834000
358.000000	5.761400
357.000000	5.765000
356.000000	5.651700
355.000000	5.695200
354.000000	5.668000
353.000000	5.722500
352.000000	5.673400
351.000000	5.606000
350.000000	5.571000
349.000000	5.503500
348.000000	5.570700
347.000000	5.588700
346.000000	5.741400
345.000000	5.581100
344.000000	5.510900
343.000000	5.640500
342.000000	5.470100
341.000000	5.360400
340.000000	5.558700
339.000000	5.584100
338.000000	5.601100
337.000000	5.602200
336.000000	5.516200
335.000000	5.763600
334.000000	5.600500
333.000000	5.671900
332.000000	5.536000
331.000000	5.479400
330.000000	5.369000
329.000000	5.563300
328.000000	5.695600
327.000000	5.566300
326.000000	5.671500
325.000000	5.673700
324.000000	5.628900
323.000000	5.745700
322.000000	5.559500
321.000000	5.891000
320.000000	5.734900
319.000000	5.537800
318.000000	5.834100
317.000000	6.157400
316.000000	5.537800
315.000000	5.480900
314.000000	5.467200
313.000000	5.466200
312.000000	5.463400
311.000000	5.474800
310.000000	5.456000
309.000000	5.499700
308.000000	5.498500
307.000000	5.502800
306.000000	5.490100
305.000000	5.496500
304.000000	5.511400
303.000000	5.534200
302.000000	5.489300
301.000000	5.495100
300.000000	5.557300
299.000000	5.490800
298.000000	5.479900
297.000000	5.562200
296.000000	5.533900
295.000000	5.560000
294.000000	5.530500
293.000000	5.537000
292.000000	5.497700
291.000000	5.533400
290.000000	5.584200
289.000000	5.596700
288.000000	5.535800
287.000000	5.547100
286.000000	5.601700
285.000000	5.601700
284.000000	5.649100
283.000000	5.640900
282.000000	5.603100
281.000000	5.644100
280.000000	5.642800
279.000000	5.655800
278.000000	5.655500
277.000000	5.683100
276.000000	5.632300
275.000000	5.665800
274.000000	5.701200
273.000000	5.749900
272.000000	5.743500
271.000000	5.757800
270.000000	5.786200
269.000000	5.765200
268.000000	5.834300
267.000000	5.854000
266.000000	5.831000
265.000000	5.905200
264.000000	5.928500
263.000000	5.892700
262.000000	5.936100
261.000000	5.998300
260.000000	5.970500
259.000000	5.989300
258.000000	5.958300
257.000000	6.046000
256.000000	5.993100
255.000000	6.058500
254.000000	6.029700
253.000000	6.077700
252.000000	6.118200
251.000000	6.116900
250.000000	6.068600
