PE UV       SUBTECH     SPECTRUM    ASCII       PEDS        4.00        
   -1
CICIMAUCR0141-1.Sample.ASC
24/04/19
14:36:41.00
24/04/19
14:36:41.00
Vinicio Soto Monge
C. kalinini
250,000000
1
Lambda 1050
1050L1511233
PerkinElmer UV WinLab 6.3.2.0749 / 2.02.05 Lambda 900 UV/VIS/NIR, Aug  7 2015 09:38:08

0
0
3350/servo 860,8/2
0
0
UV/VIS
1
1
1
DoubleDePol,CommonBeamDepol,RBeamAtt,SBeamAtt,60mm sphere, WB InGaAs Detector
0
0
0
0
Program
Program
3350/servo 860,8/2
3350/0,2 860,8/0,2
3350/0,2 860,8/0,2
0
15.00
 
 
 
0
 
860,8
319,2
860,8
Front
100
on
S:100 R:100
0
0
0
0
 
0
 
 
 
0
 
 
0
0
0
0
0
 
 
 
 
0
0


0
0
#HDR
-1
-1
#GR
nm
%R
1.0
0.0
2500,000000
-1,000000
2251
8
97,649500
5,759200
#DATA
2500.000000	11.574972
2499.000000	11.477840
2498.000000	11.521134
2497.000000	11.544555
2496.000000	11.478955
2495.000000	11.350087
2494.000000	11.525696
2493.000000	11.440021
2492.000000	11.499537
2491.000000	11.494975
2490.000000	11.478043
2489.000000	11.419236
2488.000000	11.382532
2487.000000	11.431504
2486.000000	11.401898
2485.000000	11.375435
2484.000000	11.364992
2483.000000	11.426637
2482.000000	11.427246
2481.000000	11.464152
2480.000000	11.478854
2479.000000	11.508764
2478.000000	11.479259
2477.000000	11.522756
2476.000000	11.574262
2475.000000	11.577203
2474.000000	11.613805
2473.000000	11.674943
2472.000000	11.682446
2471.000000	11.750784
2470.000000	11.786270
2469.000000	11.795903
2468.000000	11.835851
2467.000000	11.918687
2466.000000	11.908649
2465.000000	11.953768
2464.000000	12.043093
2463.000000	12.086590
2462.000000	12.155536
2461.000000	12.225495
2460.000000	12.295455
2459.000000	12.353045
2458.000000	12.411649
2457.000000	12.507767
2456.000000	12.567486
2455.000000	12.669688
2454.000000	12.755465
2453.000000	12.830190
2452.000000	12.939793
2451.000000	13.048281
2450.000000	13.143589
2449.000000	13.233725
2448.000000	13.351845
2447.000000	13.447964
2446.000000	13.568112
2445.000000	13.673254
2444.000000	13.786305
2443.000000	13.904628
2442.000000	14.017070
2441.000000	14.140463
2440.000000	14.224313
2439.000000	14.357844
2438.000000	14.460857
2437.000000	14.604934
2436.000000	14.696794
2435.000000	14.808628
2434.000000	14.912148
2433.000000	15.033107
2432.000000	15.134903
2431.000000	15.237916
2430.000000	15.341436
2429.000000	15.447491
2428.000000	15.547462
2427.000000	15.640944
2426.000000	15.736556
2425.000000	15.796072
2424.000000	15.825780
2423.000000	15.870696
2422.000000	15.909123
2421.000000	15.970667
2420.000000	16.045291
2419.000000	16.128228
2418.000000	16.190178
2417.000000	16.238136
2416.000000	16.287311
2415.000000	16.324217
2414.000000	16.366091
2413.000000	16.430576
2412.000000	16.462108
2411.000000	16.488571
2410.000000	16.519090
2409.000000	16.562282
2408.000000	16.583270
2407.000000	16.589354
2406.000000	16.606387
2405.000000	16.656576
2404.000000	16.688818
2403.000000	16.682734
2402.000000	16.678375
2401.000000	16.712341
2400.000000	16.746915
2399.000000	16.758676
2398.000000	16.754418
2397.000000	16.768004
2396.000000	16.781489
2395.000000	16.795380
2394.000000	16.812819
2393.000000	16.810690
2392.000000	16.798219
2391.000000	16.815556
2390.000000	16.827825
2389.000000	16.820829
2388.000000	16.825797
2387.000000	16.816874
2386.000000	16.799030
2385.000000	16.795785
2384.000000	16.797914
2383.000000	16.789803
2382.000000	16.776014
2381.000000	16.745293
2380.000000	16.725521
2379.000000	16.709299
2378.000000	16.696422
2377.000000	16.678679
2376.000000	16.649276
2375.000000	16.622813
2374.000000	16.614296
2373.000000	16.587529
2372.000000	16.558024
2371.000000	16.542410
2370.000000	16.523551
2369.000000	16.503881
2368.000000	16.486949
2367.000000	16.486442
2366.000000	16.467279
2365.000000	16.451868
2364.000000	16.441222
2363.000000	16.436760
2362.000000	16.428852
2361.000000	16.407357
2360.000000	16.395494
2359.000000	16.387992
2358.000000	16.371262
2357.000000	16.340439
2356.000000	16.315497
2355.000000	16.295016
2354.000000	16.257096
2353.000000	16.224448
2352.000000	16.207212
2351.000000	16.161485
2350.000000	16.131777
2349.000000	16.112513
2348.000000	16.076114
2347.000000	16.035354
2346.000000	16.009500
2345.000000	16.002504
2344.000000	15.961339
2343.000000	15.922202
2342.000000	15.907805
2341.000000	15.883674
2340.000000	15.865829
2339.000000	15.857819
2338.000000	15.830241
2337.000000	15.815032
2336.000000	15.800027
2335.000000	15.782891
2334.000000	15.785325
2333.000000	15.787251
2332.000000	15.788772
2331.000000	15.798201
2330.000000	15.809456
2329.000000	15.812092
2328.000000	15.811686
2327.000000	15.836527
2326.000000	15.857008
2325.000000	15.872724
2324.000000	15.886817
2323.000000	15.891582
2322.000000	15.905067
2321.000000	15.913584
2320.000000	15.906385
2319.000000	15.902837
2318.000000	15.883167
2317.000000	15.873636
2316.000000	15.849911
2315.000000	15.808341
2314.000000	15.779140
2313.000000	15.762309
2312.000000	15.719421
2311.000000	15.666495
2310.000000	15.626851
2309.000000	15.595217
2308.000000	15.548172
2307.000000	15.516031
2306.000000	15.481051
2305.000000	15.463511
2304.000000	15.442523
2303.000000	15.405616
2302.000000	15.390813
2301.000000	15.372158
2300.000000	15.370332
2299.000000	15.365973
2298.000000	15.363945
2297.000000	15.368609
2296.000000	15.364756
2295.000000	15.381587
2294.000000	15.397505
2293.000000	15.428531
2292.000000	15.433296
2291.000000	15.456717
2290.000000	15.480848
2289.000000	15.505588
2288.000000	15.534180
2287.000000	15.557196
2286.000000	15.596941
2285.000000	15.640944
2284.000000	15.665684
2283.000000	15.684948
2282.000000	15.720536
2281.000000	15.775693
2280.000000	15.794957
2279.000000	15.802359
2278.000000	15.833688
2277.000000	15.861469
2276.000000	15.914699
2275.000000	15.927677
2274.000000	15.948260
2273.000000	15.960731
2272.000000	15.952113
2271.000000	15.979083
2270.000000	15.996319
2269.000000	16.040424
2268.000000	16.099433
2267.000000	16.131676
2266.000000	16.177808
2265.000000	16.232458
2264.000000	16.308400
2263.000000	16.389310
2262.000000	16.497798
2261.000000	16.580431
2260.000000	16.726333
2259.000000	16.832691
2258.000000	16.977275
2257.000000	17.138182
2256.000000	17.249914
2255.000000	17.407171
2254.000000	17.582882
2253.000000	17.762952
2252.000000	17.893442
2251.000000	18.051510
2250.000000	18.213025
2249.000000	18.380320
2248.000000	18.503408
2247.000000	18.658536
2246.000000	18.778988
2245.000000	18.907653
2244.000000	19.027396
2243.000000	19.123818
2242.000000	19.204931
2241.000000	19.268098
2240.000000	19.339578
2239.000000	19.423327
2238.000000	19.450094
2237.000000	19.484060
2236.000000	19.510320
2235.000000	19.544387
2234.000000	19.542866
2233.000000	19.529382
2232.000000	19.513666
2231.000000	19.502614
2230.000000	19.447255
2229.000000	19.443098
2228.000000	19.401325
2227.000000	19.336232
2226.000000	19.270531
2225.000000	19.229163
2224.000000	19.150890
2223.000000	19.080018
2222.000000	19.002251
2221.000000	18.926613
2220.000000	18.849354
2219.000000	18.770776
2218.000000	18.661477
2217.000000	18.588577
2216.000000	18.518414
2215.000000	18.449773
2214.000000	18.358014
2213.000000	18.272643
2212.000000	18.177741
2211.000000	18.097440
2210.000000	18.020180
2209.000000	17.963908
2208.000000	17.899829
2207.000000	17.816587
2206.000000	17.753015
2205.000000	17.720874
2204.000000	17.645744
2203.000000	17.578623
2202.000000	17.535025
2201.000000	17.467093
2200.000000	17.413863
2199.000000	17.379492
2198.000000	17.322409
2197.000000	17.278912
2196.000000	17.235618
2195.000000	17.189587
2194.000000	17.159271
2193.000000	17.107460
2192.000000	17.069743
2191.000000	17.038515
2190.000000	17.006881
2189.000000	16.995221
2188.000000	16.960545
2187.000000	16.925870
2186.000000	16.889369
2185.000000	16.851246
2184.000000	16.813630
2183.000000	16.781388
2182.000000	16.758068
2181.000000	16.727549
2180.000000	16.699667
2179.000000	16.672190
2178.000000	16.658097
2177.000000	16.636196
2176.000000	16.611051
2175.000000	16.598175
2174.000000	16.608009
2173.000000	16.579620
2172.000000	16.573131
2171.000000	16.591686
2170.000000	16.596552
2169.000000	16.613079
2168.000000	16.637311
2167.000000	16.638325
2166.000000	16.660834
2165.000000	16.698754
2164.000000	16.734748
2163.000000	16.764557
2162.000000	16.806735
2161.000000	16.863920
2160.000000	16.916643
2159.000000	16.962877
2158.000000	17.028883
2157.000000	17.109995
2156.000000	17.218889
2155.000000	17.292803
2154.000000	17.371178
2153.000000	17.459895
2152.000000	17.548105
2151.000000	17.670787
2150.000000	17.774105
2149.000000	17.862112
2148.000000	17.965835
2147.000000	18.061750
2146.000000	18.169427
2145.000000	18.270108
2144.000000	18.364706
2143.000000	18.460824
2142.000000	18.550150
2141.000000	18.643936
2140.000000	18.753032
2139.000000	18.833435
2138.000000	18.915156
2137.000000	19.006915
2136.000000	19.099079
2135.000000	19.178367
2134.000000	19.234334
2133.000000	19.303280
2132.000000	19.397878
2131.000000	19.456583
2130.000000	19.516403
2129.000000	19.583930
2128.000000	19.637464
2127.000000	19.699718
2126.000000	19.752036
2125.000000	19.800095
2124.000000	19.847647
2123.000000	19.882221
2122.000000	19.924299
2121.000000	19.966984
2120.000000	19.999835
2119.000000	20.033294
2118.000000	20.056816
2117.000000	20.078919
2116.000000	20.102543
2115.000000	20.120794
2114.000000	20.134583
2113.000000	20.132961
2112.000000	20.148879
2111.000000	20.152124
2110.000000	20.145330
2109.000000	20.158004
2108.000000	20.161350
2107.000000	20.156078
2106.000000	20.160945
2105.000000	20.169360
2104.000000	20.167332
2103.000000	20.171286
2102.000000	20.177268
2101.000000	20.171895
2100.000000	20.170171
2099.000000	20.179600
2098.000000	20.200386
2097.000000	20.199980
2096.000000	20.211234
2095.000000	20.240334
2094.000000	20.265377
2093.000000	20.290015
2092.000000	20.310901
2091.000000	20.329760
2090.000000	20.340812
2089.000000	20.357947
2088.000000	20.369201
2087.000000	20.385728
2086.000000	20.406310
2085.000000	20.403268
2084.000000	20.406310
2083.000000	20.395968
2082.000000	20.381165
2081.000000	20.351154
2080.000000	20.315565
2079.000000	20.284439
2078.000000	20.248141
2077.000000	20.186596
2076.000000	20.127993
2075.000000	20.060365
2074.000000	19.973980
2073.000000	19.887189
2072.000000	19.795836
2071.000000	19.697386
2070.000000	19.595488
2069.000000	19.486696
2068.000000	19.372327
2067.000000	19.258060
2066.000000	19.145820
2065.000000	19.034595
2064.000000	18.924788
2063.000000	18.800078
2062.000000	18.670399
2061.000000	18.563128
2060.000000	18.466604
2059.000000	18.386809
2058.000000	18.300019
2057.000000	18.223468
2056.000000	18.166892
2055.000000	18.137895
2054.000000	18.110316
2053.000000	18.118428
2052.000000	18.134447
2051.000000	18.152698
2050.000000	18.215256
2049.000000	18.282174
2048.000000	18.366227
2047.000000	18.477554
2046.000000	18.595370
2045.000000	18.702540
2044.000000	18.824209
2043.000000	18.946892
2042.000000	19.081640
2041.000000	19.224905
2040.000000	19.351238
2039.000000	19.472501
2038.000000	19.621748
2037.000000	19.729324
2036.000000	19.829194
2035.000000	19.958873
2034.000000	20.072228
2033.000000	20.162364
2032.000000	20.243071
2031.000000	20.334728
2030.000000	20.423648
2029.000000	20.520578
2028.000000	20.612133
2027.000000	20.668101
2026.000000	20.725894
2025.000000	20.803559
2024.000000	20.861960
2023.000000	20.918638
2022.000000	20.966798
2021.000000	21.023983
2020.000000	21.075895
2019.000000	21.114220
2018.000000	21.151431
2017.000000	21.192190
2016.000000	21.218349
2015.000000	21.237917
2014.000000	21.244305
2013.000000	21.245217
2012.000000	21.244913
2011.000000	21.256370
2010.000000	21.261136
2009.000000	21.232138
2008.000000	21.199997
2007.000000	21.172013
2006.000000	21.158021
2005.000000	21.117972
2004.000000	21.077618
2003.000000	21.023070
2002.000000	20.960715
2001.000000	20.894101
2000.000000	20.841479
1999.000000	20.781760
1998.000000	20.714437
1997.000000	20.635960
1996.000000	20.558903
1995.000000	20.461365
1994.000000	20.363726
1993.000000	20.297721
1992.000000	20.188928
1991.000000	20.110148
1990.000000	19.998922
1989.000000	19.910915
1988.000000	19.810031
1987.000000	19.701036
1986.000000	19.578252
1985.000000	19.470372
1984.000000	19.371212
1983.000000	19.268807
1982.000000	19.142272
1981.000000	19.041185
1980.000000	18.940098
1979.000000	18.823905
1978.000000	18.735086
1977.000000	18.634811
1976.000000	18.498542
1975.000000	18.444805
1974.000000	18.337229
1973.000000	18.229248
1972.000000	18.115893
1971.000000	18.031840
1970.000000	17.914429
1969.000000	17.813241
1968.000000	17.731216
1967.000000	17.622830
1966.000000	17.537966
1965.000000	17.461010
1964.000000	17.339138
1963.000000	17.250117
1962.000000	17.174987
1961.000000	17.074001
1960.000000	16.974740
1959.000000	16.865441
1958.000000	16.777535
1957.000000	16.690339
1956.000000	16.587630
1955.000000	16.515744
1954.000000	16.412224
1953.000000	16.312861
1952.000000	16.219581
1951.000000	16.130256
1950.000000	16.073376
1949.000000	15.983645
1948.000000	15.924940
1947.000000	15.832269
1946.000000	15.787251
1945.000000	15.733413
1944.000000	15.673288
1943.000000	15.621072
1942.000000	15.572303
1941.000000	15.532355
1940.000000	15.512786
1939.000000	15.503864
1938.000000	15.487439
1937.000000	15.460672
1936.000000	15.450837
1935.000000	15.451648
1934.000000	15.469188
1933.000000	15.480544
1932.000000	15.534281
1931.000000	15.587511
1930.000000	15.620666
1929.000000	15.724997
1928.000000	15.818175
1927.000000	15.879618
1926.000000	15.972796
1925.000000	16.070132
1924.000000	16.178214
1923.000000	16.287108
1922.000000	16.457647
1921.000000	16.629403
1920.000000	16.814847
1919.000000	16.977072
1918.000000	17.152478
1917.000000	17.326059
1916.000000	17.520121
1915.000000	17.765284
1914.000000	18.069659
1913.000000	18.379813
1912.000000	18.690779
1911.000000	18.993227
1910.000000	19.275296
1909.000000	19.556250
1908.000000	19.915072
1907.000000	20.346692
1906.000000	20.853849
1905.000000	21.398926
1904.000000	21.910239
1903.000000	22.385863
1902.000000	22.898901
1901.000000	23.448033
1900.000000	24.056175
1899.000000	24.719068
1898.000000	25.380338
1897.000000	26.004804
1896.000000	26.569043
1895.000000	27.155893
1894.000000	27.790397
1893.000000	28.465456
1892.000000	29.249105
1891.000000	29.991489
1890.000000	30.656713
1889.000000	31.279455
1888.000000	31.907673
1887.000000	32.495131
1886.000000	33.084312
1885.000000	33.682518
1884.000000	34.278696
1883.000000	34.818601
1882.000000	35.296963
1881.000000	35.770154
1880.000000	36.199645
1879.000000	36.619808
1878.000000	37.034091
1877.000000	37.425054
1876.000000	37.805979
1875.000000	38.192886
1874.000000	38.551505
1873.000000	38.887615
1872.000000	39.214094
1871.000000	39.463920
1870.000000	39.668527
1869.000000	39.873843
1868.000000	40.073076
1867.000000	40.188662
1866.000000	40.282651
1865.000000	40.389010
1864.000000	40.509563
1863.000000	40.629407
1862.000000	40.753814
1861.000000	40.908637
1860.000000	41.040952
1859.000000	41.143053
1858.000000	41.232986
1857.000000	41.302034
1856.000000	41.355264
1855.000000	41.413259
1854.000000	41.455843
1853.000000	41.461014
1852.000000	41.482712
1851.000000	41.515664
1850.000000	41.575991
1849.000000	41.635001
1848.000000	41.643619
1847.000000	41.638651
1846.000000	41.580960
1845.000000	41.522457
1844.000000	41.497515
1843.000000	41.512115
1842.000000	41.525499
1841.000000	41.508668
1840.000000	41.474297
1839.000000	41.426744
1838.000000	41.392170
1837.000000	41.354250
1836.000000	41.307205
1835.000000	41.229134
1834.000000	41.143053
1833.000000	41.092662
1832.000000	41.066807
1831.000000	41.041459
1830.000000	41.014692
1829.000000	40.983869
1828.000000	40.934999
1827.000000	40.911476
1826.000000	40.888258
1825.000000	40.863113
1824.000000	40.850236
1823.000000	40.893023
1822.000000	40.942908
1821.000000	40.964402
1820.000000	40.958724
1819.000000	40.911071
1818.000000	40.881972
1817.000000	40.880248
1816.000000	40.884405
1815.000000	40.865242
1814.000000	40.848716
1813.000000	40.838881
1812.000000	40.827626
1811.000000	40.780074
1810.000000	40.726337
1809.000000	40.690140
1808.000000	40.671890
1807.000000	40.650699
1806.000000	40.621499
1805.000000	40.571108
1804.000000	40.540893
1803.000000	40.529132
1802.000000	40.523353
1801.000000	40.496281
1800.000000	40.449946
1799.000000	40.417602
1798.000000	40.388706
1797.000000	40.364473
1796.000000	40.339531
1795.000000	40.306579
1794.000000	40.267138
1793.000000	40.247975
1792.000000	40.230637
1791.000000	40.210461
1790.000000	40.212793
1789.000000	40.214111
1788.000000	40.212488
1787.000000	40.224250
1786.000000	40.224655
1785.000000	40.216646
1784.000000	40.217862
1783.000000	40.214719
1782.000000	40.198699
1781.000000	40.189878
1780.000000	40.161489
1779.000000	40.127827
1778.000000	40.093152
1777.000000	40.049452
1776.000000	39.994600
1775.000000	39.952016
1774.000000	39.885706
1773.000000	39.824973
1772.000000	39.804289
1771.000000	39.751566
1770.000000	39.686372
1769.000000	39.646018
1768.000000	39.603029
1767.000000	39.555578
1766.000000	39.510053
1765.000000	39.480244
1764.000000	39.465036
1763.000000	39.457736
1762.000000	39.451754
1761.000000	39.433503
1760.000000	39.445366
1759.000000	39.471018
1758.000000	39.487342
1757.000000	39.477000
1756.000000	39.485821
1755.000000	39.501435
1754.000000	39.526276
1753.000000	39.526073
1752.000000	39.519888
1751.000000	39.510155
1750.000000	39.490383
1749.000000	39.453477
1748.000000	39.402174
1747.000000	39.357156
1746.000000	39.281417
1745.000000	39.189152
1744.000000	39.096683
1743.000000	38.995799
1742.000000	38.883458
1741.000000	38.764121
1740.000000	38.630286
1739.000000	38.533559
1738.000000	38.427301
1737.000000	38.339700
1736.000000	38.236281
1735.000000	38.133370
1734.000000	38.060368
1733.000000	37.960093
1732.000000	37.880704
1731.000000	37.780732
1730.000000	37.706514
1729.000000	37.632398
1728.000000	37.543884
1727.000000	37.457093
1726.000000	37.415827
1725.000000	37.380746
1724.000000	37.384903
1723.000000	37.405384
1722.000000	37.530297
1721.000000	37.719290
1720.000000	37.964858
1719.000000	38.222188
1718.000000	38.494422
1717.000000	38.801737
1716.000000	39.107329
1715.000000	39.390514
1714.000000	39.666296
1713.000000	39.927276
1712.000000	40.120831
1711.000000	40.331927
1710.000000	40.504088
1709.000000	40.679596
1708.000000	40.826308
1707.000000	40.914417
1706.000000	41.025338
1705.000000	41.134435
1704.000000	41.168603
1703.000000	41.229843
1702.000000	41.271312
1701.000000	41.282668
1700.000000	41.288042
1699.000000	41.298688
1698.000000	41.297471
1697.000000	41.271211
1696.000000	41.244951
1695.000000	41.155321
1694.000000	41.046427
1693.000000	40.915532
1692.000000	40.779060
1691.000000	40.658912
1690.000000	40.530247
1689.000000	40.477929
1688.000000	40.463532
1687.000000	40.488474
1686.000000	40.595543
1685.000000	40.803191
1684.000000	41.030104
1683.000000	41.279018
1682.000000	41.540403
1681.000000	41.824297
1680.000000	42.100283
1679.000000	42.328615
1678.000000	42.552182
1677.000000	42.776762
1676.000000	42.950242
1675.000000	43.133860
1674.000000	43.319608
1673.000000	43.516408
1672.000000	43.698607
1671.000000	43.906053
1670.000000	44.121407
1669.000000	44.332502
1668.000000	44.532647
1667.000000	44.730359
1666.000000	44.916716
1665.000000	45.116151
1664.000000	45.276551
1663.000000	45.464733
1662.000000	45.630912
1661.000000	45.762619
1660.000000	45.924337
1659.000000	46.047730
1658.000000	46.155914
1657.000000	46.251424
1656.000000	46.343892
1655.000000	46.405132
1654.000000	46.462114
1653.000000	46.499932
1652.000000	46.526091
1651.000000	46.559043
1650.000000	46.574556
1649.000000	46.589258
1648.000000	46.582262
1647.000000	46.592502
1646.000000	46.594834
1645.000000	46.578003
1644.000000	46.575367
1643.000000	46.570095
1642.000000	46.558333
1641.000000	46.548904
1640.000000	46.540083
1639.000000	46.528322
1638.000000	46.512505
1637.000000	46.505914
1636.000000	46.452583
1635.000000	46.435448
1634.000000	46.408782
1633.000000	46.372383
1632.000000	46.324729
1631.000000	46.277481
1630.000000	46.235302
1629.000000	46.182782
1628.000000	46.129957
1627.000000	46.083622
1626.000000	46.024004
1625.000000	45.963372
1624.000000	45.917747
1623.000000	45.878204
1622.000000	45.833288
1621.000000	45.779450
1620.000000	45.734331
1619.000000	45.691544
1618.000000	45.663459
1617.000000	45.616312
1616.000000	45.565211
1615.000000	45.509243
1614.000000	45.457838
1613.000000	45.390616
1612.000000	45.334446
1611.000000	45.267629
1610.000000	45.207809
1609.000000	45.131867
1608.000000	45.037878
1607.000000	44.958489
1606.000000	44.879302
1605.000000	44.782778
1604.000000	44.688079
1603.000000	44.592772
1602.000000	44.502027
1601.000000	44.414831
1600.000000	44.321045
1599.000000	44.227563
1598.000000	44.142597
1597.000000	44.054793
1596.000000	43.964656
1595.000000	43.890844
1594.000000	43.833254
1593.000000	43.775258
1592.000000	43.709861
1591.000000	43.637975
1590.000000	43.590018
1589.000000	43.524114
1588.000000	43.452532
1587.000000	43.403560
1586.000000	43.341509
1585.000000	43.287873
1584.000000	43.237583
1583.000000	43.182224
1582.000000	43.137004
1581.000000	43.088336
1580.000000	43.060656
1579.000000	43.035004
1578.000000	43.010265
1577.000000	42.989683
1576.000000	42.967580
1575.000000	42.955007
1574.000000	42.946288
1573.000000	42.952067
1572.000000	42.964639
1571.000000	42.965957
1570.000000	42.972953
1569.000000	42.995158
1568.000000	43.017768
1567.000000	43.038756
1566.000000	43.061265
1565.000000	43.075966
1564.000000	43.094622
1563.000000	43.093811
1562.000000	43.093101
1561.000000	43.089451
1560.000000	43.077994
1559.000000	43.054472
1558.000000	43.017768
1557.000000	42.977921
1556.000000	42.926618
1555.000000	42.869433
1554.000000	42.796229
1553.000000	42.733975
1552.000000	42.656107
1551.000000	42.555933
1550.000000	42.466811
1549.000000	42.368563
1548.000000	42.270113
1547.000000	42.190521
1546.000000	42.110726
1545.000000	42.028803
1544.000000	41.972429
1543.000000	41.922545
1542.000000	41.862218
1541.000000	41.816288
1540.000000	41.755352
1539.000000	41.707191
1538.000000	41.647269
1537.000000	41.599818
1536.000000	41.547399
1535.000000	41.486058
1534.000000	41.422790
1533.000000	41.352932
1532.000000	41.289563
1531.000000	41.209160
1530.000000	41.133117
1529.000000	41.068733
1528.000000	40.978597
1527.000000	40.891097
1526.000000	40.810491
1525.000000	40.738707
1524.000000	40.664184
1523.000000	40.566241
1522.000000	40.476104
1521.000000	40.395499
1520.000000	40.305261
1519.000000	40.210562
1518.000000	40.118601
1517.000000	40.029681
1516.000000	39.931028
1515.000000	39.823756
1514.000000	39.720034
1513.000000	39.622394
1512.000000	39.516035
1511.000000	39.414746
1510.000000	39.302608
1509.000000	39.212776
1508.000000	39.122132
1507.000000	39.017598
1506.000000	38.914991
1505.000000	38.829012
1504.000000	38.730967
1503.000000	38.639411
1502.000000	38.550998
1501.000000	38.473333
1500.000000	38.403373
1499.000000	38.348419
1498.000000	38.301475
1497.000000	38.250577
1496.000000	38.221985
1495.000000	38.197043
1494.000000	38.188526
1493.000000	38.173622
1492.000000	38.158109
1491.000000	38.159528
1490.000000	38.167437
1489.000000	38.174940
1488.000000	38.195421
1487.000000	38.211339
1486.000000	38.215090
1485.000000	38.222695
1484.000000	38.229488
1483.000000	38.260108
1482.000000	38.294986
1481.000000	38.293770
1480.000000	38.335036
1479.000000	38.370320
1478.000000	38.409964
1477.000000	38.451331
1476.000000	38.497768
1475.000000	38.565396
1474.000000	38.649449
1473.000000	38.743336
1472.000000	38.820799
1471.000000	38.915599
1470.000000	38.982720
1469.000000	39.036863
1468.000000	39.130345
1467.000000	39.252825
1466.000000	39.351275
1465.000000	39.457026
1464.000000	39.554767
1463.000000	39.651798
1462.000000	39.760894
1461.000000	39.893919
1460.000000	39.996323
1459.000000	40.117181
1458.000000	40.229218
1457.000000	40.352104
1456.000000	40.456536
1455.000000	40.566444
1454.000000	40.676148
1453.000000	40.795283
1452.000000	40.926178
1451.000000	41.048658
1450.000000	41.110709
1449.000000	41.190200
1448.000000	41.320588
1447.000000	41.457567
1446.000000	41.600934
1445.000000	41.674543
1444.000000	41.759711
1443.000000	41.890201
1442.000000	42.013290
1441.000000	42.121474
1440.000000	42.226717
1439.000000	42.395127
1438.000000	42.523691
1437.000000	42.640899
1436.000000	42.768955
1435.000000	42.920230
1434.000000	43.101010
1433.000000	43.261511
1432.000000	43.450808
1431.000000	43.602894
1430.000000	43.790568
1429.000000	44.022348
1428.000000	44.225332
1427.000000	44.445654
1426.000000	44.695481
1425.000000	44.951695
1424.000000	45.238631
1423.000000	45.494136
1422.000000	45.762517
1421.000000	46.089908
1420.000000	46.470833
1419.000000	46.809580
1418.000000	47.131090
1417.000000	47.430801
1416.000000	47.846604
1415.000000	48.300531
1414.000000	48.763177
1413.000000	49.143798
1412.000000	49.534761
1411.000000	50.062195
1410.000000	50.599262
1409.000000	51.155289
1408.000000	51.653321
1407.000000	52.174773
1406.000000	52.700383
1405.000000	53.218693
1404.000000	53.728181
1403.000000	54.262510
1402.000000	54.797448
1401.000000	55.463078
1400.000000	55.962631
1399.000000	56.341325
1398.000000	56.716167
1397.000000	57.232043
1396.000000	57.832175
1395.000000	58.276165
1394.000000	58.604164
1393.000000	58.982960
1392.000000	59.466290
1391.000000	59.866378
1390.000000	60.234629
1389.000000	60.688150
1388.000000	61.155866
1387.000000	61.519656
1386.000000	61.875030
1385.000000	62.236083
1384.000000	62.595614
1383.000000	62.952307
1382.000000	63.224845
1381.000000	63.420631
1380.000000	63.561970
1379.000000	63.725209
1378.000000	63.851238
1377.000000	64.019546
1376.000000	64.154801
1375.000000	64.283669
1374.000000	64.451369
1373.000000	64.662769
1372.000000	64.816782
1371.000000	64.958526
1370.000000	65.080702
1369.000000	65.235627
1368.000000	65.398461
1367.000000	65.487380
1366.000000	65.632977
1365.000000	65.771579
1364.000000	65.846101
1363.000000	65.950330
1362.000000	66.099071
1361.000000	66.173086
1360.000000	66.175114
1359.000000	66.227533
1358.000000	66.292119
1357.000000	66.390468
1356.000000	66.508892
1355.000000	66.671422
1354.000000	66.825536
1353.000000	66.927636
1352.000000	67.159415
1351.000000	67.392513
1350.000000	67.621453
1349.000000	67.856071
1348.000000	68.106304
1347.000000	68.313546
1346.000000	68.526974
1345.000000	68.767169
1344.000000	68.998542
1343.000000	69.190171
1342.000000	69.372978
1341.000000	69.566736
1340.000000	69.739506
1339.000000	69.898385
1338.000000	70.045706
1337.000000	70.197995
1336.000000	70.330310
1335.000000	70.457251
1334.000000	70.598184
1333.000000	70.718028
1332.000000	70.841624
1331.000000	70.952140
1330.000000	71.046332
1329.000000	71.144072
1328.000000	71.220521
1327.000000	71.296463
1326.000000	71.375446
1325.000000	71.447636
1324.000000	71.510600
1323.000000	71.578025
1322.000000	71.638048
1321.000000	71.685600
1320.000000	71.744204
1319.000000	71.787599
1318.000000	71.844480
1317.000000	71.897406
1316.000000	71.944552
1315.000000	71.992510
1314.000000	72.028808
1313.000000	72.063281
1312.000000	72.098058
1311.000000	72.132125
1310.000000	72.166902
1309.000000	72.204721
1308.000000	72.229156
1307.000000	72.236152
1306.000000	72.254808
1305.000000	72.272856
1304.000000	72.279243
1303.000000	72.280865
1302.000000	72.284718
1301.000000	72.288977
1300.000000	72.284211
1299.000000	72.275695
1298.000000	72.265657
1297.000000	72.257546
1296.000000	72.235544
1295.000000	72.203910
1294.000000	72.186572
1293.000000	72.165280
1292.000000	72.132835
1291.000000	72.092887
1290.000000	72.056386
1289.000000	72.014917
1288.000000	71.971725
1287.000000	71.923362
1286.000000	71.872058
1285.000000	71.815685
1284.000000	71.762353
1283.000000	71.715004
1282.000000	71.658732
1281.000000	71.613207
1280.000000	71.567784
1279.000000	71.511208
1278.000000	71.469739
1277.000000	71.442262
1276.000000	71.416408
1275.000000	71.380515
1274.000000	71.344623
1273.000000	71.332862
1272.000000	71.307413
1271.000000	71.283586
1270.000000	71.275475
1269.000000	71.259354
1268.000000	71.245869
1267.000000	71.236135
1266.000000	71.219811
1265.000000	71.196593
1264.000000	71.181587
1263.000000	71.160498
1262.000000	71.153603
1261.000000	71.131500
1260.000000	71.111120
1259.000000	71.095202
1258.000000	71.088206
1257.000000	71.078472
1256.000000	71.065697
1255.000000	71.022201
1254.000000	71.007296
1253.000000	70.987626
1252.000000	70.938553
1251.000000	70.902661
1250.000000	70.851661
1249.000000	70.786467
1248.000000	70.722895
1247.000000	70.658715
1246.000000	70.591087
1245.000000	70.502573
1244.000000	70.429065
1243.000000	70.352717
1242.000000	70.281237
1241.000000	70.203673
1240.000000	70.141723
1239.000000	70.050978
1238.000000	69.971894
1237.000000	69.914405
1236.000000	69.852658
1235.000000	69.797197
1234.000000	69.732003
1233.000000	69.663666
1232.000000	69.589144
1231.000000	69.527701
1230.000000	69.461999
1229.000000	69.386159
1228.000000	69.342764
1227.000000	69.270878
1226.000000	69.195747
1225.000000	69.141807
1224.000000	69.082291
1223.000000	69.007769
1222.000000	68.950584
1221.000000	68.891575
1220.000000	68.824049
1219.000000	68.768791
1218.000000	68.699541
1217.000000	68.641545
1216.000000	68.579393
1215.000000	68.519268
1214.000000	68.456102
1213.000000	68.388373
1212.000000	68.329363
1211.000000	68.245108
1210.000000	68.144224
1209.000000	68.070209
1208.000000	68.001567
1207.000000	67.928160
1206.000000	67.827175
1205.000000	67.751639
1204.000000	67.659576
1203.000000	67.572785
1202.000000	67.495222
1201.000000	67.391093
1200.000000	67.312414
1199.000000	67.223900
1198.000000	67.118048
1197.000000	67.014933
1196.000000	66.901477
1195.000000	66.799275
1194.000000	66.687036
1193.000000	66.568611
1192.000000	66.462252
1191.000000	66.354575
1190.000000	66.277620
1189.000000	66.201881
1188.000000	66.130400
1187.000000	66.094508
1186.000000	66.057501
1185.000000	66.046246
1184.000000	66.016032
1183.000000	66.037932
1182.000000	66.060745
1181.000000	66.096232
1180.000000	66.110021
1179.000000	66.162034
1178.000000	66.201374
1177.000000	66.240308
1176.000000	66.257646
1175.000000	66.282385
1174.000000	66.333993
1173.000000	66.367756
1172.000000	66.424130
1171.000000	66.478171
1170.000000	66.542655
1169.000000	66.613527
1168.000000	66.679736
1167.000000	66.789136
1166.000000	66.902998
1165.000000	66.990701
1164.000000	67.116933
1163.000000	67.200377
1162.000000	67.321945
1161.000000	67.439254
1160.000000	67.508706
1159.000000	67.639906
1158.000000	67.710778
1157.000000	67.805579
1156.000000	67.887604
1155.000000	67.932520
1154.000000	68.005623
1153.000000	68.050843
1152.000000	68.076495
1151.000000	68.098091
1150.000000	68.104073
1149.000000	68.135504
1148.000000	68.156188
1147.000000	68.165009
1146.000000	68.172816
1145.000000	68.195933
1144.000000	68.195325
1143.000000	68.192993
1142.000000	68.217935
1141.000000	68.249163
1140.000000	68.283332
1139.000000	68.334940
1138.000000	68.386041
1137.000000	68.464517
1136.000000	68.532145
1135.000000	68.598150
1134.000000	68.631913
1133.000000	68.628669
1132.000000	68.674802
1131.000000	68.713127
1130.000000	68.758043
1129.000000	68.778119
1128.000000	68.774367
1127.000000	68.784506
1126.000000	68.785520
1125.000000	68.763721
1124.000000	68.764127
1123.000000	68.734419
1122.000000	68.672165
1121.000000	68.623802
1120.000000	68.563779
1119.000000	68.523729
1118.000000	68.455696
1117.000000	68.406319
1116.000000	68.345079
1115.000000	68.277046
1114.000000	68.213169
1113.000000	68.133578
1112.000000	68.067268
1111.000000	67.995889
1110.000000	67.935460
1109.000000	67.851711
1108.000000	67.779420
1107.000000	67.690399
1106.000000	67.625711
1105.000000	67.537501
1104.000000	67.448886
1103.000000	67.388153
1102.000000	67.287675
1101.000000	67.220047
1100.000000	67.138833
1099.000000	67.039166
1098.000000	66.955012
1097.000000	66.862543
1096.000000	66.777983
1095.000000	66.690179
1094.000000	66.599130
1093.000000	66.509095
1092.000000	66.415004
1091.000000	66.320711
1090.000000	66.226113
1089.000000	66.136585
1088.000000	66.044421
1087.000000	65.961179
1086.000000	65.874186
1085.000000	65.784557
1084.000000	65.683166
1083.000000	65.599620
1082.000000	65.507253
1081.000000	65.414683
1080.000000	65.332354
1079.000000	65.231369
1078.000000	65.146809
1077.000000	65.048662
1076.000000	64.962886
1075.000000	64.866260
1074.000000	64.763856
1073.000000	64.679499
1072.000000	64.603354
1071.000000	64.517882
1070.000000	64.417404
1069.000000	64.317635
1068.000000	64.243214
1067.000000	64.156424
1066.000000	64.046922
1065.000000	63.953946
1064.000000	63.873645
1063.000000	63.784827
1062.000000	63.697124
1061.000000	63.604554
1060.000000	63.505292
1059.000000	63.423673
1058.000000	63.331407
1057.000000	63.243096
1056.000000	63.162591
1055.000000	63.085028
1054.000000	62.996615
1053.000000	62.908709
1052.000000	62.813503
1051.000000	62.743138
1050.000000	62.666385
1049.000000	62.584157
1048.000000	62.502943
1047.000000	62.429840
1046.000000	62.349133
1045.000000	62.278870
1044.000000	62.203131
1043.000000	62.133779
1042.000000	62.071627
1041.000000	62.002073
1040.000000	61.938704
1039.000000	61.867629
1038.000000	61.795134
1037.000000	61.734908
1036.000000	61.669815
1035.000000	61.613949
1034.000000	61.560415
1033.000000	61.486805
1032.000000	61.422523
1031.000000	61.374160
1030.000000	61.302172
1029.000000	61.245394
1028.000000	61.197841
1027.000000	61.137615
1026.000000	61.069683
1025.000000	61.007835
1024.000000	60.965555
1023.000000	60.912528
1022.000000	60.857270
1021.000000	60.815598
1020.000000	60.758312
1019.000000	60.712991
1018.000000	60.695754
1017.000000	60.664627
1016.000000	60.625490
1015.000000	60.605719
1014.000000	60.572362
1013.000000	60.542249
1012.000000	60.532617
1011.000000	60.524607
1010.000000	60.505748
1009.000000	60.483036
1008.000000	60.472086
1007.000000	60.473708
1006.000000	60.479386
1005.000000	60.473708
1004.000000	60.469551
1003.000000	60.468132
1002.000000	60.481110
1001.000000	60.498853
1000.000000	60.509398
999.000000	60.533326
998.000000	60.548636
997.000000	60.563743
996.000000	60.600143
995.000000	60.625795
994.000000	60.648709
993.000000	60.696971
992.000000	60.728199
991.000000	60.757704
990.000000	60.780720
989.000000	60.828373
988.000000	60.883327
987.000000	60.929359
986.000000	60.980561
985.000000	61.028012
984.000000	61.088339
983.000000	61.150289
982.000000	61.186283
981.000000	61.254316
980.000000	61.307952
979.000000	61.385516
978.000000	61.453549
977.000000	61.524624
976.000000	61.579375
975.000000	61.645076
974.000000	61.725682
973.000000	61.792397
972.000000	61.878173
971.000000	61.952189
970.000000	62.024176
969.000000	62.097684
968.000000	62.189443
967.000000	62.290631
966.000000	62.389791
965.000000	62.473743
964.000000	62.576857
963.000000	62.688083
962.000000	62.780247
961.000000	62.882550
960.000000	63.013040
959.000000	63.117067
958.000000	63.206088
957.000000	63.329177
956.000000	63.456827
955.000000	63.575556
954.000000	63.692155
953.000000	63.806119
952.000000	63.936507
951.000000	64.053816
950.000000	64.171937
949.000000	64.304961
948.000000	64.425616
947.000000	64.568780
946.000000	64.695113
945.000000	64.830875
944.000000	64.936524
943.000000	65.064784
942.000000	65.188480
941.000000	65.296664
940.000000	65.431920
939.000000	65.541320
938.000000	65.662786
937.000000	65.798447
936.000000	65.930255
935.000000	66.051011
934.000000	66.160007
933.000000	66.272652
932.000000	66.397971
931.000000	66.495204
930.000000	66.612615
929.000000	66.738238
928.000000	66.833951
927.000000	66.953693
926.000000	67.064615
925.000000	67.200377
924.000000	67.309271
923.000000	67.439152
922.000000	67.550378
921.000000	67.678942
920.000000	67.791789
919.000000	67.959084
918.000000	68.066254
917.000000	68.186098
916.000000	68.326423
915.000000	68.475062
914.000000	68.606566
913.000000	68.740300
912.000000	68.905466
911.000000	69.048021
910.000000	69.197775
909.000000	69.377237
908.000000	69.490490
907.000000	69.664274
906.000000	69.799732
905.000000	69.972502
904.000000	70.108771
903.000000	70.259539
902.000000	70.390333
901.000000	70.537553
900.000000	70.705557
899.000000	70.836858
898.000000	70.989350
897.000000	71.121462
896.000000	71.246274
895.000000	71.404951
894.000000	71.534832
893.000000	71.669986
892.000000	71.817915
891.000000	71.972232
890.000000	72.117018
889.000000	72.261297
888.000000	72.413992
887.000000	72.551376
886.000000	72.692411
885.000000	72.874103
884.000000	73.011284
883.000000	73.168035
882.000000	73.329449
881.000000	73.482549
880.000000	73.658056
879.000000	73.816631
878.000000	73.982101
877.000000	74.155986
876.000000	74.341227
875.000000	74.513084
874.000000	74.712621
873.000000	74.920473
872.000000	75.111391
871.000000	75.317417
870.000000	75.527093
869.000000	75.743968
868.000000	75.971895
867.000000	76.169607
866.000000	76.419231
865.000000	76.655674
864.000000	76.927300
863.000000	77.184325
862.000000	77.446928
861.000000	77.675462
860.000000	77.948812
859.000000	78.176231
858.000000	78.438833
857.000000	77.852700
856.000000	78.602200
855.000000	78.861600
854.000000	79.544300
853.000000	79.582200
852.000000	80.033900
851.000000	80.577100
850.000000	80.993700
849.000000	81.421100
848.000000	81.972900
847.000000	82.188000
846.000000	82.614100
845.000000	83.349500
844.000000	83.720200
843.000000	84.151400
842.000000	84.478400
841.000000	84.959900
840.000000	85.766200
839.000000	86.073700
838.000000	86.464300
837.000000	86.888700
836.000000	87.171000
835.000000	87.722000
834.000000	88.264700
833.000000	88.895000
832.000000	89.166300
831.000000	89.544500
830.000000	89.901000
829.000000	90.442300
828.000000	90.760300
827.000000	91.245800
826.000000	91.621500
825.000000	91.853400
824.000000	92.215400
823.000000	92.414100
822.000000	92.709200
821.000000	93.121600
820.000000	93.452800
819.000000	93.484700
818.000000	93.828600
817.000000	94.140200
816.000000	94.340600
815.000000	94.438500
814.000000	94.577600
813.000000	94.873600
812.000000	94.960100
811.000000	95.155300
810.000000	95.300100
809.000000	95.384700
808.000000	95.646000
807.000000	95.692300
806.000000	95.795000
805.000000	95.983200
804.000000	96.022900
803.000000	96.115200
802.000000	96.305900
801.000000	96.361400
800.000000	96.362500
799.000000	96.607000
798.000000	96.643300
797.000000	96.559900
796.000000	96.585300
795.000000	96.759800
794.000000	96.856000
793.000000	96.863900
792.000000	96.957300
791.000000	97.033400
790.000000	97.090800
789.000000	97.121800
788.000000	97.320400
787.000000	97.333900
786.000000	97.321200
785.000000	97.427700
784.000000	97.348700
783.000000	97.346600
782.000000	97.498900
781.000000	97.517400
780.000000	97.529500
779.000000	97.591700
778.000000	97.599000
777.000000	97.626000
776.000000	97.573600
775.000000	97.536900
774.000000	97.614600
773.000000	97.649500
772.000000	97.621400
771.000000	97.603700
770.000000	97.551200
769.000000	97.510200
768.000000	97.498000
767.000000	97.467000
766.000000	97.309900
765.000000	97.188300
764.000000	97.146800
763.000000	97.005400
762.000000	96.883900
761.000000	96.792800
760.000000	96.711600
759.000000	96.603700
758.000000	96.438300
757.000000	96.308600
756.000000	96.129000
755.000000	95.976500
754.000000	95.812000
753.000000	95.605800
752.000000	95.398800
751.000000	95.136400
750.000000	94.914500
749.000000	94.661200
748.000000	94.347500
747.000000	94.058500
746.000000	93.787700
745.000000	93.433100
744.000000	93.092300
743.000000	92.751000
742.000000	92.291300
741.000000	91.881100
740.000000	91.483100
739.000000	91.020500
738.000000	90.602400
737.000000	90.224000
736.000000	89.765300
735.000000	89.285000
734.000000	88.817900
733.000000	88.326300
732.000000	87.839500
731.000000	87.352900
730.000000	86.842400
729.000000	86.318900
728.000000	85.756900
727.000000	85.222400
726.000000	84.697200
725.000000	84.154300
724.000000	83.619900
723.000000	83.049000
722.000000	82.532800
721.000000	82.013000
720.000000	81.499300
719.000000	81.044000
718.000000	80.611000
717.000000	80.129100
716.000000	79.708500
715.000000	79.296500
714.000000	78.893500
713.000000	78.551000
712.000000	78.240800
711.000000	77.873700
710.000000	77.586400
709.000000	77.366500
708.000000	77.082400
707.000000	76.767500
706.000000	76.513600
705.000000	76.238900
704.000000	75.956500
703.000000	75.661700
702.000000	75.368700
701.000000	75.054200
700.000000	74.718100
699.000000	74.435000
698.000000	74.079600
697.000000	73.764900
696.000000	73.408300
695.000000	73.078700
694.000000	72.776700
693.000000	72.415800
692.000000	72.085100
691.000000	71.738200
690.000000	71.351500
689.000000	70.973800
688.000000	70.595300
687.000000	70.182000
686.000000	69.771200
685.000000	69.314300
684.000000	68.816600
683.000000	68.371600
682.000000	67.887200
681.000000	67.385300
680.000000	66.896600
679.000000	66.362800
678.000000	65.882200
677.000000	65.404100
676.000000	64.947200
675.000000	64.521200
674.000000	64.065000
673.000000	63.731900
672.000000	63.378300
671.000000	63.062900
670.000000	62.779800
669.000000	62.593300
668.000000	62.386100
667.000000	62.260200
666.000000	62.096400
665.000000	61.966400
664.000000	61.907300
663.000000	61.844800
662.000000	61.767700
661.000000	61.642100
660.000000	61.606100
659.000000	61.559500
658.000000	61.443300
657.000000	61.370400
656.000000	61.272300
655.000000	61.187200
654.000000	61.122600
653.000000	61.092700
652.000000	61.069100
651.000000	61.027000
650.000000	61.069200
649.000000	61.055000
648.000000	61.061900
647.000000	61.113900
646.000000	61.093100
645.000000	61.145700
644.000000	61.096300
643.000000	61.124400
642.000000	61.052300
641.000000	60.966500
640.000000	60.921200
639.000000	60.808200
638.000000	60.718600
637.000000	60.611100
636.000000	60.533500
635.000000	60.437800
634.000000	60.384400
633.000000	60.378200
632.000000	60.355100
631.000000	60.324100
630.000000	60.408600
629.000000	60.488700
628.000000	60.572000
627.000000	60.677400
626.000000	60.873700
625.000000	61.044900
624.000000	61.230100
623.000000	61.517600
622.000000	61.778100
621.000000	62.116700
620.000000	62.482600
619.000000	62.816500
618.000000	63.243800
617.000000	63.709400
616.000000	64.185000
615.000000	64.663700
614.000000	65.180000
613.000000	65.714500
612.000000	66.299400
611.000000	66.831900
610.000000	67.425000
609.000000	67.999000
608.000000	68.562200
607.000000	69.201000
606.000000	69.804500
605.000000	70.390700
604.000000	70.968400
603.000000	71.560700
602.000000	72.129100
601.000000	72.746400
600.000000	73.232700
599.000000	73.708600
598.000000	74.165600
597.000000	74.582300
596.000000	75.009700
595.000000	75.317600
594.000000	75.742600
593.000000	76.061700
592.000000	76.410900
591.000000	76.714300
590.000000	77.043700
589.000000	77.255800
588.000000	77.449400
587.000000	77.624300
586.000000	77.703800
585.000000	77.794400
584.000000	77.835900
583.000000	77.827100
582.000000	77.846300
581.000000	77.874300
580.000000	77.844200
579.000000	77.842000
578.000000	77.789000
577.000000	77.700400
576.000000	77.604300
575.000000	77.449400
574.000000	77.282800
573.000000	77.059800
572.000000	76.833600
571.000000	76.621800
570.000000	76.444900
569.000000	76.209300
568.000000	76.002900
567.000000	75.767200
566.000000	75.468700
565.000000	75.183300
564.000000	74.862400
563.000000	74.458600
562.000000	74.085000
561.000000	73.721500
560.000000	73.349000
559.000000	73.001300
558.000000	72.587700
557.000000	72.159500
556.000000	71.662600
555.000000	71.160000
554.000000	70.662400
553.000000	70.073000
552.000000	69.522400
551.000000	68.951300
550.000000	68.352600
549.000000	67.716700
548.000000	67.042800
547.000000	66.387600
546.000000	65.675100
545.000000	64.916200
544.000000	64.129500
543.000000	63.290700
542.000000	62.462900
541.000000	61.603500
540.000000	60.708100
539.000000	59.820400
538.000000	58.927600
537.000000	58.000500
536.000000	57.066400
535.000000	56.119100
534.000000	55.201000
533.000000	54.266200
532.000000	53.313600
531.000000	52.394400
530.000000	51.500000
529.000000	50.610400
528.000000	49.756200
527.000000	48.925100
526.000000	48.113600
525.000000	47.283000
524.000000	46.505400
523.000000	45.719500
522.000000	44.958800
521.000000	44.190000
520.000000	43.485500
519.000000	42.761200
518.000000	42.077100
517.000000	41.402900
516.000000	40.695500
515.000000	39.999000
514.000000	39.335100
513.000000	38.673500
512.000000	38.003800
511.000000	37.330300
510.000000	36.652600
509.000000	36.002800
508.000000	35.337300
507.000000	34.673500
506.000000	34.024100
505.000000	33.366600
504.000000	32.714400
503.000000	32.086300
502.000000	31.465700
501.000000	30.896300
500.000000	30.356300
499.000000	29.842900
498.000000	29.359200
497.000000	28.952900
496.000000	28.595400
495.000000	28.278300
494.000000	28.017200
493.000000	27.794600
492.000000	27.629200
491.000000	27.551800
490.000000	27.524800
489.000000	27.525200
488.000000	27.570500
487.000000	27.654400
486.000000	27.768500
485.000000	27.933100
484.000000	28.120000
483.000000	28.308600
482.000000	28.486900
481.000000	28.658800
480.000000	28.811900
479.000000	28.992800
478.000000	29.179200
477.000000	29.355500
476.000000	29.524100
475.000000	29.660000
474.000000	29.778200
473.000000	29.884400
472.000000	29.957200
471.000000	30.028200
470.000000	30.080700
469.000000	30.099400
468.000000	30.100700
467.000000	30.098700
466.000000	30.053500
465.000000	29.993500
464.000000	29.918500
463.000000	29.809100
462.000000	29.696100
461.000000	29.600100
460.000000	29.448100
459.000000	29.273400
458.000000	29.113100
457.000000	28.948000
456.000000	28.750800
455.000000	28.524200
454.000000	28.290900
453.000000	28.066300
452.000000	27.803800
451.000000	27.526700
450.000000	27.271800
449.000000	26.982600
448.000000	26.674200
447.000000	26.369300
446.000000	26.044200
445.000000	25.711600
444.000000	25.372200
443.000000	24.995200
442.000000	24.587300
441.000000	24.169300
440.000000	23.756300
439.000000	23.328500
438.000000	22.896200
437.000000	22.436600
436.000000	21.963000
435.000000	21.478500
434.000000	20.968800
433.000000	20.458300
432.000000	19.928700
431.000000	19.395000
430.000000	18.856200
429.000000	18.321400
428.000000	17.802300
427.000000	17.272100
426.000000	16.729600
425.000000	16.190200
424.000000	15.654900
423.000000	15.133000
422.000000	14.621100
421.000000	14.122300
420.000000	13.634200
419.000000	13.150400
418.000000	12.702300
417.000000	12.274300
416.000000	11.859000
415.000000	11.457200
414.000000	11.070400
413.000000	10.719400
412.000000	10.396400
411.000000	10.077800
410.000000	9.779500
409.000000	9.513300
408.000000	9.268200
407.000000	9.036000
406.000000	8.812100
405.000000	8.608100
404.000000	8.431600
403.000000	8.265800
402.000000	8.113200
401.000000	7.957800
400.000000	7.814400
399.000000	7.700100
398.000000	7.595100
397.000000	7.507700
396.000000	7.419900
395.000000	7.312400
394.000000	7.235500
393.000000	7.173500
392.000000	7.109400
391.000000	7.047000
390.000000	6.973000
389.000000	6.930200
388.000000	6.871300
387.000000	6.823000
386.000000	6.792600
385.000000	6.755100
384.000000	6.727300
383.000000	6.672900
382.000000	6.637300
381.000000	6.596300
380.000000	6.569200
379.000000	6.532000
378.000000	6.506000
377.000000	6.498800
376.000000	6.604100
375.000000	6.460900
374.000000	6.383900
373.000000	6.326400
372.000000	6.287400
371.000000	6.210400
370.000000	6.202700
369.000000	6.324000
368.000000	6.314700
367.000000	6.277400
366.000000	6.251200
365.000000	6.301700
364.000000	6.298400
363.000000	6.222000
362.000000	6.240300
361.000000	6.243900
360.000000	6.238200
359.000000	6.221400
358.000000	6.123900
357.000000	6.021400
356.000000	5.970900
355.000000	6.011400
354.000000	6.114700
353.000000	6.031500
352.000000	6.052700
351.000000	5.964500
350.000000	5.952900
349.000000	6.058400
348.000000	6.060000
347.000000	5.910300
346.000000	5.946800
345.000000	5.956100
344.000000	6.065100
343.000000	5.968500
342.000000	5.960000
341.000000	5.983200
340.000000	5.930000
339.000000	5.907800
338.000000	5.879300
337.000000	5.940300
336.000000	5.924900
335.000000	5.900000
334.000000	6.005900
333.000000	5.993900
332.000000	6.077400
331.000000	6.018000
330.000000	5.914200
329.000000	5.978100
328.000000	5.885900
327.000000	5.899500
326.000000	5.835600
325.000000	5.875300
324.000000	6.067100
323.000000	6.191700
322.000000	6.246200
321.000000	6.079700
320.000000	5.967500
319.000000	6.209100
318.000000	6.083100
317.000000	6.206400
316.000000	5.880000
315.000000	5.835200
314.000000	5.798400
313.000000	5.839600
312.000000	5.850900
311.000000	5.828800
310.000000	5.759200
309.000000	5.852200
308.000000	5.817300
307.000000	5.824000
306.000000	5.835100
305.000000	5.806300
304.000000	5.818400
303.000000	5.886400
302.000000	5.841300
301.000000	5.802800
300.000000	5.826000
299.000000	5.855000
298.000000	5.841500
297.000000	5.869800
296.000000	5.854600
295.000000	5.874500
294.000000	5.862700
293.000000	5.899200
292.000000	5.861400
291.000000	5.834500
290.000000	5.838100
289.000000	5.859200
288.000000	5.830200
287.000000	5.852500
286.000000	5.847800
285.000000	5.863600
284.000000	5.903900
283.000000	5.888200
282.000000	5.902800
281.000000	5.843300
280.000000	5.859700
279.000000	5.922000
278.000000	5.942900
277.000000	5.929800
276.000000	5.940600
275.000000	5.965400
274.000000	5.945900
273.000000	5.923000
272.000000	5.932900
271.000000	5.989200
270.000000	5.960000
269.000000	5.992600
268.000000	6.039500
267.000000	6.078500
266.000000	6.059800
265.000000	6.056400
264.000000	6.070900
263.000000	6.158900
262.000000	6.198700
261.000000	6.192600
260.000000	6.203800
259.000000	6.249100
258.000000	6.234000
257.000000	6.211900
256.000000	6.229900
255.000000	6.301100
254.000000	6.285700
253.000000	6.277200
252.000000	6.306700
251.000000	6.314500
250.000000	6.349900
