PE UV       SUBTECH     SPECTRUM    ASCII       PEDS        4.00        
   -1
CICIMAUCR0001-3.Sample.ASC
24/04/11
16:53:49.00
24/04/11
16:53:49.00
Vinicio Soto Monge
C. kalinini
250,000000
1
Lambda 1050
1050L1511233
PerkinElmer UV WinLab 6.3.2.0749 / 2.02.05 Lambda 900 UV/VIS/NIR, Aug  7 2015 09:38:08

0
0
3350/2 860,8/2
0
0
UV/VIS
1
1
1
DoubleDePol,CommonBeamDepol,RBeamAtt,SBeamAtt,60mm sphere, WB InGaAs Detector
0
0
0
0
Program
Program
3350/2 860,8/2
3350/0,2 860,8/0,2
3350/0,2 860,8/0,2
0
15.00
 
 
 
0
 
860,8
319,2
860,8
Front
100
on
S:100 R:100
0
0
0
0
 
0
 
 
 
0
 
 
0
0
0
0
0
 
 
 
 
0
0


0
0
#HDR
-1
-1
#GR
nm
%R
1.0
0.0
2400,000000
-1,000000
2151
8
102,016800
5,507100
#DATA
2400.000000	24.073100
2399.000000	23.695600
2398.000000	24.594700
2397.000000	23.768800
2396.000000	24.303700
2395.000000	24.272900
2394.000000	23.422800
2393.000000	23.999900
2392.000000	23.353000
2391.000000	24.024400
2390.000000	23.349700
2389.000000	24.114100
2388.000000	24.211700
2387.000000	23.749000
2386.000000	23.900200
2385.000000	24.276200
2384.000000	23.868700
2383.000000	23.504000
2382.000000	24.684900
2381.000000	23.651100
2380.000000	23.182200
2379.000000	23.777300
2378.000000	24.284500
2377.000000	23.856200
2376.000000	23.196000
2375.000000	23.482400
2374.000000	22.923000
2373.000000	23.998400
2372.000000	23.339400
2371.000000	23.453200
2370.000000	23.753900
2369.000000	23.643800
2368.000000	24.318300
2367.000000	23.389800
2366.000000	23.483200
2365.000000	23.396100
2364.000000	23.500000
2363.000000	23.803600
2362.000000	23.723100
2361.000000	23.155100
2360.000000	23.361400
2359.000000	23.615000
2358.000000	23.202400
2357.000000	22.560800
2356.000000	23.445600
2355.000000	23.181200
2354.000000	23.154400
2353.000000	23.461500
2352.000000	23.237000
2351.000000	22.315800
2350.000000	23.517900
2349.000000	23.577200
2348.000000	23.787200
2347.000000	23.732600
2346.000000	23.380700
2345.000000	22.880700
2344.000000	23.246800
2343.000000	22.986000
2342.000000	22.792600
2341.000000	23.167700
2340.000000	23.143500
2339.000000	22.742800
2338.000000	22.765700
2337.000000	22.821300
2336.000000	22.777800
2335.000000	22.685900
2334.000000	22.622600
2333.000000	22.595200
2332.000000	22.577100
2331.000000	22.646500
2330.000000	22.680800
2329.000000	22.257400
2328.000000	22.392700
2327.000000	22.289100
2326.000000	22.762600
2325.000000	22.875800
2324.000000	22.961200
2323.000000	22.762700
2322.000000	23.047100
2321.000000	22.799000
2320.000000	22.812900
2319.000000	22.950700
2318.000000	22.903400
2317.000000	22.739800
2316.000000	22.572800
2315.000000	22.488900
2314.000000	22.638700
2313.000000	22.290300
2312.000000	22.285700
2311.000000	22.344200
2310.000000	22.250600
2309.000000	22.635800
2308.000000	22.553100
2307.000000	22.598700
2306.000000	22.313800
2305.000000	21.892400
2304.000000	21.761800
2303.000000	21.971200
2302.000000	21.709700
2301.000000	21.940700
2300.000000	21.900600
2299.000000	21.847800
2298.000000	21.730600
2297.000000	21.961700
2296.000000	22.064500
2295.000000	21.936100
2294.000000	21.747300
2293.000000	21.624100
2292.000000	21.681800
2291.000000	21.881900
2290.000000	21.877900
2289.000000	21.898500
2288.000000	21.575100
2287.000000	21.653300
2286.000000	21.816200
2285.000000	21.745300
2284.000000	21.852800
2283.000000	21.933300
2282.000000	22.085700
2281.000000	22.281800
2280.000000	22.330100
2279.000000	22.271600
2278.000000	22.288600
2277.000000	22.311600
2276.000000	22.282300
2275.000000	22.170200
2274.000000	22.004300
2273.000000	22.003600
2272.000000	22.017600
2271.000000	22.179100
2270.000000	22.386200
2269.000000	22.488100
2268.000000	22.284200
2267.000000	22.194000
2266.000000	22.251400
2265.000000	22.550600
2264.000000	22.885400
2263.000000	23.113200
2262.000000	22.891300
2261.000000	22.397300
2260.000000	22.704900
2259.000000	23.121100
2258.000000	23.110200
2257.000000	23.204600
2256.000000	23.395200
2255.000000	23.542400
2254.000000	23.772000
2253.000000	23.820900
2252.000000	23.807700
2251.000000	24.159500
2250.000000	24.427300
2249.000000	24.558800
2248.000000	24.853400
2247.000000	24.856200
2246.000000	25.022300
2245.000000	25.212700
2244.000000	25.087500
2243.000000	25.265200
2242.000000	25.340400
2241.000000	25.398900
2240.000000	25.525500
2239.000000	25.442400
2238.000000	25.585700
2237.000000	25.686900
2236.000000	25.674000
2235.000000	25.608200
2234.000000	25.587900
2233.000000	25.593800
2232.000000	25.651000
2231.000000	25.954900
2230.000000	25.977400
2229.000000	25.913000
2228.000000	25.717700
2227.000000	25.677900
2226.000000	25.432300
2225.000000	25.340800
2224.000000	25.292400
2223.000000	25.115700
2222.000000	25.350100
2221.000000	25.235100
2220.000000	25.198200
2219.000000	25.211100
2218.000000	25.395600
2217.000000	25.130200
2216.000000	24.988700
2215.000000	24.854400
2214.000000	24.653200
2213.000000	24.313900
2212.000000	24.497700
2211.000000	24.476400
2210.000000	24.408700
2209.000000	24.518600
2208.000000	24.499200
2207.000000	24.371400
2206.000000	24.555000
2205.000000	23.900800
2204.000000	23.972300
2203.000000	24.206300
2202.000000	24.063800
2201.000000	23.838700
2200.000000	24.038500
2199.000000	23.957600
2198.000000	23.754200
2197.000000	23.958300
2196.000000	23.933600
2195.000000	23.930400
2194.000000	24.024900
2193.000000	23.997300
2192.000000	23.689500
2191.000000	23.768300
2190.000000	23.768200
2189.000000	23.600200
2188.000000	23.351900
2187.000000	23.770800
2186.000000	23.347900
2185.000000	23.977900
2184.000000	23.727100
2183.000000	24.010700
2182.000000	23.783700
2181.000000	23.742200
2180.000000	23.730200
2179.000000	23.878600
2178.000000	23.979100
2177.000000	24.096700
2176.000000	23.737100
2175.000000	23.815800
2174.000000	23.671400
2173.000000	23.570000
2172.000000	23.806000
2171.000000	23.833700
2170.000000	24.104200
2169.000000	24.112300
2168.000000	23.607100
2167.000000	23.961500
2166.000000	23.999000
2165.000000	24.165200
2164.000000	24.235000
2163.000000	24.288600
2162.000000	24.337800
2161.000000	24.309900
2160.000000	24.248500
2159.000000	24.398800
2158.000000	24.707600
2157.000000	24.439900
2156.000000	24.701600
2155.000000	25.060700
2154.000000	24.707000
2153.000000	25.066600
2152.000000	25.409500
2151.000000	25.140900
2150.000000	25.295900
2149.000000	25.522100
2148.000000	25.891100
2147.000000	25.794200
2146.000000	26.069700
2145.000000	25.543500
2144.000000	26.062100
2143.000000	25.990300
2142.000000	26.532500
2141.000000	26.719900
2140.000000	26.377800
2139.000000	26.182800
2138.000000	26.420900
2137.000000	26.987500
2136.000000	26.563000
2135.000000	26.615200
2134.000000	27.226200
2133.000000	26.913800
2132.000000	26.832500
2131.000000	27.136700
2130.000000	27.643200
2129.000000	27.383800
2128.000000	27.633700
2127.000000	27.235500
2126.000000	27.202200
2125.000000	27.308300
2124.000000	27.754600
2123.000000	27.264500
2122.000000	27.680500
2121.000000	27.785400
2120.000000	27.487600
2119.000000	28.021800
2118.000000	27.638500
2117.000000	27.438000
2116.000000	27.594500
2115.000000	27.704600
2114.000000	27.616200
2113.000000	27.631800
2112.000000	27.687200
2111.000000	27.723900
2110.000000	27.696000
2109.000000	27.758900
2108.000000	27.747600
2107.000000	27.576500
2106.000000	27.398000
2105.000000	27.647900
2104.000000	27.619400
2103.000000	27.685000
2102.000000	27.849600
2101.000000	27.753600
2100.000000	27.667000
2099.000000	27.575000
2098.000000	27.562400
2097.000000	28.000800
2096.000000	27.557900
2095.000000	27.270900
2094.000000	27.065900
2093.000000	27.407000
2092.000000	27.512200
2091.000000	27.485700
2090.000000	27.577200
2089.000000	27.586100
2088.000000	27.499100
2087.000000	27.605100
2086.000000	27.422700
2085.000000	27.585800
2084.000000	27.436500
2083.000000	27.509900
2082.000000	27.384100
2081.000000	27.403000
2080.000000	27.315100
2079.000000	27.267900
2078.000000	27.186100
2077.000000	27.070700
2076.000000	27.007700
2075.000000	27.057800
2074.000000	27.054300
2073.000000	26.723600
2072.000000	26.723300
2071.000000	26.644900
2070.000000	26.645600
2069.000000	26.454100
2068.000000	26.313800
2067.000000	26.263000
2066.000000	26.079700
2065.000000	25.647500
2064.000000	25.664800
2063.000000	25.731100
2062.000000	25.528900
2061.000000	25.486100
2060.000000	25.404400
2059.000000	25.192900
2058.000000	25.152000
2057.000000	25.102200
2056.000000	25.061000
2055.000000	25.034800
2054.000000	24.936100
2053.000000	24.951500
2052.000000	25.043400
2051.000000	25.077000
2050.000000	25.254100
2049.000000	25.308400
2048.000000	25.327700
2047.000000	25.502900
2046.000000	25.534600
2045.000000	25.666300
2044.000000	25.890600
2043.000000	26.073400
2042.000000	26.135200
2041.000000	26.240600
2040.000000	26.407600
2039.000000	26.655300
2038.000000	26.754000
2037.000000	26.800100
2036.000000	26.979800
2035.000000	27.017100
2034.000000	27.125400
2033.000000	27.332700
2032.000000	27.501200
2031.000000	27.516500
2030.000000	27.514900
2029.000000	27.683100
2028.000000	27.858800
2027.000000	27.848100
2026.000000	27.838200
2025.000000	27.931500
2024.000000	28.069900
2023.000000	28.060700
2022.000000	28.031700
2021.000000	28.114900
2020.000000	28.236500
2019.000000	28.267000
2018.000000	28.332800
2017.000000	28.306400
2016.000000	28.317800
2015.000000	28.272600
2014.000000	28.210300
2013.000000	28.219200
2012.000000	28.310900
2011.000000	28.364000
2010.000000	28.323100
2009.000000	28.244500
2008.000000	28.185100
2007.000000	28.194100
2006.000000	28.161700
2005.000000	28.102000
2004.000000	28.076700
2003.000000	28.066600
2002.000000	27.930100
2001.000000	27.840300
2000.000000	27.813000
1999.000000	27.784100
1998.000000	27.736600
1997.000000	27.670600
1996.000000	27.581300
1995.000000	27.410800
1994.000000	27.338100
1993.000000	27.300500
1992.000000	27.159500
1991.000000	27.012100
1990.000000	26.937700
1989.000000	26.792300
1988.000000	26.628700
1987.000000	26.638800
1986.000000	26.588900
1985.000000	26.404700
1984.000000	26.273600
1983.000000	26.161300
1982.000000	26.065300
1981.000000	25.969000
1980.000000	25.819900
1979.000000	25.674400
1978.000000	25.568700
1977.000000	25.471700
1976.000000	25.375300
1975.000000	25.247100
1974.000000	25.204300
1973.000000	25.127300
1972.000000	24.977000
1971.000000	24.824600
1970.000000	24.722100
1969.000000	24.666500
1968.000000	24.595000
1967.000000	24.483500
1966.000000	24.378200
1965.000000	24.262900
1964.000000	24.127300
1963.000000	24.022100
1962.000000	23.969100
1961.000000	23.841100
1960.000000	23.723900
1959.000000	23.662000
1958.000000	23.543600
1957.000000	23.402100
1956.000000	23.255100
1955.000000	23.211400
1954.000000	23.176100
1953.000000	23.041600
1952.000000	22.874700
1951.000000	22.783200
1950.000000	22.685900
1949.000000	22.554900
1948.000000	22.487500
1947.000000	22.407100
1946.000000	22.321800
1945.000000	22.288800
1944.000000	22.194600
1943.000000	22.073600
1942.000000	22.032000
1941.000000	22.048900
1940.000000	22.051900
1939.000000	21.999500
1938.000000	21.972100
1937.000000	21.923600
1936.000000	21.829000
1935.000000	21.794400
1934.000000	21.860000
1933.000000	21.967300
1932.000000	21.948900
1931.000000	22.052400
1930.000000	22.203100
1929.000000	22.175200
1928.000000	22.245900
1927.000000	22.436400
1926.000000	22.445500
1925.000000	22.535000
1924.000000	22.663100
1923.000000	22.778500
1922.000000	22.905000
1921.000000	23.427300
1920.000000	23.602100
1919.000000	23.379400
1918.000000	23.584000
1917.000000	24.004100
1916.000000	24.334300
1915.000000	24.454600
1914.000000	24.834500
1913.000000	25.130700
1912.000000	25.377900
1911.000000	25.621600
1910.000000	26.018900
1909.000000	26.339800
1908.000000	26.732100
1907.000000	27.259100
1906.000000	27.908500
1905.000000	28.343800
1904.000000	28.626000
1903.000000	29.098000
1902.000000	29.542400
1901.000000	30.224000
1900.000000	30.900300
1899.000000	31.624600
1898.000000	31.983800
1897.000000	32.459000
1896.000000	32.985400
1895.000000	33.691900
1894.000000	34.322200
1893.000000	35.041100
1892.000000	35.746100
1891.000000	36.330300
1890.000000	36.873600
1889.000000	37.463500
1888.000000	37.954200
1887.000000	38.644600
1886.000000	39.240400
1885.000000	39.814800
1884.000000	40.415000
1883.000000	40.773600
1882.000000	41.204100
1881.000000	41.653700
1880.000000	42.078400
1879.000000	42.436800
1878.000000	42.826100
1877.000000	43.503700
1876.000000	43.597500
1875.000000	43.980100
1874.000000	44.376900
1873.000000	44.747800
1872.000000	44.791500
1871.000000	45.083400
1870.000000	45.247600
1869.000000	45.403900
1868.000000	45.777700
1867.000000	45.651600
1866.000000	45.574500
1865.000000	45.854200
1864.000000	46.141400
1863.000000	45.984900
1862.000000	46.122300
1861.000000	46.481000
1860.000000	46.855800
1859.000000	46.591400
1858.000000	46.505000
1857.000000	46.915200
1856.000000	46.829700
1855.000000	46.774400
1854.000000	47.026000
1853.000000	47.102900
1852.000000	46.747500
1851.000000	46.907700
1850.000000	47.144400
1849.000000	47.288500
1848.000000	47.656200
1847.000000	47.423800
1846.000000	46.902100
1845.000000	46.838500
1844.000000	46.981700
1843.000000	47.224500
1842.000000	47.401800
1841.000000	47.253200
1840.000000	47.048200
1839.000000	46.985800
1838.000000	47.120200
1837.000000	47.275600
1836.000000	47.153500
1835.000000	46.833200
1834.000000	46.652700
1833.000000	46.684100
1832.000000	46.867700
1831.000000	46.832600
1830.000000	46.677500
1829.000000	46.667800
1828.000000	46.678600
1827.000000	46.661800
1826.000000	46.693800
1825.000000	46.432100
1824.000000	46.388100
1823.000000	46.547300
1822.000000	46.707400
1821.000000	46.784000
1820.000000	46.683100
1819.000000	46.447100
1818.000000	46.491000
1817.000000	46.547000
1816.000000	46.571500
1815.000000	46.565500
1814.000000	46.437700
1813.000000	46.454100
1812.000000	46.528400
1811.000000	46.459300
1810.000000	46.331100
1809.000000	46.282200
1808.000000	46.308900
1807.000000	46.325000
1806.000000	46.296100
1805.000000	46.162800
1804.000000	46.145200
1803.000000	46.224000
1802.000000	46.207500
1801.000000	46.174900
1800.000000	46.074900
1799.000000	46.007500
1798.000000	45.974300
1797.000000	45.955900
1796.000000	45.952400
1795.000000	45.932800
1794.000000	45.883900
1793.000000	45.869200
1792.000000	45.850100
1791.000000	45.838400
1790.000000	45.798700
1789.000000	45.765100
1788.000000	45.779500
1787.000000	45.800400
1786.000000	45.785800
1785.000000	45.783600
1784.000000	45.799200
1783.000000	45.753200
1782.000000	45.753300
1781.000000	45.735800
1780.000000	45.688700
1779.000000	45.675600
1778.000000	45.635600
1777.000000	45.601900
1776.000000	45.551100
1775.000000	45.510700
1774.000000	45.462500
1773.000000	45.408300
1772.000000	45.355900
1771.000000	45.307100
1770.000000	45.239300
1769.000000	45.206100
1768.000000	45.147700
1767.000000	45.100400
1766.000000	45.076400
1765.000000	45.011400
1764.000000	44.968800
1763.000000	44.984100
1762.000000	44.959400
1761.000000	44.899600
1760.000000	44.892800
1759.000000	44.840500
1758.000000	44.813800
1757.000000	44.853900
1756.000000	44.863800
1755.000000	44.839100
1754.000000	44.817300
1753.000000	44.806800
1752.000000	44.811400
1751.000000	44.787900
1750.000000	44.728100
1749.000000	44.728800
1748.000000	44.679500
1747.000000	44.617000
1746.000000	44.584500
1745.000000	44.520100
1744.000000	44.472200
1743.000000	44.416200
1742.000000	44.354600
1741.000000	44.280200
1740.000000	44.183600
1739.000000	44.104600
1738.000000	44.039300
1737.000000	43.997400
1736.000000	43.958500
1735.000000	43.898600
1734.000000	43.853400
1733.000000	43.817000
1732.000000	43.795400
1731.000000	43.742600
1730.000000	43.715900
1729.000000	43.687100
1728.000000	43.639200
1727.000000	43.622800
1726.000000	43.624600
1725.000000	43.625800
1724.000000	43.621600
1723.000000	43.646800
1722.000000	43.715500
1721.000000	43.826800
1720.000000	44.001800
1719.000000	44.204000
1718.000000	44.426700
1717.000000	44.664300
1716.000000	44.876700
1715.000000	45.111900
1714.000000	45.316200
1713.000000	45.499600
1712.000000	45.689200
1711.000000	45.849300
1710.000000	45.980500
1709.000000	46.096900
1708.000000	46.186700
1707.000000	46.309300
1706.000000	46.367800
1705.000000	46.429000
1704.000000	46.520200
1703.000000	46.573900
1702.000000	46.568200
1701.000000	46.580100
1700.000000	46.624800
1699.000000	46.630000
1698.000000	46.618700
1697.000000	46.618200
1696.000000	46.618500
1695.000000	46.615300
1694.000000	46.534700
1693.000000	46.472200
1692.000000	46.439900
1691.000000	46.391200
1690.000000	46.290400
1689.000000	46.254100
1688.000000	46.265800
1687.000000	46.361900
1686.000000	46.474500
1685.000000	46.624900
1684.000000	46.799600
1683.000000	47.003200
1682.000000	47.228800
1681.000000	47.452400
1680.000000	47.662200
1679.000000	47.868100
1678.000000	48.088800
1677.000000	48.297100
1676.000000	48.462200
1675.000000	48.582000
1674.000000	48.756600
1673.000000	48.954800
1672.000000	49.142800
1671.000000	49.340600
1670.000000	49.506700
1669.000000	49.651600
1668.000000	49.814600
1667.000000	50.011300
1666.000000	50.153400
1665.000000	50.301000
1664.000000	50.434600
1663.000000	50.559900
1662.000000	50.684600
1661.000000	50.790900
1660.000000	50.906500
1659.000000	50.975900
1658.000000	51.089900
1657.000000	51.187000
1656.000000	51.225000
1655.000000	51.252200
1654.000000	51.307300
1653.000000	51.343900
1652.000000	51.361100
1651.000000	51.359500
1650.000000	51.385800
1649.000000	51.420300
1648.000000	51.378300
1647.000000	51.354100
1646.000000	51.348400
1645.000000	51.314200
1644.000000	51.280700
1643.000000	51.264200
1642.000000	51.233500
1641.000000	51.258500
1640.000000	51.229300
1639.000000	51.226200
1638.000000	51.187900
1637.000000	51.191700
1636.000000	51.171200
1635.000000	51.134700
1634.000000	51.095900
1633.000000	51.097000
1632.000000	51.056700
1631.000000	51.009900
1630.000000	50.924100
1629.000000	50.904500
1628.000000	50.874200
1627.000000	50.849600
1626.000000	50.795600
1625.000000	50.779600
1624.000000	50.722700
1623.000000	50.690500
1622.000000	50.622200
1621.000000	50.620900
1620.000000	50.590400
1619.000000	50.547800
1618.000000	50.528000
1617.000000	50.469900
1616.000000	50.450200
1615.000000	50.441000
1614.000000	50.405100
1613.000000	50.353600
1612.000000	50.301100
1611.000000	50.267400
1610.000000	50.232100
1609.000000	50.164700
1608.000000	50.118900
1607.000000	50.097800
1606.000000	50.003200
1605.000000	49.953600
1604.000000	49.872700
1603.000000	49.843600
1602.000000	49.748600
1601.000000	49.699200
1600.000000	49.631100
1599.000000	49.590000
1598.000000	49.523300
1597.000000	49.451700
1596.000000	49.395100
1595.000000	49.335200
1594.000000	49.298900
1593.000000	49.296200
1592.000000	49.211300
1591.000000	49.187000
1590.000000	49.139600
1589.000000	49.096700
1588.000000	49.063700
1587.000000	49.024300
1586.000000	48.978700
1585.000000	48.979000
1584.000000	48.916500
1583.000000	48.873800
1582.000000	48.830400
1581.000000	48.826200
1580.000000	48.806300
1579.000000	48.780700
1578.000000	48.755500
1577.000000	48.723500
1576.000000	48.738900
1575.000000	48.742500
1574.000000	48.723700
1573.000000	48.741900
1572.000000	48.736100
1571.000000	48.732700
1570.000000	48.755600
1569.000000	48.782900
1568.000000	48.790600
1567.000000	48.813300
1566.000000	48.831000
1565.000000	48.820700
1564.000000	48.830600
1563.000000	48.838900
1562.000000	48.829200
1561.000000	48.830500
1560.000000	48.822300
1559.000000	48.789800
1558.000000	48.772600
1557.000000	48.754900
1556.000000	48.683900
1555.000000	48.630900
1554.000000	48.567600
1553.000000	48.498700
1552.000000	48.408000
1551.000000	48.327600
1550.000000	48.256400
1549.000000	48.139300
1548.000000	48.061900
1547.000000	47.967200
1546.000000	47.900500
1545.000000	47.838800
1544.000000	47.773100
1543.000000	47.712900
1542.000000	47.660600
1541.000000	47.614000
1540.000000	47.562600
1539.000000	47.522900
1538.000000	47.479000
1537.000000	47.446300
1536.000000	47.406300
1535.000000	47.360600
1534.000000	47.295300
1533.000000	47.236900
1532.000000	47.188100
1531.000000	47.123700
1530.000000	47.063900
1529.000000	47.016100
1528.000000	46.963500
1527.000000	46.879400
1526.000000	46.848100
1525.000000	46.794900
1524.000000	46.724400
1523.000000	46.652500
1522.000000	46.593800
1521.000000	46.530200
1520.000000	46.471900
1519.000000	46.418600
1518.000000	46.338000
1517.000000	46.291900
1516.000000	46.242400
1515.000000	46.154600
1514.000000	46.102600
1513.000000	46.014300
1512.000000	45.937300
1511.000000	45.881300
1510.000000	45.832000
1509.000000	45.772000
1508.000000	45.704700
1507.000000	45.642500
1506.000000	45.595100
1505.000000	45.534600
1504.000000	45.468000
1503.000000	45.403000
1502.000000	45.356700
1501.000000	45.323100
1500.000000	45.286700
1499.000000	45.261200
1498.000000	45.216700
1497.000000	45.197100
1496.000000	45.196400
1495.000000	45.191100
1494.000000	45.206400
1493.000000	45.196500
1492.000000	45.208000
1491.000000	45.219600
1490.000000	45.231900
1489.000000	45.266600
1488.000000	45.308600
1487.000000	45.333700
1486.000000	45.358300
1485.000000	45.375100
1484.000000	45.385100
1483.000000	45.408900
1482.000000	45.456200
1481.000000	45.485300
1480.000000	45.508600
1479.000000	45.545800
1478.000000	45.585500
1477.000000	45.625100
1476.000000	45.644300
1475.000000	45.676100
1474.000000	45.734900
1473.000000	45.813100
1472.000000	45.880800
1471.000000	45.941400
1470.000000	46.008900
1469.000000	46.050300
1468.000000	46.100100
1467.000000	46.184900
1466.000000	46.259600
1465.000000	46.337500
1464.000000	46.405800
1463.000000	46.471100
1462.000000	46.559600
1461.000000	46.664400
1460.000000	46.744400
1459.000000	46.813500
1458.000000	46.906100
1457.000000	47.006800
1456.000000	47.087600
1455.000000	47.167600
1454.000000	47.248400
1453.000000	47.355100
1452.000000	47.476300
1451.000000	47.577500
1450.000000	47.640000
1449.000000	47.685600
1448.000000	47.763700
1447.000000	47.888000
1446.000000	48.042400
1445.000000	48.095100
1444.000000	48.127600
1443.000000	48.241200
1442.000000	48.359300
1441.000000	48.445900
1440.000000	48.547200
1439.000000	48.661800
1438.000000	48.803200
1437.000000	48.910200
1436.000000	49.000100
1435.000000	49.150700
1434.000000	49.307700
1433.000000	49.460200
1432.000000	49.631900
1431.000000	49.779900
1430.000000	49.929600
1429.000000	50.121800
1428.000000	50.317200
1427.000000	50.488300
1426.000000	50.688600
1425.000000	50.936100
1424.000000	51.216200
1423.000000	51.441300
1422.000000	51.645000
1421.000000	51.936800
1420.000000	52.273500
1419.000000	52.592300
1418.000000	52.819200
1417.000000	53.061200
1416.000000	53.439000
1415.000000	53.895200
1414.000000	54.247100
1413.000000	54.493100
1412.000000	54.833400
1411.000000	55.288500
1410.000000	55.787800
1409.000000	56.185600
1408.000000	56.571400
1407.000000	57.010700
1406.000000	57.418700
1405.000000	57.896200
1404.000000	58.269000
1403.000000	58.612000
1402.000000	59.138700
1401.000000	59.754700
1400.000000	60.070700
1399.000000	60.195600
1398.000000	60.581400
1397.000000	61.164700
1396.000000	61.662900
1395.000000	61.910200
1394.000000	62.086500
1393.000000	62.453500
1392.000000	62.865500
1391.000000	63.057000
1390.000000	63.349100
1389.000000	63.843400
1388.000000	64.245400
1387.000000	64.399200
1386.000000	64.703100
1385.000000	65.118800
1384.000000	65.416200
1383.000000	65.721200
1382.000000	65.867400
1381.000000	65.955200
1380.000000	66.077400
1379.000000	66.095500
1378.000000	66.278300
1377.000000	66.449500
1376.000000	66.567200
1375.000000	66.666000
1374.000000	66.767200
1373.000000	66.962000
1372.000000	67.215000
1371.000000	67.311500
1370.000000	67.308600
1369.000000	67.484700
1368.000000	67.706200
1367.000000	67.663500
1366.000000	67.805300
1365.000000	68.045900
1364.000000	67.973800
1363.000000	68.107500
1362.000000	68.487200
1361.000000	68.352600
1360.000000	68.226100
1359.000000	68.326800
1358.000000	68.433400
1357.000000	68.527000
1356.000000	68.602400
1355.000000	68.728000
1354.000000	68.768200
1353.000000	68.881200
1352.000000	69.036200
1351.000000	69.179500
1350.000000	69.366200
1349.000000	69.552700
1348.000000	69.751800
1347.000000	69.902400
1346.000000	70.033300
1345.000000	70.233500
1344.000000	70.396700
1343.000000	70.546500
1342.000000	70.693800
1341.000000	70.844900
1340.000000	71.010100
1339.000000	71.097200
1338.000000	71.259700
1337.000000	71.368200
1336.000000	71.502800
1335.000000	71.630600
1334.000000	71.728900
1333.000000	71.815100
1332.000000	71.909500
1331.000000	72.020000
1330.000000	72.094200
1329.000000	72.182700
1328.000000	72.255600
1327.000000	72.314100
1326.000000	72.397900
1325.000000	72.471700
1324.000000	72.531600
1323.000000	72.581100
1322.000000	72.636900
1321.000000	72.684500
1320.000000	72.759300
1319.000000	72.803200
1318.000000	72.851000
1317.000000	72.892600
1316.000000	72.937400
1315.000000	72.977400
1314.000000	73.029300
1313.000000	73.077600
1312.000000	73.125700
1311.000000	73.140200
1310.000000	73.180200
1309.000000	73.184600
1308.000000	73.223900
1307.000000	73.256800
1306.000000	73.254900
1305.000000	73.277700
1304.000000	73.290000
1303.000000	73.297500
1302.000000	73.311100
1301.000000	73.319200
1300.000000	73.320300
1299.000000	73.328800
1298.000000	73.326300
1297.000000	73.340600
1296.000000	73.306400
1295.000000	73.308100
1294.000000	73.300700
1293.000000	73.282700
1292.000000	73.277500
1291.000000	73.262000
1290.000000	73.221800
1289.000000	73.214800
1288.000000	73.179800
1287.000000	73.153700
1286.000000	73.124100
1285.000000	73.075000
1284.000000	73.059300
1283.000000	73.017300
1282.000000	72.991900
1281.000000	72.970700
1280.000000	72.917200
1279.000000	72.894500
1278.000000	72.869500
1277.000000	72.850600
1276.000000	72.834200
1275.000000	72.812200
1274.000000	72.798600
1273.000000	72.791500
1272.000000	72.786600
1271.000000	72.792300
1270.000000	72.799600
1269.000000	72.802900
1268.000000	72.807700
1267.000000	72.802200
1266.000000	72.806500
1265.000000	72.783400
1264.000000	72.800300
1263.000000	72.793700
1262.000000	72.788700
1261.000000	72.804600
1260.000000	72.813100
1259.000000	72.788500
1258.000000	72.789200
1257.000000	72.788100
1256.000000	72.787400
1255.000000	72.775000
1254.000000	72.755800
1253.000000	72.721100
1252.000000	72.715100
1251.000000	72.697500
1250.000000	72.670100
1249.000000	72.622900
1248.000000	72.573000
1247.000000	72.538400
1246.000000	72.493300
1245.000000	72.441600
1244.000000	72.397300
1243.000000	72.336800
1242.000000	72.305400
1241.000000	72.266000
1240.000000	72.214500
1239.000000	72.175000
1238.000000	72.139300
1237.000000	72.096500
1236.000000	72.073600
1235.000000	72.055200
1234.000000	72.009700
1233.000000	71.964900
1232.000000	71.926900
1231.000000	71.877800
1230.000000	71.842100
1229.000000	71.803600
1228.000000	71.766300
1227.000000	71.730400
1226.000000	71.691600
1225.000000	71.657200
1224.000000	71.611400
1223.000000	71.571500
1222.000000	71.529400
1221.000000	71.481800
1220.000000	71.433900
1219.000000	71.369300
1218.000000	71.315800
1217.000000	71.263500
1216.000000	71.227100
1215.000000	71.188500
1214.000000	71.129400
1213.000000	71.065200
1212.000000	71.003600
1211.000000	70.936800
1210.000000	70.869100
1209.000000	70.788000
1208.000000	70.712300
1207.000000	70.653600
1206.000000	70.581600
1205.000000	70.509300
1204.000000	70.439700
1203.000000	70.361400
1202.000000	70.290000
1201.000000	70.213400
1200.000000	70.127900
1199.000000	70.051200
1198.000000	69.991000
1197.000000	69.900800
1196.000000	69.808900
1195.000000	69.745700
1194.000000	69.670100
1193.000000	69.589000
1192.000000	69.521500
1191.000000	69.451000
1190.000000	69.386000
1189.000000	69.330000
1188.000000	69.288400
1187.000000	69.275000
1186.000000	69.270800
1185.000000	69.266700
1184.000000	69.270400
1183.000000	69.306100
1182.000000	69.358800
1181.000000	69.396800
1180.000000	69.434100
1179.000000	69.501800
1178.000000	69.578200
1177.000000	69.625700
1176.000000	69.676800
1175.000000	69.740600
1174.000000	69.822000
1173.000000	69.897700
1172.000000	69.958900
1171.000000	70.036800
1170.000000	70.114200
1169.000000	70.223600
1168.000000	70.335000
1167.000000	70.430000
1166.000000	70.544600
1165.000000	70.638700
1164.000000	70.752900
1163.000000	70.899800
1162.000000	70.998800
1161.000000	71.104700
1160.000000	71.235000
1159.000000	71.334400
1158.000000	71.441000
1157.000000	71.518300
1156.000000	71.616000
1155.000000	71.732800
1154.000000	71.785100
1153.000000	71.857500
1152.000000	71.918900
1151.000000	71.931200
1150.000000	71.978500
1149.000000	72.040200
1148.000000	72.068400
1147.000000	72.141300
1146.000000	72.167400
1145.000000	72.194600
1144.000000	72.224400
1143.000000	72.251100
1142.000000	72.315000
1141.000000	72.359000
1140.000000	72.408700
1139.000000	72.473700
1138.000000	72.535300
1137.000000	72.629700
1136.000000	72.765600
1135.000000	72.895800
1134.000000	72.927700
1133.000000	72.933200
1132.000000	72.989700
1131.000000	73.083900
1130.000000	73.158800
1129.000000	73.216400
1128.000000	73.220200
1127.000000	73.258800
1126.000000	73.274000
1125.000000	73.279300
1124.000000	73.310900
1123.000000	73.361600
1122.000000	73.378200
1121.000000	73.323900
1120.000000	73.336600
1119.000000	73.348900
1118.000000	73.312700
1117.000000	73.314800
1116.000000	73.282000
1115.000000	73.268600
1114.000000	73.249400
1113.000000	73.246000
1112.000000	73.203000
1111.000000	73.156700
1110.000000	73.132200
1109.000000	73.107000
1108.000000	73.097800
1107.000000	73.081500
1106.000000	73.074200
1105.000000	73.067900
1104.000000	73.043700
1103.000000	73.007900
1102.000000	72.968100
1101.000000	72.935600
1100.000000	72.902200
1099.000000	72.870500
1098.000000	72.824400
1097.000000	72.791900
1096.000000	72.781600
1095.000000	72.757600
1094.000000	72.734600
1093.000000	72.710300
1092.000000	72.693400
1091.000000	72.622600
1090.000000	72.616500
1089.000000	72.566100
1088.000000	72.501400
1087.000000	72.495900
1086.000000	72.407400
1085.000000	72.402900
1084.000000	72.329100
1083.000000	72.295600
1082.000000	72.287300
1081.000000	72.255400
1080.000000	72.218300
1079.000000	72.153400
1078.000000	72.108300
1077.000000	72.128200
1076.000000	72.078700
1075.000000	72.029900
1074.000000	72.000400
1073.000000	71.998100
1072.000000	72.001800
1071.000000	71.930900
1070.000000	71.905800
1069.000000	71.881500
1068.000000	71.845600
1067.000000	71.791500
1066.000000	71.785800
1065.000000	71.760500
1064.000000	71.770600
1063.000000	71.726300
1062.000000	71.673300
1061.000000	71.639800
1060.000000	71.578300
1059.000000	71.591000
1058.000000	71.524700
1057.000000	71.475000
1056.000000	71.487600
1055.000000	71.445700
1054.000000	71.402500
1053.000000	71.372200
1052.000000	71.307400
1051.000000	71.272900
1050.000000	71.188700
1049.000000	71.261400
1048.000000	71.179800
1047.000000	71.181200
1046.000000	71.145100
1045.000000	71.108300
1044.000000	71.067600
1043.000000	71.055500
1042.000000	70.984500
1041.000000	71.003700
1040.000000	71.011600
1039.000000	70.990600
1038.000000	70.933000
1037.000000	70.924300
1036.000000	70.920100
1035.000000	70.869200
1034.000000	70.902400
1033.000000	70.887200
1032.000000	70.869600
1031.000000	70.833600
1030.000000	70.803100
1029.000000	70.779100
1028.000000	70.760500
1027.000000	70.789000
1026.000000	70.775500
1025.000000	70.797700
1024.000000	70.777500
1023.000000	70.758400
1022.000000	70.758300
1021.000000	70.750400
1020.000000	70.744100
1019.000000	70.723400
1018.000000	70.686100
1017.000000	70.678300
1016.000000	70.693300
1015.000000	70.688300
1014.000000	70.701100
1013.000000	70.687800
1012.000000	70.676100
1011.000000	70.665800
1010.000000	70.637600
1009.000000	70.683900
1008.000000	70.677400
1007.000000	70.658500
1006.000000	70.629600
1005.000000	70.612600
1004.000000	70.593200
1003.000000	70.547600
1002.000000	70.585200
1001.000000	70.585100
1000.000000	70.539800
999.000000	70.531100
998.000000	70.538500
997.000000	70.527900
996.000000	70.502400
995.000000	70.530400
994.000000	70.513000
993.000000	70.503400
992.000000	70.541400
991.000000	70.511200
990.000000	70.530300
989.000000	70.486200
988.000000	70.479700
987.000000	70.490900
986.000000	70.570700
985.000000	70.575600
984.000000	70.516700
983.000000	70.513100
982.000000	70.573700
981.000000	70.544900
980.000000	70.571600
979.000000	70.595400
978.000000	70.585800
977.000000	70.606100
976.000000	70.615400
975.000000	70.671900
974.000000	70.694000
973.000000	70.702600
972.000000	70.674200
971.000000	70.685100
970.000000	70.727500
969.000000	70.733500
968.000000	70.655700
967.000000	70.745200
966.000000	70.768500
965.000000	70.803900
964.000000	70.862300
963.000000	70.847300
962.000000	70.890800
961.000000	70.838700
960.000000	70.857400
959.000000	70.870500
958.000000	70.850400
957.000000	70.894200
956.000000	70.884200
955.000000	70.912200
954.000000	70.905200
953.000000	70.898800
952.000000	70.958800
951.000000	70.934500
950.000000	70.988200
949.000000	71.072200
948.000000	70.994200
947.000000	70.938300
946.000000	70.968700
945.000000	71.064500
944.000000	71.109300
943.000000	71.166000
942.000000	71.195500
941.000000	71.120200
940.000000	71.094000
939.000000	71.165500
938.000000	71.299700
937.000000	71.306300
936.000000	71.230100
935.000000	71.300300
934.000000	71.349500
933.000000	71.292900
932.000000	71.371300
931.000000	71.408200
930.000000	71.401300
929.000000	71.387700
928.000000	71.369000
927.000000	71.325000
926.000000	71.389700
925.000000	71.578100
924.000000	71.603800
923.000000	71.597100
922.000000	71.520100
921.000000	71.596900
920.000000	71.746800
919.000000	71.781300
918.000000	71.876900
917.000000	72.067700
916.000000	71.967300
915.000000	72.039700
914.000000	72.250700
913.000000	72.323800
912.000000	72.297900
911.000000	72.392700
910.000000	72.426600
909.000000	72.502700
908.000000	72.698800
907.000000	72.813600
906.000000	72.655600
905.000000	72.656900
904.000000	72.984500
903.000000	73.153400
902.000000	73.234200
901.000000	73.147900
900.000000	73.182700
899.000000	73.433800
898.000000	73.784600
897.000000	73.774200
896.000000	73.753000
895.000000	74.025800
894.000000	74.222900
893.000000	73.964500
892.000000	73.976800
891.000000	73.901300
890.000000	74.516000
889.000000	74.500200
888.000000	74.538400
887.000000	75.002600
886.000000	75.128400
885.000000	75.402500
884.000000	75.466300
883.000000	75.716000
882.000000	75.968300
881.000000	76.194800
880.000000	76.344100
879.000000	76.251900
878.000000	76.635400
877.000000	76.949700
876.000000	77.163900
875.000000	76.961300
874.000000	76.730300
873.000000	77.255800
872.000000	77.393600
871.000000	77.459800
870.000000	78.474100
869.000000	78.660100
868.000000	78.730300
867.000000	79.166600
866.000000	79.558200
865.000000	79.165900
864.000000	78.526100
863.000000	79.284300
862.000000	80.208900
861.000000	80.855200
860.000000	80.454500
859.000000	80.373400
858.000000	78.337200
857.000000	80.014820
856.000000	79.974116
855.000000	79.849641
854.000000	80.044114
853.000000	80.456394
852.000000	80.817692
851.000000	80.966734
850.000000	81.211676
849.000000	81.041769
848.000000	81.282702
847.000000	81.383228
846.000000	81.876710
845.000000	82.083416
844.000000	82.328769
843.000000	82.577617
842.000000	82.866861
841.000000	83.247277
840.000000	83.631290
839.000000	84.152834
838.000000	84.304445
837.000000	84.742319
836.000000	85.122016
835.000000	85.363257
834.000000	85.650754
833.000000	86.228521
832.000000	86.466063
831.000000	87.178791
830.000000	87.595388
829.000000	88.076330
828.000000	88.269467
827.000000	88.982914
826.000000	89.331261
825.000000	89.955797
824.000000	90.361190
823.000000	90.591948
822.000000	91.093139
821.000000	91.671934
820.000000	92.092232
819.000000	92.520752
818.000000	93.285079
817.000000	93.553046
816.000000	93.606290
815.000000	94.143354
814.000000	94.789783
813.000000	95.008618
812.000000	95.277612
811.000000	95.628939
810.000000	96.004216
809.000000	96.571088
808.000000	96.884487
807.000000	97.147931
806.000000	97.577274
805.000000	97.891598
804.000000	98.167068
803.000000	98.469879
802.000000	98.983302
801.000000	99.322192
800.000000	99.436183
799.000000	100.010251
798.000000	100.361372
797.000000	100.569928
796.000000	100.968743
795.000000	101.050767
794.000000	101.244007
793.000000	101.607566
792.000000	101.981198
791.000000	102.040198
790.000000	102.211031
789.000000	102.605631
788.000000	103.001774
787.000000	102.982039
786.000000	103.194809
785.000000	103.172709
784.000000	103.328329
783.000000	103.546958
782.000000	103.743899
781.000000	103.891090
780.000000	103.955024
779.000000	104.054419
778.000000	104.039926
777.000000	104.272637
776.000000	104.432677
775.000000	104.395262
774.000000	104.495788
773.000000	104.512954
772.000000	104.532380
771.000000	104.678750
770.000000	104.539987
769.000000	104.691393
768.000000	104.860375
767.000000	104.690673
766.000000	104.797366
765.000000	104.804561
764.000000	104.725312
763.000000	104.624889
762.000000	104.641438
761.000000	104.620264
760.000000	104.549032
759.000000	104.399785
758.000000	104.188248
757.000000	104.204694
756.000000	103.993261
755.000000	104.018855
754.000000	103.835071
753.000000	103.630627
752.000000	103.541819
751.000000	103.251342
750.000000	103.236437
749.000000	103.185661
748.000000	103.004858
747.000000	102.935271
746.000000	102.666379
745.000000	102.632870
744.000000	102.421128
743.000000	102.246801
742.000000	102.101357
741.000000	101.906986
740.000000	101.669958
739.000000	101.541679
738.000000	101.209162
737.000000	101.045114
736.000000	100.764299
735.000000	100.486567
734.000000	100.139865
733.000000	99.962866
732.000000	99.687190
731.000000	99.234309
730.000000	98.866638
729.000000	98.696114
728.000000	98.299355
727.000000	97.896120
726.000000	97.672866
725.000000	97.321436
724.000000	96.990461
723.000000	96.599766
722.000000	96.188411
721.000000	95.873882
720.000000	95.462116
719.000000	95.021877
718.000000	94.578247
717.000000	94.214380
716.000000	93.754920
715.000000	93.293199
714.000000	92.815958
713.000000	92.288864
712.000000	91.764032
711.000000	91.275895
710.000000	90.723927
709.000000	90.143898
708.000000	89.578362
707.000000	89.030094
706.000000	88.458596
705.000000	87.915468
704.000000	87.331430
703.000000	86.849768
702.000000	86.311779
701.000000	85.793423
700.000000	85.322965
699.000000	84.900612
698.000000	84.421314
697.000000	83.995260
696.000000	83.608369
695.000000	83.177176
694.000000	82.784425
693.000000	82.411616
692.000000	81.995121
691.000000	81.548613
690.000000	81.088331
689.000000	80.560107
688.000000	80.056963
687.000000	79.531719
686.000000	78.991469
685.000000	78.389957
684.000000	77.822880
683.000000	77.249532
682.000000	76.710515
681.000000	76.073953
680.000000	75.438418
679.000000	74.910297
678.000000	74.312897
677.000000	73.789092
676.000000	73.284612
675.000000	72.788355
674.000000	72.326634
673.000000	71.868613
672.000000	71.445952
671.000000	71.014656
670.000000	70.598984
669.000000	70.168408
668.000000	69.782750
667.000000	69.405314
666.000000	68.998996
665.000000	68.595453
664.000000	68.221821
663.000000	67.808307
662.000000	67.364266
661.000000	66.968740
660.000000	66.614535
659.000000	66.219523
658.000000	65.891528
657.000000	65.588614
656.000000	65.304510
655.000000	65.089993
654.000000	64.863552
653.000000	64.702690
652.000000	64.595380
651.000000	64.502254
650.000000	64.463915
649.000000	64.446338
648.000000	64.428042
647.000000	64.434518
646.000000	64.480875
645.000000	64.488584
644.000000	64.460523
643.000000	64.418072
642.000000	64.290821
641.000000	64.142807
640.000000	63.968685
639.000000	63.722612
638.000000	63.456496
637.000000	63.155535
636.000000	62.817570
635.000000	62.449077
634.000000	62.101450
633.000000	61.747656
632.000000	61.363334
631.000000	61.004298
630.000000	60.673117
629.000000	60.391582
628.000000	60.133689
627.000000	59.920405
626.000000	59.733127
625.000000	59.600634
624.000000	59.509153
623.000000	59.472766
622.000000	59.471019
621.000000	59.475953
620.000000	59.504527
619.000000	59.560238
618.000000	59.644113
617.000000	59.743611
616.000000	59.864797
615.000000	60.029154
614.000000	60.187447
613.000000	60.360438
612.000000	60.579992
611.000000	60.852584
610.000000	61.194866
609.000000	61.576618
608.000000	61.990029
607.000000	62.465523
606.000000	62.991897
605.000000	63.576860
604.000000	64.180324
603.000000	64.841144
602.000000	65.514916
601.000000	66.190948
600.000000	66.888977
599.000000	67.588137
598.000000	68.265094
597.000000	68.952742
596.000000	69.598657
595.000000	70.239434
594.000000	70.900254
593.000000	71.510811
592.000000	72.113453
591.000000	72.732233
590.000000	73.293863
589.000000	73.798652
588.000000	74.323689
587.000000	74.775440
586.000000	75.209408
585.000000	75.628472
584.000000	76.036949
583.000000	76.405647
582.000000	76.721205
581.000000	77.040257
580.000000	77.335256
579.000000	77.586674
578.000000	77.809312
577.000000	77.979219
576.000000	78.203090
575.000000	78.332910
574.000000	78.419869
573.000000	78.568293
572.000000	78.694619
571.000000	78.750535
570.000000	78.820739
569.000000	78.869974
568.000000	78.875525
567.000000	78.887140
566.000000	78.855481
565.000000	78.781269
564.000000	78.706645
563.000000	78.658232
562.000000	78.531187
561.000000	78.392938
560.000000	78.231665
559.000000	78.144296
558.000000	77.968015
557.000000	77.797080
556.000000	77.615249
555.000000	77.369587
554.000000	77.120739
553.000000	76.865826
552.000000	76.558389
551.000000	76.261231
550.000000	75.924808
549.000000	75.579545
548.000000	75.227910
547.000000	74.849755
546.000000	74.445595
545.000000	73.972157
544.000000	73.502727
543.000000	73.010375
542.000000	72.434458
541.000000	71.865838
540.000000	71.201935
539.000000	70.518810
538.000000	69.819033
537.000000	69.057790
536.000000	68.262216
535.000000	67.412884
534.000000	66.507225
533.000000	65.584194
532.000000	64.612956
531.000000	63.642747
530.000000	62.621965
529.000000	61.617424
528.000000	60.565396
527.000000	59.536186
526.000000	58.490530
525.000000	57.496885
524.000000	56.511462
523.000000	55.516686
522.000000	54.512762
521.000000	53.550467
520.000000	52.631856
519.000000	51.747679
518.000000	50.865250
517.000000	50.005331
516.000000	49.182518
515.000000	48.366284
514.000000	47.608844
513.000000	46.845853
512.000000	46.110923
511.000000	45.408577
510.000000	44.769960
509.000000	44.135453
508.000000	43.515543
507.000000	42.932533
506.000000	42.368230
505.000000	41.814206
504.000000	41.326583
503.000000	40.794967
502.000000	40.310735
501.000000	39.833597
500.000000	39.339292
499.000000	38.929068
498.000000	38.510107
497.000000	38.105947
496.000000	37.745266
495.000000	37.386230
494.000000	37.040042
493.000000	36.714720
492.000000	36.394537
491.000000	36.076410
490.000000	35.797240
489.000000	35.518069
488.000000	35.241982
487.000000	35.005263
486.000000	34.753640
485.000000	34.489271
484.000000	34.239908
483.000000	33.982529
482.000000	33.757836
481.000000	33.478460
480.000000	33.249347
479.000000	32.980763
478.000000	32.710535
477.000000	32.456137
476.000000	32.172546
475.000000	31.917325
474.000000	31.685745
473.000000	31.439158
472.000000	31.161427
471.000000	30.906206
470.000000	30.637109
469.000000	30.383532
468.000000	30.107343
467.000000	29.839376
466.000000	29.572026
465.000000	29.284633
464.000000	28.991689
463.000000	28.650435
462.000000	28.342587
461.000000	28.032991
460.000000	27.676524
459.000000	27.319133
458.000000	26.972637
457.000000	26.584820
456.000000	26.193611
455.000000	25.799627
454.000000	25.386833
453.000000	24.938783
452.000000	24.501526
451.000000	24.058615
450.000000	23.589391
449.000000	23.161487
448.000000	22.658034
447.000000	22.141014
446.000000	21.648457
445.000000	21.104712
444.000000	20.580188
443.000000	20.076633
442.000000	19.548614
441.000000	19.011858
440.000000	18.473047
439.000000	17.937936
438.000000	17.414029
437.000000	16.930414
436.000000	16.430045
435.000000	15.918062
434.000000	15.430438
433.000000	14.942096
432.000000	14.475647
431.000000	14.028933
430.000000	13.593937
429.000000	13.169116
428.000000	12.776160
427.000000	12.390399
426.000000	12.017179
425.000000	11.684045
424.000000	11.350089
423.000000	11.038232
422.000000	10.729767
421.000000	10.467351
420.000000	10.211410
419.000000	9.951153
418.000000	9.726871
417.000000	9.514204
416.000000	9.304517
415.000000	9.105624
414.000000	8.942500
413.000000	8.786777
412.000000	8.647192
411.000000	8.513569
410.000000	8.389401
409.000000	8.266776
408.000000	8.155252
407.000000	8.068602
406.000000	7.968282
405.000000	7.875670
404.000000	7.811634
403.000000	7.738244
402.000000	7.655808
401.000000	7.616029
400.000000	7.554563
399.000000	7.511392
398.000000	7.449925
397.000000	7.403774
396.000000	7.369854
395.000000	7.329869
394.000000	7.306434
393.000000	7.254732
392.000000	7.202310
391.000000	7.170960
390.000000	7.129023
389.000000	7.110316
388.000000	7.081638
387.000000	7.031786
386.000000	6.986148
385.000000	6.960760
384.000000	6.931774
383.000000	6.885725
382.000000	6.830014
381.000000	6.792908
380.000000	6.767520
379.000000	6.742954
378.000000	6.727022
377.000000	6.681692
376.000000	6.614367
375.000000	6.463269
374.000000	6.364182
373.000000	6.388337
372.000000	6.440656
371.000000	6.392346
370.000000	6.384842
369.000000	6.334065
368.000000	6.393785
367.000000	6.366135
366.000000	6.329234
365.000000	6.361304
364.000000	6.321114
363.000000	6.231073
362.000000	6.238473
361.000000	6.238679
360.000000	6.159533
359.000000	6.152337
358.000000	6.169092
357.000000	6.111634
356.000000	6.076275
355.000000	6.069902
354.000000	6.074219
353.000000	6.047597
352.000000	6.019639
351.000000	5.961461
350.000000	5.958480
349.000000	5.978524
348.000000	5.953752
347.000000	5.884987
346.000000	5.918085
345.000000	5.918702
344.000000	5.949846
343.000000	5.893313
342.000000	5.804608
341.000000	5.838528
340.000000	5.907292
339.000000	5.930111
338.000000	5.974926
337.000000	5.894341
336.000000	5.840172
335.000000	5.872345
334.000000	5.939362
333.000000	6.013574
332.000000	5.982019
331.000000	5.949127
330.000000	5.939773
329.000000	5.942651
328.000000	5.941521
327.000000	5.891771
326.000000	5.948613
325.000000	5.994353
324.000000	6.051811
323.000000	6.068566
322.000000	6.010182
321.000000	6.007099
320.000000	5.993634
319.000000	5.848395
318.000000	5.830819
317.000000	6.118623
316.000000	5.945632
315.000000	5.660603
314.000000	5.710455
313.000000	5.720117
312.000000	5.697812
311.000000	5.728648
310.000000	5.723200
309.000000	5.746430
308.000000	5.761231
307.000000	5.749000
306.000000	5.750542
305.000000	5.714772
304.000000	5.705624
303.000000	5.695962
302.000000	5.689897
301.000000	5.695756
300.000000	5.721247
299.000000	5.756914
298.000000	5.800291
297.000000	5.776752
296.000000	5.756400
295.000000	5.778705
294.000000	5.803374
293.000000	5.810775
292.000000	5.797104
291.000000	5.777780
290.000000	5.792068
289.000000	5.847059
288.000000	5.834211
287.000000	5.798646
286.000000	5.795151
285.000000	5.779836
284.000000	5.819923
283.000000	5.837603
282.000000	5.854254
281.000000	5.841920
280.000000	5.867822
279.000000	5.891771
278.000000	5.897836
277.000000	5.911301
276.000000	5.845825
275.000000	5.886015
274.000000	5.916954
273.000000	5.935559
272.000000	5.961358
271.000000	5.971843
270.000000	5.981916
269.000000	6.031254
268.000000	6.030226
267.000000	6.011210
266.000000	6.053456
265.000000	6.092515
264.000000	6.094365
263.000000	6.133322
262.000000	6.140928
261.000000	6.191602
260.000000	6.243407
259.000000	6.263759
258.000000	6.269207
257.000000	6.288222
256.000000	6.314947
255.000000	6.357193
254.000000	6.328721
253.000000	6.320498
252.000000	6.406119
251.000000	6.413931
250.000000	6.404578
