PE UV       SUBTECH     SPECTRUM    ASCII       PEDS        4.00        
   -1
Sample2198.Sample.ASC
24/04/11
11:12:32.00
24/04/11
11:12:32.00
Vinicio Soto Monge

250,000000
1
Lambda 1050
1050L1511233
PerkinElmer UV WinLab 6.3.2.0749 / 2.02.05 Lambda 900 UV/VIS/NIR, Aug  7 2015 09:38:08

0
0
3350/2 860,8/2
0
0
UV/VIS
1
1
1
DoubleDePol,CommonBeamDepol,RBeamAtt,SBeamAtt,60mm sphere, WB InGaAs Detector
0
0
0
0
Program
Program
3350/2 860,8/2
3350/0,2 860,8/0,2
3350/0,2 860,8/0,2
0
15.00
 
 
 
0
 
860,8
319,2
860,8
Front
100
on
S:100 R:100
0
0
0
0
 
0
 
 
 
0
 
 
0
0
0
0
0
 
 
 
 
0
0


0
0
#HDR
-1
-1
#GR
nm
%R
1.0
0.0
2400,000000
-1,000000
2151
8
71,151513
4,927025
#DATA
2400.000000	22.429632
2399.000000	22.286228
2398.000000	22.650279
2397.000000	20.816964
2396.000000	22.507712
2395.000000	20.932679
2394.000000	22.391055
2393.000000	23.079177
2392.000000	21.844427
2391.000000	21.951908
2390.000000	22.229587
2389.000000	22.328145
2388.000000	21.703011
2387.000000	21.873582
2386.000000	22.406513
2385.000000	21.776864
2384.000000	21.233708
2383.000000	23.060708
2382.000000	22.107809
2381.000000	22.468520
2380.000000	22.904402
2379.000000	22.482056
2378.000000	22.511896
2377.000000	22.482524
2376.000000	22.680725
2375.000000	20.995334
2374.000000	21.533618
2373.000000	21.994265
2372.000000	21.825764
2371.000000	22.255493
2370.000000	22.665089
2369.000000	22.228269
2368.000000	22.267288
2367.000000	21.660715
2366.000000	22.115948
2365.000000	22.812159
2364.000000	22.948106
2363.000000	22.376473
2362.000000	22.056021
2361.000000	21.769409
2360.000000	21.431428
2359.000000	22.476371
2358.000000	22.203638
2357.000000	22.402922
2356.000000	22.191617
2355.000000	21.628181
2354.000000	21.620407
2353.000000	22.373798
2352.000000	23.059731
2351.000000	22.891325
2350.000000	22.453305
2349.000000	21.858007
2348.000000	21.869284
2347.000000	22.286058
2346.000000	21.928326
2345.000000	21.958503
2344.000000	21.900209
2343.000000	22.197095
2342.000000	22.186982
2341.000000	21.788758
2340.000000	21.747776
2339.000000	22.510861
2338.000000	22.486670
2337.000000	22.244978
2336.000000	22.102174
2335.000000	22.128438
2334.000000	22.355920
2333.000000	21.708437
2332.000000	21.193494
2331.000000	21.778474
2330.000000	22.528401
2329.000000	22.511672
2328.000000	22.365378
2327.000000	22.226978
2326.000000	22.524327
2325.000000	22.703842
2324.000000	22.860014
2323.000000	22.486191
2322.000000	22.955189
2321.000000	22.357821
2320.000000	22.377653
2319.000000	22.654906
2318.000000	22.879102
2317.000000	22.550544
2316.000000	22.836233
2315.000000	22.766865
2314.000000	22.388594
2313.000000	22.419067
2312.000000	22.064781
2311.000000	22.282767
2310.000000	22.420126
2309.000000	22.461739
2308.000000	22.050857
2307.000000	21.881714
2306.000000	22.202291
2305.000000	22.148667
2304.000000	21.989028
2303.000000	21.738683
2302.000000	21.181701
2301.000000	21.383502
2300.000000	21.453285
2299.000000	21.785711
2298.000000	21.744440
2297.000000	21.850005
2296.000000	22.304695
2295.000000	22.201271
2294.000000	22.170854
2293.000000	21.897889
2292.000000	21.617556
2291.000000	22.036570
2290.000000	22.214803
2289.000000	22.146956
2288.000000	21.709083
2287.000000	22.003513
2286.000000	22.451783
2285.000000	22.825612
2284.000000	22.511738
2283.000000	22.301337
2282.000000	22.139615
2281.000000	22.178618
2280.000000	22.285910
2279.000000	22.542774
2278.000000	22.425573
2277.000000	22.478667
2276.000000	22.415667
2275.000000	22.129215
2274.000000	22.611998
2273.000000	22.780978
2272.000000	22.255851
2271.000000	22.551149
2270.000000	22.694374
2269.000000	22.553996
2268.000000	22.751555
2267.000000	23.168957
2266.000000	23.084507
2265.000000	22.866946
2264.000000	23.050885
2263.000000	23.320462
2262.000000	23.589752
2261.000000	23.482960
2260.000000	23.536532
2259.000000	23.564636
2258.000000	23.974204
2257.000000	24.116155
2256.000000	23.949975
2255.000000	24.244093
2254.000000	24.655767
2253.000000	24.986590
2252.000000	24.971891
2251.000000	24.793642
2250.000000	25.041713
2249.000000	25.313228
2248.000000	25.269945
2247.000000	25.411350
2246.000000	25.757796
2245.000000	25.770200
2244.000000	25.672540
2243.000000	25.945239
2242.000000	26.169020
2241.000000	26.328313
2240.000000	26.155701
2239.000000	26.281245
2238.000000	26.431768
2237.000000	26.729194
2236.000000	26.789995
2235.000000	26.528854
2234.000000	26.407729
2233.000000	26.264435
2232.000000	26.390290
2231.000000	26.394805
2230.000000	26.583985
2229.000000	26.309026
2228.000000	26.419099
2227.000000	26.582912
2226.000000	26.182500
2225.000000	26.081924
2224.000000	26.095386
2223.000000	26.067363
2222.000000	26.296186
2221.000000	26.205450
2220.000000	26.328197
2219.000000	25.972712
2218.000000	25.837657
2217.000000	25.635188
2216.000000	25.577050
2215.000000	25.632189
2214.000000	25.304213
2213.000000	25.200213
2212.000000	25.113371
2211.000000	25.208385
2210.000000	25.540848
2209.000000	25.187812
2208.000000	24.997247
2207.000000	24.951058
2206.000000	24.963215
2205.000000	24.907211
2204.000000	24.667279
2203.000000	24.836721
2202.000000	25.067629
2201.000000	24.727296
2200.000000	24.319344
2199.000000	24.691844
2198.000000	24.657511
2197.000000	24.525881
2196.000000	24.518684
2195.000000	24.588159
2194.000000	24.352707
2193.000000	24.169804
2192.000000	24.008766
2191.000000	24.429676
2190.000000	24.523322
2189.000000	24.006360
2188.000000	24.147796
2187.000000	24.519320
2186.000000	24.183426
2185.000000	24.377069
2184.000000	24.195498
2183.000000	24.142252
2182.000000	24.090741
2181.000000	23.902850
2180.000000	24.074285
2179.000000	24.105873
2178.000000	23.755566
2177.000000	24.265743
2176.000000	24.054391
2175.000000	24.045339
2174.000000	24.431766
2173.000000	23.938700
2172.000000	24.036011
2171.000000	23.872936
2170.000000	24.384053
2169.000000	24.138400
2168.000000	24.280662
2167.000000	24.200640
2166.000000	24.143369
2165.000000	24.241620
2164.000000	24.379492
2163.000000	24.136489
2162.000000	23.923627
2161.000000	24.240833
2160.000000	24.581341
2159.000000	25.006713
2158.000000	24.897955
2157.000000	24.582457
2156.000000	24.224318
2155.000000	24.420455
2154.000000	24.559499
2153.000000	24.835187
2152.000000	24.562508
2151.000000	25.325197
2150.000000	25.232429
2149.000000	25.942936
2148.000000	25.131446
2147.000000	25.594245
2146.000000	26.001604
2145.000000	25.588342
2144.000000	26.041734
2143.000000	25.722011
2142.000000	26.268452
2141.000000	25.936928
2140.000000	26.261655
2139.000000	26.566014
2138.000000	26.390791
2137.000000	26.703390
2136.000000	26.827117
2135.000000	27.026107
2134.000000	26.486504
2133.000000	26.975354
2132.000000	26.720016
2131.000000	26.954359
2130.000000	27.302675
2129.000000	26.850857
2128.000000	27.395187
2127.000000	26.986001
2126.000000	27.526061
2125.000000	27.152728
2124.000000	27.303823
2123.000000	27.605316
2122.000000	27.404653
2121.000000	27.557236
2120.000000	27.563300
2119.000000	27.395323
2118.000000	27.406146
2117.000000	27.398386
2116.000000	27.434311
2115.000000	27.471629
2114.000000	27.664642
2113.000000	27.931156
2112.000000	27.696482
2111.000000	27.434972
2110.000000	27.585803
2109.000000	27.555401
2108.000000	27.728634
2107.000000	27.580229
2106.000000	27.464557
2105.000000	27.618210
2104.000000	27.495578
2103.000000	27.493011
2102.000000	27.564523
2101.000000	27.408803
2100.000000	27.670772
2099.000000	27.441257
2098.000000	27.613996
2097.000000	27.492525
2096.000000	27.174163
2095.000000	27.168949
2094.000000	27.587704
2093.000000	27.544636
2092.000000	27.671418
2091.000000	27.679637
2090.000000	27.634491
2089.000000	27.572138
2088.000000	27.823578
2087.000000	27.563706
2086.000000	27.314241
2085.000000	27.669392
2084.000000	27.762579
2083.000000	27.731659
2082.000000	27.907011
2081.000000	27.722620
2080.000000	27.469531
2079.000000	27.360299
2078.000000	27.254816
2077.000000	27.270512
2076.000000	27.332049
2075.000000	27.439682
2074.000000	27.235521
2073.000000	27.034686
2072.000000	26.957632
2071.000000	26.996115
2070.000000	26.637819
2069.000000	26.711138
2068.000000	26.664633
2067.000000	26.490515
2066.000000	26.424617
2065.000000	26.210654
2064.000000	26.193556
2063.000000	26.157269
2062.000000	25.795233
2061.000000	25.801571
2060.000000	25.681236
2059.000000	25.772431
2058.000000	25.707116
2057.000000	25.419945
2056.000000	25.360348
2055.000000	25.367870
2054.000000	25.655231
2053.000000	25.729576
2052.000000	25.484281
2051.000000	25.430458
2050.000000	25.635792
2049.000000	25.717233
2048.000000	25.808963
2047.000000	26.086072
2046.000000	26.174189
2045.000000	26.062416
2044.000000	26.282809
2043.000000	26.513010
2042.000000	26.685974
2041.000000	26.956640
2040.000000	27.166359
2039.000000	27.220679
2038.000000	27.214226
2037.000000	27.391509
2036.000000	27.413668
2035.000000	27.694641
2034.000000	27.797264
2033.000000	27.800798
2032.000000	27.928036
2031.000000	27.938899
2030.000000	28.024753
2029.000000	28.090848
2028.000000	28.250123
2027.000000	28.377611
2026.000000	28.460778
2025.000000	28.591591
2024.000000	28.600518
2023.000000	28.610541
2022.000000	28.743341
2021.000000	28.793152
2020.000000	28.878527
2019.000000	28.932506
2018.000000	28.826195
2017.000000	28.921966
2016.000000	29.055723
2015.000000	28.963890
2014.000000	28.923494
2013.000000	28.950884
2012.000000	29.015423
2011.000000	28.938223
2010.000000	28.863631
2009.000000	28.898391
2008.000000	28.863883
2007.000000	28.821937
2006.000000	28.840903
2005.000000	28.810245
2004.000000	28.723813
2003.000000	28.694722
2002.000000	28.646228
2001.000000	28.544933
2000.000000	28.488732
1999.000000	28.533514
1998.000000	28.414863
1997.000000	28.297784
1996.000000	28.213459
1995.000000	28.191003
1994.000000	28.102719
1993.000000	27.935318
1992.000000	27.839681
1991.000000	27.804232
1990.000000	27.683422
1989.000000	27.564121
1988.000000	27.479970
1987.000000	27.420089
1986.000000	27.371667
1985.000000	27.236267
1984.000000	27.050749
1983.000000	26.870819
1982.000000	26.903800
1981.000000	26.802903
1980.000000	26.589344
1979.000000	26.505034
1978.000000	26.465732
1977.000000	26.370305
1976.000000	26.284550
1975.000000	26.130225
1974.000000	26.069979
1973.000000	25.983260
1972.000000	25.932413
1971.000000	25.825499
1970.000000	25.712073
1969.000000	25.657834
1968.000000	25.611294
1967.000000	25.529289
1966.000000	25.371288
1965.000000	25.298469
1964.000000	25.192735
1963.000000	25.094500
1962.000000	25.062626
1961.000000	24.932689
1960.000000	24.820501
1959.000000	24.750099
1958.000000	24.594389
1957.000000	24.505169
1956.000000	24.435229
1955.000000	24.394469
1954.000000	24.251754
1953.000000	24.133534
1952.000000	24.023328
1951.000000	24.037892
1950.000000	23.914427
1949.000000	23.805758
1948.000000	23.751148
1947.000000	23.679661
1946.000000	23.616261
1945.000000	23.470397
1944.000000	23.434940
1943.000000	23.439260
1942.000000	23.458398
1941.000000	23.329361
1940.000000	23.318284
1939.000000	23.335361
1938.000000	23.335893
1937.000000	23.334632
1936.000000	23.297785
1935.000000	23.385296
1934.000000	23.351264
1933.000000	23.414275
1932.000000	23.364674
1931.000000	23.421085
1930.000000	23.548948
1929.000000	23.609004
1928.000000	23.728482
1927.000000	23.809923
1926.000000	24.013664
1925.000000	24.152513
1924.000000	24.203562
1923.000000	24.527147
1922.000000	24.459098
1921.000000	24.741939
1920.000000	25.169723
1919.000000	25.302600
1918.000000	25.391217
1917.000000	25.663175
1916.000000	25.933545
1915.000000	26.125373
1914.000000	26.529962
1913.000000	26.786661
1912.000000	27.084851
1911.000000	27.277076
1910.000000	27.592804
1909.000000	28.090050
1908.000000	28.415986
1907.000000	28.845368
1906.000000	29.402555
1905.000000	29.832596
1904.000000	30.186975
1903.000000	30.747279
1902.000000	31.265192
1901.000000	31.605103
1900.000000	32.171551
1899.000000	32.900232
1898.000000	33.515220
1897.000000	34.069450
1896.000000	34.581991
1895.000000	35.071083
1894.000000	35.724639
1893.000000	36.350684
1892.000000	36.924027
1891.000000	37.466381
1890.000000	38.215524
1889.000000	38.718459
1888.000000	39.188587
1887.000000	39.730548
1886.000000	40.330900
1885.000000	40.701571
1884.000000	41.365938
1883.000000	41.792103
1882.000000	42.177764
1881.000000	42.506534
1880.000000	42.910118
1879.000000	43.241893
1878.000000	43.577177
1877.000000	43.934779
1876.000000	44.253389
1875.000000	44.447070
1874.000000	44.537332
1873.000000	44.973137
1872.000000	45.032651
1871.000000	45.239428
1870.000000	45.596522
1869.000000	45.554545
1868.000000	45.873492
1867.000000	46.138881
1866.000000	46.149044
1865.000000	46.200983
1864.000000	46.424005
1863.000000	46.482200
1862.000000	46.528543
1861.000000	46.569132
1860.000000	46.776825
1859.000000	46.857372
1858.000000	46.862185
1857.000000	46.971591
1856.000000	47.081942
1855.000000	47.026794
1854.000000	47.163281
1853.000000	47.243792
1852.000000	47.214911
1851.000000	47.185822
1850.000000	47.218258
1849.000000	47.206518
1848.000000	47.251712
1847.000000	47.284952
1846.000000	47.197164
1845.000000	47.196639
1844.000000	47.121453
1843.000000	47.155002
1842.000000	47.306739
1841.000000	47.261154
1840.000000	47.143273
1839.000000	47.162175
1838.000000	46.996136
1837.000000	47.051650
1836.000000	47.087248
1835.000000	47.042366
1834.000000	46.956521
1833.000000	46.985311
1832.000000	46.975043
1831.000000	46.948637
1830.000000	46.920344
1829.000000	46.841622
1828.000000	46.821219
1827.000000	46.823772
1826.000000	46.863221
1825.000000	46.804246
1824.000000	46.737517
1823.000000	46.708481
1822.000000	46.705101
1821.000000	46.745728
1820.000000	46.859380
1819.000000	46.768906
1818.000000	46.677544
1817.000000	46.674028
1816.000000	46.685680
1815.000000	46.721105
1814.000000	46.672752
1813.000000	46.677893
1812.000000	46.684359
1811.000000	46.662888
1810.000000	46.627105
1809.000000	46.572008
1808.000000	46.611148
1807.000000	46.592146
1806.000000	46.589253
1805.000000	46.566512
1804.000000	46.502942
1803.000000	46.474779
1802.000000	46.482017
1801.000000	46.488311
1800.000000	46.473690
1799.000000	46.434758
1798.000000	46.386581
1797.000000	46.323096
1796.000000	46.350989
1795.000000	46.377361
1794.000000	46.335952
1793.000000	46.344046
1792.000000	46.281934
1791.000000	46.310047
1790.000000	46.321760
1789.000000	46.304706
1788.000000	46.267543
1787.000000	46.279718
1786.000000	46.261824
1785.000000	46.294826
1784.000000	46.265883
1783.000000	46.289582
1782.000000	46.259183
1781.000000	46.275142
1780.000000	46.265274
1779.000000	46.223357
1778.000000	46.189922
1777.000000	46.184432
1776.000000	46.121438
1775.000000	46.084923
1774.000000	46.110692
1773.000000	46.059639
1772.000000	46.032434
1771.000000	45.981189
1770.000000	45.946980
1769.000000	45.907369
1768.000000	45.867513
1767.000000	45.819406
1766.000000	45.733472
1765.000000	45.710283
1764.000000	45.722017
1763.000000	45.705336
1762.000000	45.695340
1761.000000	45.688329
1760.000000	45.675030
1759.000000	45.657613
1758.000000	45.653290
1757.000000	45.673858
1756.000000	45.677450
1755.000000	45.669479
1754.000000	45.660046
1753.000000	45.652778
1752.000000	45.640987
1751.000000	45.592829
1750.000000	45.574603
1749.000000	45.553226
1748.000000	45.493855
1747.000000	45.461918
1746.000000	45.409816
1745.000000	45.361300
1744.000000	45.327638
1743.000000	45.280303
1742.000000	45.203152
1741.000000	45.123470
1740.000000	45.079590
1739.000000	45.041705
1738.000000	45.000863
1737.000000	44.964666
1736.000000	44.885852
1735.000000	44.845388
1734.000000	44.832644
1733.000000	44.811492
1732.000000	44.788636
1731.000000	44.761081
1730.000000	44.755358
1729.000000	44.725880
1728.000000	44.688146
1727.000000	44.666905
1726.000000	44.660993
1725.000000	44.638624
1724.000000	44.685997
1723.000000	44.755846
1722.000000	44.811455
1721.000000	44.940762
1720.000000	45.123475
1719.000000	45.290777
1718.000000	45.455250
1717.000000	45.652931
1716.000000	45.855166
1715.000000	46.046817
1714.000000	46.212855
1713.000000	46.382725
1712.000000	46.526404
1711.000000	46.628560
1710.000000	46.706181
1709.000000	46.820718
1708.000000	46.950645
1707.000000	47.008621
1706.000000	47.043804
1705.000000	47.073846
1704.000000	47.098411
1703.000000	47.160489
1702.000000	47.192725
1701.000000	47.181761
1700.000000	47.194126
1699.000000	47.218254
1698.000000	47.224761
1697.000000	47.196876
1696.000000	47.192042
1695.000000	47.180606
1694.000000	47.190689
1693.000000	47.111471
1692.000000	47.059525
1691.000000	47.025244
1690.000000	47.001783
1689.000000	47.020984
1688.000000	47.059950
1687.000000	47.133318
1686.000000	47.299114
1685.000000	47.478599
1684.000000	47.653862
1683.000000	47.854181
1682.000000	48.052480
1681.000000	48.253140
1680.000000	48.484077
1679.000000	48.697831
1678.000000	48.829315
1677.000000	49.026399
1676.000000	49.242500
1675.000000	49.381013
1674.000000	49.554820
1673.000000	49.701861
1672.000000	49.880083
1671.000000	50.008345
1670.000000	50.203962
1669.000000	50.400786
1668.000000	50.564299
1667.000000	50.676004
1666.000000	50.804859
1665.000000	50.946137
1664.000000	51.089393
1663.000000	51.210294
1662.000000	51.327311
1661.000000	51.430449
1660.000000	51.574878
1659.000000	51.606867
1658.000000	51.670913
1657.000000	51.733262
1656.000000	51.785161
1655.000000	51.844182
1654.000000	51.891033
1653.000000	51.931388
1652.000000	51.945466
1651.000000	51.927714
1650.000000	51.920257
1649.000000	51.958853
1648.000000	51.959783
1647.000000	51.917492
1646.000000	51.897122
1645.000000	51.913632
1644.000000	51.882521
1643.000000	51.863543
1642.000000	51.858904
1641.000000	51.871696
1640.000000	51.877401
1639.000000	51.856807
1638.000000	51.839808
1637.000000	51.802445
1636.000000	51.776877
1635.000000	51.747233
1634.000000	51.720752
1633.000000	51.707796
1632.000000	51.650141
1631.000000	51.609987
1630.000000	51.576072
1629.000000	51.539542
1628.000000	51.513379
1627.000000	51.485290
1626.000000	51.438530
1625.000000	51.373963
1624.000000	51.347882
1623.000000	51.303334
1622.000000	51.301542
1621.000000	51.258023
1620.000000	51.187304
1619.000000	51.139125
1618.000000	51.116770
1617.000000	51.068635
1616.000000	51.056056
1615.000000	51.044666
1614.000000	50.983533
1613.000000	50.964347
1612.000000	50.887487
1611.000000	50.877613
1610.000000	50.797488
1609.000000	50.730215
1608.000000	50.654219
1607.000000	50.614875
1606.000000	50.535784
1605.000000	50.486343
1604.000000	50.407112
1603.000000	50.325137
1602.000000	50.242842
1601.000000	50.183885
1600.000000	50.102303
1599.000000	50.083045
1598.000000	50.019483
1597.000000	49.918643
1596.000000	49.850682
1595.000000	49.803444
1594.000000	49.733806
1593.000000	49.665794
1592.000000	49.622830
1591.000000	49.530887
1590.000000	49.488465
1589.000000	49.448624
1588.000000	49.360278
1587.000000	49.312166
1586.000000	49.296310
1585.000000	49.278761
1584.000000	49.221596
1583.000000	49.129418
1582.000000	49.105235
1581.000000	49.072616
1580.000000	49.037690
1579.000000	49.022778
1578.000000	49.027576
1577.000000	48.987991
1576.000000	48.923567
1575.000000	48.935111
1574.000000	48.922800
1573.000000	48.891506
1572.000000	48.881253
1571.000000	48.874211
1570.000000	48.906999
1569.000000	48.930823
1568.000000	48.942415
1567.000000	48.920360
1566.000000	48.917293
1565.000000	48.960455
1564.000000	48.979576
1563.000000	48.956366
1562.000000	48.943501
1561.000000	48.932698
1560.000000	48.911968
1559.000000	48.880624
1558.000000	48.870272
1557.000000	48.771505
1556.000000	48.766475
1555.000000	48.698715
1554.000000	48.648737
1553.000000	48.557069
1552.000000	48.501541
1551.000000	48.402836
1550.000000	48.341960
1549.000000	48.253255
1548.000000	48.207901
1547.000000	48.113372
1546.000000	48.013071
1545.000000	47.961603
1544.000000	47.919308
1543.000000	47.880833
1542.000000	47.833650
1541.000000	47.778308
1540.000000	47.726372
1539.000000	47.705030
1538.000000	47.663540
1537.000000	47.603259
1536.000000	47.583300
1535.000000	47.536034
1534.000000	47.499131
1533.000000	47.451227
1532.000000	47.388639
1531.000000	47.341213
1530.000000	47.273715
1529.000000	47.217692
1528.000000	47.190436
1527.000000	47.151692
1526.000000	47.079059
1525.000000	47.016871
1524.000000	46.957188
1523.000000	46.889669
1522.000000	46.855771
1521.000000	46.779105
1520.000000	46.733930
1519.000000	46.651284
1518.000000	46.588965
1517.000000	46.524362
1516.000000	46.460763
1515.000000	46.396067
1514.000000	46.347621
1513.000000	46.274209
1512.000000	46.212751
1511.000000	46.154240
1510.000000	46.081192
1509.000000	46.030267
1508.000000	45.948295
1507.000000	45.890053
1506.000000	45.821083
1505.000000	45.763466
1504.000000	45.709858
1503.000000	45.674932
1502.000000	45.653049
1501.000000	45.615186
1500.000000	45.567860
1499.000000	45.543619
1498.000000	45.513493
1497.000000	45.487421
1496.000000	45.489767
1495.000000	45.503401
1494.000000	45.494203
1493.000000	45.489674
1492.000000	45.508051
1491.000000	45.537749
1490.000000	45.553622
1489.000000	45.592254
1488.000000	45.620404
1487.000000	45.634468
1486.000000	45.670734
1485.000000	45.700548
1484.000000	45.742908
1483.000000	45.774358
1482.000000	45.799845
1481.000000	45.829741
1480.000000	45.854040
1479.000000	45.890556
1478.000000	45.952114
1477.000000	45.999261
1476.000000	46.038915
1475.000000	46.073609
1474.000000	46.088714
1473.000000	46.137738
1472.000000	46.210054
1471.000000	46.273556
1470.000000	46.349300
1469.000000	46.395323
1468.000000	46.443057
1467.000000	46.522279
1466.000000	46.601626
1465.000000	46.668736
1464.000000	46.744574
1463.000000	46.821757
1462.000000	46.909432
1461.000000	46.994920
1460.000000	47.060248
1459.000000	47.132698
1458.000000	47.219777
1457.000000	47.317994
1456.000000	47.407383
1455.000000	47.484565
1454.000000	47.563608
1453.000000	47.670037
1452.000000	47.740403
1451.000000	47.807974
1450.000000	47.889832
1449.000000	47.986369
1448.000000	48.070436
1447.000000	48.143581
1446.000000	48.278044
1445.000000	48.372421
1444.000000	48.423645
1443.000000	48.524442
1442.000000	48.617806
1441.000000	48.700049
1440.000000	48.803590
1439.000000	48.903462
1438.000000	49.021801
1437.000000	49.131414
1436.000000	49.210410
1435.000000	49.335348
1434.000000	49.480964
1433.000000	49.602682
1432.000000	49.741910
1431.000000	49.899221
1430.000000	50.038220
1429.000000	50.200588
1428.000000	50.378885
1427.000000	50.523051
1426.000000	50.700715
1425.000000	50.890928
1424.000000	51.092496
1423.000000	51.343105
1422.000000	51.557681
1421.000000	51.779358
1420.000000	52.025171
1419.000000	52.309821
1418.000000	52.590118
1417.000000	52.823697
1416.000000	53.071895
1415.000000	53.403624
1414.000000	53.774175
1413.000000	54.055037
1412.000000	54.387845
1411.000000	54.722256
1410.000000	55.103361
1409.000000	55.458027
1408.000000	55.797159
1407.000000	56.200827
1406.000000	56.549380
1405.000000	56.988176
1404.000000	57.394564
1403.000000	57.697609
1402.000000	57.992791
1401.000000	58.426192
1400.000000	58.851631
1399.000000	59.154400
1398.000000	59.412898
1397.000000	59.689757
1396.000000	60.123215
1395.000000	60.542350
1394.000000	60.763492
1393.000000	60.979252
1392.000000	61.378217
1391.000000	61.650476
1390.000000	61.915025
1389.000000	62.183564
1388.000000	62.553673
1387.000000	62.787956
1386.000000	62.985544
1385.000000	63.275555
1384.000000	63.430834
1383.000000	63.720237
1382.000000	63.930840
1381.000000	64.117868
1380.000000	64.269329
1379.000000	64.373373
1378.000000	64.490446
1377.000000	64.613646
1376.000000	64.728886
1375.000000	64.850753
1374.000000	64.884819
1373.000000	64.971131
1372.000000	65.116894
1371.000000	65.317487
1370.000000	65.392387
1369.000000	65.406634
1368.000000	65.592021
1367.000000	65.696050
1366.000000	65.717445
1365.000000	65.864309
1364.000000	65.975467
1363.000000	65.933103
1362.000000	66.131164
1361.000000	66.249148
1360.000000	66.249371
1359.000000	66.306128
1358.000000	66.409586
1357.000000	66.508024
1356.000000	66.562723
1355.000000	66.696979
1354.000000	66.816141
1353.000000	66.954168
1352.000000	67.106773
1351.000000	67.238431
1350.000000	67.410549
1349.000000	67.560651
1348.000000	67.746964
1347.000000	67.905834
1346.000000	68.054628
1345.000000	68.214081
1344.000000	68.381424
1343.000000	68.493450
1342.000000	68.604189
1341.000000	68.717301
1340.000000	68.851646
1339.000000	68.981777
1338.000000	69.067424
1337.000000	69.179330
1336.000000	69.308694
1335.000000	69.382436
1334.000000	69.446156
1333.000000	69.534965
1332.000000	69.648013
1331.000000	69.717849
1330.000000	69.765268
1329.000000	69.873835
1328.000000	69.952921
1327.000000	69.996188
1326.000000	70.054224
1325.000000	70.104624
1324.000000	70.149876
1323.000000	70.201762
1322.000000	70.245839
1321.000000	70.292828
1320.000000	70.350567
1319.000000	70.382042
1318.000000	70.417079
1317.000000	70.459382
1316.000000	70.484642
1315.000000	70.509603
1314.000000	70.544450
1313.000000	70.577478
1312.000000	70.586986
1311.000000	70.624452
1310.000000	70.635894
1309.000000	70.665078
1308.000000	70.696126
1307.000000	70.701379
1306.000000	70.720760
1305.000000	70.721601
1304.000000	70.749314
1303.000000	70.751811
1302.000000	70.737523
1301.000000	70.758325
1300.000000	70.748619
1299.000000	70.721343
1298.000000	70.732452
1297.000000	70.757588
1296.000000	70.743077
1295.000000	70.734340
1294.000000	70.707838
1293.000000	70.692029
1292.000000	70.690351
1291.000000	70.658498
1290.000000	70.636602
1289.000000	70.638865
1288.000000	70.608921
1287.000000	70.597645
1286.000000	70.579539
1285.000000	70.553932
1284.000000	70.570366
1283.000000	70.524349
1282.000000	70.489877
1281.000000	70.440272
1280.000000	70.430514
1279.000000	70.409472
1278.000000	70.396446
1277.000000	70.382406
1276.000000	70.346100
1275.000000	70.347018
1274.000000	70.349000
1273.000000	70.356880
1272.000000	70.368509
1271.000000	70.374309
1270.000000	70.354890
1269.000000	70.367510
1268.000000	70.367734
1267.000000	70.375843
1266.000000	70.365983
1265.000000	70.373782
1264.000000	70.379297
1263.000000	70.373627
1262.000000	70.364514
1261.000000	70.364328
1260.000000	70.351950
1259.000000	70.350176
1258.000000	70.349645
1257.000000	70.324800
1256.000000	70.332826
1255.000000	70.332784
1254.000000	70.293968
1253.000000	70.276238
1252.000000	70.266392
1251.000000	70.258235
1250.000000	70.227977
1249.000000	70.209708
1248.000000	70.189826
1247.000000	70.143213
1246.000000	70.096851
1245.000000	70.050136
1244.000000	70.023065
1243.000000	69.981459
1242.000000	69.940959
1241.000000	69.923173
1240.000000	69.867117
1239.000000	69.835012
1238.000000	69.812639
1237.000000	69.787798
1236.000000	69.764729
1235.000000	69.749583
1234.000000	69.722632
1233.000000	69.699114
1232.000000	69.678415
1231.000000	69.654531
1230.000000	69.621218
1229.000000	69.613115
1228.000000	69.581536
1227.000000	69.547755
1226.000000	69.522099
1225.000000	69.478782
1224.000000	69.435677
1223.000000	69.409429
1222.000000	69.378907
1221.000000	69.370615
1220.000000	69.324216
1219.000000	69.267533
1218.000000	69.225808
1217.000000	69.193555
1216.000000	69.159532
1215.000000	69.125325
1214.000000	69.069574
1213.000000	69.025755
1212.000000	68.995221
1211.000000	68.947171
1210.000000	68.889182
1209.000000	68.822825
1208.000000	68.771416
1207.000000	68.741867
1206.000000	68.709585
1205.000000	68.640953
1204.000000	68.581090
1203.000000	68.516408
1202.000000	68.464439
1201.000000	68.415137
1200.000000	68.351563
1199.000000	68.314499
1198.000000	68.243229
1197.000000	68.163341
1196.000000	68.115587
1195.000000	68.050362
1194.000000	67.985318
1193.000000	67.907256
1192.000000	67.844924
1191.000000	67.795394
1190.000000	67.732808
1189.000000	67.695940
1188.000000	67.656883
1187.000000	67.602626
1186.000000	67.595133
1185.000000	67.605900
1184.000000	67.621253
1183.000000	67.651197
1182.000000	67.696033
1181.000000	67.721682
1180.000000	67.748611
1179.000000	67.818920
1178.000000	67.879109
1177.000000	67.899744
1176.000000	67.939128
1175.000000	67.990611
1174.000000	68.031477
1173.000000	68.108452
1172.000000	68.195313
1171.000000	68.225201
1170.000000	68.290146
1169.000000	68.378504
1168.000000	68.453877
1167.000000	68.539428
1166.000000	68.628755
1165.000000	68.740181
1164.000000	68.838008
1163.000000	68.913792
1162.000000	69.015786
1161.000000	69.132946
1160.000000	69.219661
1159.000000	69.314671
1158.000000	69.382102
1157.000000	69.460944
1156.000000	69.550347
1155.000000	69.591885
1154.000000	69.652328
1153.000000	69.706834
1152.000000	69.774249
1151.000000	69.816562
1150.000000	69.862549
1149.000000	69.903041
1148.000000	69.932965
1147.000000	69.956827
1146.000000	69.990621
1145.000000	70.068842
1144.000000	70.101106
1143.000000	70.165982
1142.000000	70.215457
1141.000000	70.262494
1140.000000	70.313628
1139.000000	70.406248
1138.000000	70.466464
1137.000000	70.536457
1136.000000	70.577132
1135.000000	70.686269
1134.000000	70.792103
1133.000000	70.823123
1132.000000	70.888871
1131.000000	70.938206
1130.000000	71.006960
1129.000000	71.025435
1128.000000	71.078857
1127.000000	71.137506
1126.000000	71.135160
1125.000000	71.093985
1124.000000	71.101507
1123.000000	71.128648
1122.000000	71.151513
1121.000000	71.142735
1120.000000	71.125651
1119.000000	71.121728
1118.000000	71.078285
1117.000000	71.086944
1116.000000	71.076358
1115.000000	71.061297
1114.000000	71.050289
1113.000000	71.003575
1112.000000	71.016011
1111.000000	71.001296
1110.000000	70.962026
1109.000000	70.991489
1108.000000	70.926711
1107.000000	70.889546
1106.000000	70.884327
1105.000000	70.856156
1104.000000	70.839278
1103.000000	70.792803
1102.000000	70.832777
1101.000000	70.757959
1100.000000	70.687088
1099.000000	70.724986
1098.000000	70.678985
1097.000000	70.658063
1096.000000	70.639698
1095.000000	70.570548
1094.000000	70.590624
1093.000000	70.517750
1092.000000	70.477695
1091.000000	70.449264
1090.000000	70.367733
1089.000000	70.360346
1088.000000	70.255577
1087.000000	70.249364
1086.000000	70.193755
1085.000000	70.164764
1084.000000	70.121746
1083.000000	70.027468
1082.000000	69.998221
1081.000000	69.958251
1080.000000	69.854867
1079.000000	69.858159
1078.000000	69.779597
1077.000000	69.717761
1076.000000	69.627826
1075.000000	69.576857
1074.000000	69.554838
1073.000000	69.467750
1072.000000	69.403374
1071.000000	69.401251
1070.000000	69.298102
1069.000000	69.259384
1068.000000	69.197329
1067.000000	69.075193
1066.000000	69.040906
1065.000000	68.981401
1064.000000	68.951550
1063.000000	68.835852
1062.000000	68.753082
1061.000000	68.706852
1060.000000	68.651175
1059.000000	68.600572
1058.000000	68.501538
1057.000000	68.436349
1056.000000	68.411898
1055.000000	68.331515
1054.000000	68.227347
1053.000000	68.169524
1052.000000	68.122562
1051.000000	68.072394
1050.000000	68.027735
1049.000000	67.930425
1048.000000	67.864627
1047.000000	67.759982
1046.000000	67.758052
1045.000000	67.710675
1044.000000	67.596007
1043.000000	67.542266
1042.000000	67.443361
1041.000000	67.366700
1040.000000	67.357564
1039.000000	67.344989
1038.000000	67.221139
1037.000000	67.183440
1036.000000	67.057492
1035.000000	67.023008
1034.000000	66.977196
1033.000000	66.924727
1032.000000	66.894284
1031.000000	66.822579
1030.000000	66.683127
1029.000000	66.668701
1028.000000	66.600518
1027.000000	66.555391
1026.000000	66.545514
1025.000000	66.497212
1024.000000	66.412660
1023.000000	66.313750
1022.000000	66.211374
1021.000000	66.187696
1020.000000	66.168380
1019.000000	66.039629
1018.000000	66.055198
1017.000000	65.935237
1016.000000	65.886896
1015.000000	65.832498
1014.000000	65.770802
1013.000000	65.726372
1012.000000	65.651663
1011.000000	65.621039
1010.000000	65.565541
1009.000000	65.461037
1008.000000	65.391776
1007.000000	65.344509
1006.000000	65.273032
1005.000000	65.244921
1004.000000	65.201575
1003.000000	65.136200
1002.000000	65.062829
1001.000000	64.987410
1000.000000	64.883919
999.000000	64.836627
998.000000	64.777421
997.000000	64.686217
996.000000	64.596012
995.000000	64.516644
994.000000	64.478875
993.000000	64.330546
992.000000	64.312694
991.000000	64.259374
990.000000	64.169281
989.000000	64.103913
988.000000	64.037469
987.000000	63.924414
986.000000	63.855107
985.000000	63.743840
984.000000	63.678784
983.000000	63.573803
982.000000	63.518267
981.000000	63.389729
980.000000	63.269710
979.000000	63.221859
978.000000	63.117787
977.000000	63.029768
976.000000	62.957086
975.000000	62.862534
974.000000	62.737526
973.000000	62.644323
972.000000	62.687464
971.000000	62.603933
970.000000	62.462230
969.000000	62.310626
968.000000	62.171432
967.000000	62.091382
966.000000	62.076219
965.000000	62.018176
964.000000	61.920328
963.000000	61.822179
962.000000	61.764460
961.000000	61.670963
960.000000	61.589086
959.000000	61.644548
958.000000	61.575149
957.000000	61.471941
956.000000	61.334945
955.000000	61.282288
954.000000	61.210626
953.000000	61.153732
952.000000	61.054466
951.000000	61.014410
950.000000	60.927542
949.000000	60.820115
948.000000	60.821060
947.000000	60.795679
946.000000	60.698105
945.000000	60.598711
944.000000	60.533285
943.000000	60.561988
942.000000	60.552175
941.000000	60.418723
940.000000	60.232994
939.000000	60.164298
938.000000	60.109996
937.000000	59.972504
936.000000	59.998112
935.000000	59.984584
934.000000	59.858719
933.000000	59.793160
932.000000	59.809263
931.000000	59.814052
930.000000	59.728878
929.000000	59.581053
928.000000	59.465733
927.000000	59.457770
926.000000	59.217274
925.000000	59.087542
924.000000	59.152508
923.000000	59.125762
922.000000	58.935852
921.000000	58.835390
920.000000	58.910934
919.000000	58.803978
918.000000	58.743875
917.000000	58.507799
916.000000	58.363671
915.000000	58.224373
914.000000	58.282612
913.000000	58.220974
912.000000	58.023271
911.000000	57.882347
910.000000	57.859005
909.000000	57.678161
908.000000	57.632797
907.000000	57.669046
906.000000	57.590001
905.000000	57.537183
904.000000	57.629740
903.000000	57.426767
902.000000	56.987650
901.000000	57.261778
900.000000	57.500038
899.000000	57.346988
898.000000	57.531937
897.000000	57.647949
896.000000	57.299301
895.000000	57.500280
894.000000	57.444375
893.000000	57.267432
892.000000	57.368732
891.000000	57.536614
890.000000	57.718189
889.000000	57.162155
888.000000	56.872433
887.000000	57.541534
886.000000	57.717337
885.000000	57.894118
884.000000	57.864407
883.000000	57.856845
882.000000	57.159928
881.000000	57.287253
880.000000	57.347745
879.000000	57.745688
878.000000	57.396799
877.000000	57.414235
876.000000	57.808246
875.000000	57.762585
874.000000	56.973323
873.000000	57.072721
872.000000	57.369974
871.000000	56.852434
870.000000	57.272852
869.000000	57.357482
868.000000	56.694108
867.000000	56.578551
866.000000	56.395376
865.000000	57.159535
864.000000	57.274874
863.000000	57.398537
862.000000	56.799423
861.000000	57.018088
860.000000	57.806477
859.000000	57.065383
858.000000	57.186977
857.000000	57.534358
856.000000	57.474496
855.000000	57.598180
854.000000	57.509198
853.000000	58.006167
852.000000	58.274545
851.000000	57.899338
850.000000	57.415224
849.000000	57.668392
848.000000	57.702576
847.000000	57.805632
846.000000	57.724154
845.000000	57.545682
844.000000	57.806695
843.000000	57.696423
842.000000	57.766033
841.000000	57.809938
840.000000	57.979729
839.000000	57.905046
838.000000	57.870589
837.000000	58.236922
836.000000	58.061749
835.000000	57.905245
834.000000	58.114521
833.000000	58.114318
832.000000	58.233607
831.000000	58.192140
830.000000	58.184959
829.000000	58.464770
828.000000	58.299113
827.000000	58.321565
826.000000	58.416982
825.000000	58.416652
824.000000	58.332850
823.000000	58.581054
822.000000	58.503912
821.000000	58.663258
820.000000	58.416437
819.000000	58.559504
818.000000	58.511499
817.000000	58.479758
816.000000	58.389158
815.000000	58.406582
814.000000	58.246879
813.000000	58.349424
812.000000	58.264678
811.000000	58.522558
810.000000	58.299896
809.000000	58.521739
808.000000	58.241824
807.000000	58.303803
806.000000	58.406074
805.000000	58.231929
804.000000	58.370150
803.000000	58.283864
802.000000	58.116957
801.000000	58.256710
800.000000	58.088582
799.000000	58.148205
798.000000	58.061666
797.000000	58.010482
796.000000	58.029689
795.000000	57.960897
794.000000	57.929066
793.000000	57.953984
792.000000	57.902777
791.000000	58.084359
790.000000	57.904834
789.000000	57.972013
788.000000	57.817617
787.000000	57.821228
786.000000	57.759672
785.000000	57.877026
784.000000	57.891170
783.000000	57.809152
782.000000	57.764334
781.000000	57.903588
780.000000	57.596153
779.000000	57.656234
778.000000	57.656116
777.000000	57.640039
776.000000	57.555176
775.000000	57.518005
774.000000	57.330607
773.000000	57.436400
772.000000	57.434681
771.000000	57.216266
770.000000	57.248357
769.000000	57.166844
768.000000	57.131605
767.000000	57.078732
766.000000	56.842026
765.000000	56.886207
764.000000	56.652459
763.000000	56.665379
762.000000	56.663408
761.000000	56.457873
760.000000	56.464876
759.000000	56.390390
758.000000	56.250811
757.000000	56.160206
756.000000	56.074819
755.000000	55.921955
754.000000	55.939748
753.000000	55.944661
752.000000	55.779577
751.000000	55.687365
750.000000	55.576804
749.000000	55.560534
748.000000	55.460352
747.000000	55.432040
746.000000	55.405703
745.000000	55.210728
744.000000	55.271496
743.000000	55.184780
742.000000	55.103434
741.000000	55.117615
740.000000	55.024793
739.000000	55.068129
738.000000	55.014080
737.000000	54.950620
736.000000	54.902284
735.000000	54.794616
734.000000	54.749729
733.000000	54.700072
732.000000	54.714166
731.000000	54.609499
730.000000	54.563547
729.000000	54.498389
728.000000	54.440566
727.000000	54.361378
726.000000	54.379149
725.000000	54.361927
724.000000	54.323907
723.000000	54.291821
722.000000	54.267012
721.000000	54.148014
720.000000	54.138975
719.000000	54.133723
718.000000	54.038100
717.000000	53.984959
716.000000	53.952815
715.000000	53.879097
714.000000	53.801389
713.000000	53.698747
712.000000	53.597490
711.000000	53.522467
710.000000	53.459126
709.000000	53.310837
708.000000	53.188321
707.000000	53.138559
706.000000	53.054456
705.000000	52.939210
704.000000	52.825442
703.000000	52.676237
702.000000	52.508296
701.000000	52.378962
700.000000	52.207352
699.000000	52.057572
698.000000	51.932724
697.000000	51.795587
696.000000	51.646080
695.000000	51.510028
694.000000	51.339347
693.000000	51.196167
692.000000	51.056683
691.000000	50.922507
690.000000	50.809770
689.000000	50.698357
688.000000	50.629189
687.000000	50.552459
686.000000	50.503678
685.000000	50.408611
684.000000	50.327503
683.000000	50.266702
682.000000	50.239547
681.000000	50.158565
680.000000	50.096054
679.000000	50.040915
678.000000	49.968655
677.000000	49.902824
676.000000	49.849807
675.000000	49.800587
674.000000	49.756440
673.000000	49.722836
672.000000	49.701551
671.000000	49.747698
670.000000	49.709556
669.000000	49.626775
668.000000	49.560264
667.000000	49.526120
666.000000	49.512493
665.000000	49.516741
664.000000	49.493117
663.000000	49.456541
662.000000	49.397338
661.000000	49.341510
660.000000	49.321554
659.000000	49.308676
658.000000	49.274967
657.000000	49.187857
656.000000	49.076249
655.000000	48.931967
654.000000	48.788306
653.000000	48.612641
652.000000	48.396895
651.000000	48.202733
650.000000	48.025800
649.000000	47.819457
648.000000	47.571048
647.000000	47.332063
646.000000	47.084826
645.000000	46.824868
644.000000	46.583611
643.000000	46.338980
642.000000	46.062305
641.000000	45.815949
640.000000	45.560764
639.000000	45.305759
638.000000	45.090760
637.000000	44.884836
636.000000	44.683429
635.000000	44.467218
634.000000	44.276843
633.000000	44.136772
632.000000	44.019305
631.000000	43.919754
630.000000	43.837995
629.000000	43.770346
628.000000	43.755450
627.000000	43.797035
626.000000	43.817073
625.000000	43.882987
624.000000	44.033312
623.000000	44.205297
622.000000	44.413554
621.000000	44.626432
620.000000	44.878397
619.000000	45.141178
618.000000	45.435181
617.000000	45.714466
616.000000	45.970668
615.000000	46.231115
614.000000	46.520318
613.000000	46.790043
612.000000	47.054619
611.000000	47.344641
610.000000	47.612635
609.000000	47.854898
608.000000	48.109476
607.000000	48.388668
606.000000	48.666343
605.000000	48.938005
604.000000	49.253458
603.000000	49.541151
602.000000	49.827609
601.000000	50.126840
600.000000	50.402693
599.000000	50.703293
598.000000	50.986606
597.000000	51.236006
596.000000	51.453306
595.000000	51.690168
594.000000	51.935937
593.000000	52.137087
592.000000	52.308621
591.000000	52.504384
590.000000	52.683913
589.000000	52.869319
588.000000	53.075041
587.000000	53.258223
586.000000	53.439097
585.000000	53.617023
584.000000	53.799034
583.000000	54.028435
582.000000	54.234550
581.000000	54.429985
580.000000	54.627057
579.000000	54.826055
578.000000	54.971885
577.000000	55.088181
576.000000	55.260932
575.000000	55.405728
574.000000	55.539475
573.000000	55.715174
572.000000	55.862050
571.000000	55.993110
570.000000	56.102514
569.000000	56.239111
568.000000	56.372771
567.000000	56.490807
566.000000	56.590402
565.000000	56.708832
564.000000	56.840904
563.000000	56.909550
562.000000	56.980423
561.000000	57.019534
560.000000	57.070288
559.000000	57.053457
558.000000	57.065118
557.000000	57.061148
556.000000	57.014019
555.000000	56.944040
554.000000	56.866707
553.000000	56.737015
552.000000	56.640573
551.000000	56.517775
550.000000	56.352388
549.000000	56.203966
548.000000	56.006362
547.000000	55.819202
546.000000	55.603448
545.000000	55.372650
544.000000	55.085213
543.000000	54.811823
542.000000	54.487435
541.000000	54.134298
540.000000	53.773402
539.000000	53.362663
538.000000	52.909829
537.000000	52.438881
536.000000	51.941430
535.000000	51.400603
534.000000	50.798617
533.000000	50.178406
532.000000	49.531938
531.000000	48.898479
530.000000	48.218188
529.000000	47.567691
528.000000	46.850960
527.000000	46.145107
526.000000	45.431776
525.000000	44.719998
524.000000	44.007043
523.000000	43.273560
522.000000	42.573973
521.000000	41.867444
520.000000	41.155469
519.000000	40.504842
518.000000	39.829546
517.000000	39.163154
516.000000	38.512513
515.000000	37.854116
514.000000	37.268522
513.000000	36.655994
512.000000	36.021195
511.000000	35.433326
510.000000	34.878714
509.000000	34.328071
508.000000	33.790889
507.000000	33.254122
506.000000	32.742468
505.000000	32.264584
504.000000	31.761568
503.000000	31.267666
502.000000	30.782536
501.000000	30.318192
500.000000	29.881881
499.000000	29.457298
498.000000	29.039217
497.000000	28.643489
496.000000	28.172866
495.000000	27.741876
494.000000	27.359897
493.000000	26.969849
492.000000	26.529395
491.000000	26.163736
490.000000	25.770652
489.000000	25.402874
488.000000	24.993369
487.000000	24.644289
486.000000	24.286953
485.000000	23.943078
484.000000	23.615074
483.000000	23.296007
482.000000	22.986132
481.000000	22.642213
480.000000	22.338328
479.000000	22.031275
478.000000	21.758833
477.000000	21.494827
476.000000	21.235630
475.000000	20.971902
474.000000	20.745758
473.000000	20.508409
472.000000	20.282061
471.000000	20.049098
470.000000	19.836965
469.000000	19.626625
468.000000	19.417440
467.000000	19.240429
466.000000	19.079698
465.000000	18.897526
464.000000	18.715673
463.000000	18.537021
462.000000	18.389011
461.000000	18.208428
460.000000	18.036218
459.000000	17.876621
458.000000	17.729587
457.000000	17.551328
456.000000	17.333112
455.000000	17.154229
454.000000	16.990498
453.000000	16.792609
452.000000	16.582630
451.000000	16.374277
450.000000	16.125206
449.000000	15.878991
448.000000	15.670875
447.000000	15.427204
446.000000	15.206417
445.000000	14.965232
444.000000	14.730202
443.000000	14.455670
442.000000	14.229941
441.000000	13.997323
440.000000	13.771114
439.000000	13.580607
438.000000	13.402416
437.000000	13.224120
436.000000	13.072040
435.000000	12.909444
434.000000	12.792452
433.000000	12.661719
432.000000	12.568794
431.000000	12.492885
430.000000	12.395477
429.000000	12.361293
428.000000	12.310950
427.000000	12.280092
426.000000	12.247467
425.000000	12.228494
424.000000	12.218548
423.000000	12.215571
422.000000	12.203357
421.000000	12.191862
420.000000	12.195762
419.000000	12.202133
418.000000	12.207367
417.000000	12.194821
416.000000	12.184642
415.000000	12.185104
414.000000	12.154890
413.000000	12.136426
412.000000	12.110681
411.000000	12.069854
410.000000	12.017504
409.000000	11.972066
408.000000	11.935179
407.000000	11.873562
406.000000	11.801648
405.000000	11.728537
404.000000	11.652086
403.000000	11.556521
402.000000	11.460225
401.000000	11.353770
400.000000	11.235778
399.000000	11.112548
398.000000	10.976731
397.000000	10.831228
396.000000	10.700582
395.000000	10.538559
394.000000	10.391497
393.000000	10.227237
392.000000	10.038680
391.000000	9.871729
390.000000	9.699286
389.000000	9.486240
388.000000	9.316917
387.000000	9.122358
386.000000	8.913234
385.000000	8.718783
384.000000	8.539848
383.000000	8.357087
382.000000	8.157251
381.000000	7.961098
380.000000	7.776026
379.000000	7.603964
378.000000	7.439729
377.000000	7.286914
376.000000	7.151714
375.000000	7.005421
374.000000	6.846886
373.000000	6.724773
372.000000	6.578820
371.000000	6.438439
370.000000	6.408170
369.000000	6.325205
368.000000	6.181392
367.000000	6.090972
366.000000	6.017226
365.000000	5.932398
364.000000	5.809932
363.000000	5.718095
362.000000	5.663949
361.000000	5.638021
360.000000	5.551933
359.000000	5.482598
358.000000	5.457043
357.000000	5.418756
356.000000	5.404488
355.000000	5.355422
354.000000	5.273825
353.000000	5.289696
352.000000	5.313329
351.000000	5.227131
350.000000	5.180652
349.000000	5.162595
348.000000	5.151550
347.000000	5.168417
346.000000	5.129789
345.000000	5.086053
344.000000	5.062552
343.000000	5.098921
342.000000	5.090974
341.000000	5.082796
340.000000	5.041835
339.000000	5.011058
338.000000	5.099219
337.000000	5.138739
336.000000	5.079000
335.000000	4.989349
334.000000	5.028329
333.000000	5.061616
332.000000	5.002349
331.000000	4.998194
330.000000	5.035353
329.000000	5.062057
328.000000	5.040111
327.000000	5.000166
326.000000	4.992855
325.000000	4.984606
324.000000	5.147853
323.000000	5.211337
322.000000	5.178504
321.000000	5.241966
320.000000	5.210745
319.000000	5.153060
318.000000	5.255257
317.000000	5.282856
316.000000	5.281274
315.000000	5.374925
314.000000	5.399925
313.000000	5.406283
312.000000	5.431607
311.000000	5.451015
310.000000	5.444232
309.000000	5.451520
308.000000	5.460085
307.000000	5.445486
306.000000	5.486474
305.000000	5.474448
304.000000	5.445759
303.000000	5.451494
302.000000	5.474742
301.000000	5.471006
300.000000	5.460201
299.000000	5.464874
298.000000	5.447063
297.000000	5.449259
296.000000	5.444354
295.000000	5.429261
294.000000	5.425008
293.000000	5.437765
292.000000	5.439412
291.000000	5.421856
290.000000	5.453541
289.000000	5.447836
288.000000	5.455681
287.000000	5.461087
286.000000	5.453224
285.000000	5.457384
284.000000	5.458273
283.000000	5.452189
282.000000	5.446587
281.000000	5.459373
280.000000	5.471907
279.000000	5.463369
278.000000	5.473301
277.000000	5.472518
276.000000	5.486850
275.000000	5.538851
274.000000	5.544455
273.000000	5.519846
272.000000	5.520146
271.000000	5.546628
270.000000	5.574514
269.000000	5.598084
268.000000	5.593982
267.000000	5.606187
266.000000	5.624828
265.000000	5.620466
264.000000	5.672517
263.000000	5.651799
262.000000	5.654178
261.000000	5.681494
260.000000	5.710337
259.000000	5.721100
258.000000	5.761319
257.000000	5.781187
256.000000	5.804299
255.000000	5.825694
254.000000	5.846246
253.000000	5.900999
252.000000	5.940236
251.000000	5.991365
250.000000	6.026469
