PE UV       SUBTECH     SPECTRUM    ASCII       PEDS        4.00        
   -1
CICIMAUCR0014-1fail.Sample.ASC
24/04/04
10:29:17.00
24/04/04
10:29:17.00
Vinicio Soto Monge
C. cupreomarginata
1920,000000
1
Lambda 1050
1050L1511233
PerkinElmer UV WinLab 6.3.2.0749 / 2.02.05 Lambda 900 UV/VIS/NIR, Aug  7 2015 09:38:08

0
0
3350/servo 860,8/2
0
0
UV/VIS
1
1
1
DoubleDePol,CommonBeamDepol,RBeamAtt,SBeamAtt,60mm sphere, WB InGaAs Detector
0
0
0
0
Program
Program
3350/servo 860,8/2
3350/0,2 860,8/0,2
3350/0,2 860,8/0,2
0
15.00
 
 
 
0
 
860,8
319,2
860,8
Front
100
on
S:100 R:100
0
0
0
0
 
0
 
 
 
0
 
 
0
0
0
0
0
 
 
 
 
0
0


0
0
#HDR
-1
-1
#GR
nm
%R
1.0
0.0
2500,000000
-1,000000
581
8
27,742500
11,764900
#DATA
2500,000000	11,825300
2499,000000	11,788700
2498,000000	11,788400
2497,000000	11,789800
2496,000000	11,764900
2495,000000	11,839800
2494,000000	11,778200
2493,000000	11,808800
2492,000000	11,777900
2491,000000	11,784200
2490,000000	11,819400
2489,000000	11,798200
2488,000000	11,791100
2487,000000	11,778300
2486,000000	11,811400
2485,000000	11,862100
2484,000000	11,855400
2483,000000	11,913400
2482,000000	11,896300
2481,000000	11,945700
2480,000000	11,941400
2479,000000	11,982200
2478,000000	12,033500
2477,000000	12,053600
2476,000000	12,134700
2475,000000	12,134200
2474,000000	12,167700
2473,000000	12,151000
2472,000000	12,257500
2471,000000	12,290600
2470,000000	12,341500
2469,000000	12,421500
2468,000000	12,434800
2467,000000	12,480200
2466,000000	12,523300
2465,000000	12,626700
2464,000000	12,642600
2463,000000	12,712000
2462,000000	12,778300
2461,000000	12,881300
2460,000000	12,979100
2459,000000	13,044900
2458,000000	13,192800
2457,000000	13,242300
2456,000000	13,339400
2455,000000	13,443900
2454,000000	13,540700
2453,000000	13,651300
2452,000000	13,808600
2451,000000	13,913700
2450,000000	14,038500
2449,000000	14,129100
2448,000000	14,243300
2447,000000	14,375600
2446,000000	14,529400
2445,000000	14,640900
2444,000000	14,762500
2443,000000	14,872800
2442,000000	15,009200
2441,000000	15,148600
2440,000000	15,264400
2439,000000	15,371700
2438,000000	15,480700
2437,000000	15,605200
2436,000000	15,740100
2435,000000	15,848000
2434,000000	15,947700
2433,000000	16,059000
2432,000000	16,170300
2431,000000	16,266100
2430,000000	16,377200
2429,000000	16,485300
2428,000000	16,580800
2427,000000	16,667600
2426,000000	16,765800
2425,000000	16,844500
2424,000000	16,936500
2423,000000	17,036300
2422,000000	17,136300
2421,000000	17,218800
2420,000000	17,319300
2419,000000	17,376800
2418,000000	17,435300
2417,000000	17,501900
2416,000000	17,586300
2415,000000	17,650500
2414,000000	17,715100
2413,000000	17,772200
2412,000000	17,825600
2411,000000	17,860600
2410,000000	17,927100
2409,000000	17,986000
2408,000000	18,029100
2407,000000	18,069800
2406,000000	18,128000
2405,000000	18,169700
2404,000000	18,205300
2403,000000	18,252000
2402,000000	18,281000
2401,000000	18,308900
2400,000000	18,363300
2399,000000	18,392000
2398,000000	18,410800
2397,000000	18,451900
2396,000000	18,494700
2395,000000	18,502000
2394,000000	18,517500
2393,000000	18,550600
2392,000000	18,577800
2391,000000	18,596500
2390,000000	18,609800
2389,000000	18,629700
2388,000000	18,638600
2387,000000	18,634700
2386,000000	18,624300
2385,000000	18,610200
2384,000000	18,614500
2383,000000	18,603800
2382,000000	18,582200
2381,000000	18,568900
2380,000000	18,553800
2379,000000	18,520500
2378,000000	18,486100
2377,000000	18,472700
2376,000000	18,439800
2375,000000	18,385800
2374,000000	18,358200
2373,000000	18,337900
2372,000000	18,305500
2371,000000	18,265500
2370,000000	18,216000
2369,000000	18,176200
2368,000000	18,129600
2367,000000	18,087400
2366,000000	18,047600
2365,000000	17,999200
2364,000000	17,938600
2363,000000	17,888400
2362,000000	17,847500
2361,000000	17,787200
2360,000000	17,736200
2359,000000	17,687200
2358,000000	17,637800
2357,000000	17,597400
2356,000000	17,560200
2355,000000	17,522000
2354,000000	17,478800
2353,000000	17,454100
2352,000000	17,438000
2351,000000	17,423900
2350,000000	17,428000
2349,000000	17,419000
2348,000000	17,409900
2347,000000	17,417500
2346,000000	17,415200
2345,000000	17,414900
2344,000000	17,430600
2343,000000	17,441600
2342,000000	17,437700
2341,000000	17,433200
2340,000000	17,421700
2339,000000	17,413900
2338,000000	17,391800
2337,000000	17,373700
2336,000000	17,351300
2335,000000	17,319300
2334,000000	17,293000
2333,000000	17,262600
2332,000000	17,230500
2331,000000	17,196800
2330,000000	17,150700
2329,000000	17,112700
2328,000000	17,073500
2327,000000	17,026000
2326,000000	16,973000
2325,000000	16,914400
2324,000000	16,844100
2323,000000	16,774500
2322,000000	16,712700
2321,000000	16,614000
2320,000000	16,513400
2319,000000	16,419600
2318,000000	16,314100
2317,000000	16,195100
2316,000000	16,084900
2315,000000	15,971800
2314,000000	15,865200
2313,000000	15,759100
2312,000000	15,645200
2311,000000	15,540000
2310,000000	15,467600
2309,000000	15,376100
2308,000000	15,306800
2307,000000	15,264900
2306,000000	15,240700
2305,000000	15,203400
2304,000000	15,185400
2303,000000	15,182300
2302,000000	15,189500
2301,000000	15,217300
2300,000000	15,228000
2299,000000	15,251200
2298,000000	15,271900
2297,000000	15,305600
2296,000000	15,332000
2295,000000	15,340600
2294,000000	15,359100
2293,000000	15,369300
2292,000000	15,364000
2291,000000	15,345400
2290,000000	15,336800
2289,000000	15,332400
2288,000000	15,312100
2287,000000	15,268500
2286,000000	15,209600
2285,000000	15,161100
2284,000000	15,117800
2283,000000	15,058300
2282,000000	14,993800
2281,000000	14,938000
2280,000000	14,853500
2279,000000	14,789800
2278,000000	14,718200
2277,000000	14,655900
2276,000000	14,597600
2275,000000	14,530000
2274,000000	14,470800
2273,000000	14,442000
2272,000000	14,390800
2271,000000	14,363800
2270,000000	14,360000
2269,000000	14,345700
2268,000000	14,352500
2267,000000	14,367500
2266,000000	14,417700
2265,000000	14,472700
2264,000000	14,540700
2263,000000	14,629600
2262,000000	14,723200
2261,000000	14,839200
2260,000000	14,962200
2259,000000	15,097900
2258,000000	15,243100
2257,000000	15,392100
2256,000000	15,538700
2255,000000	15,691900
2254,000000	15,843500
2253,000000	16,009100
2252,000000	16,134500
2251,000000	16,260200
2250,000000	16,406400
2249,000000	16,515900
2248,000000	16,666400
2247,000000	16,757900
2246,000000	16,847800
2245,000000	16,963100
2244,000000	17,016600
2243,000000	17,101800
2242,000000	17,174100
2241,000000	17,221900
2240,000000	17,271400
2239,000000	17,307700
2238,000000	17,347100
2237,000000	17,346000
2236,000000	17,373600
2235,000000	17,372800
2234,000000	17,377500
2233,000000	17,348700
2232,000000	17,289100
2231,000000	17,257800
2230,000000	17,224700
2229,000000	17,151100
2228,000000	17,047300
2227,000000	16,957300
2226,000000	16,859100
2225,000000	16,734700
2224,000000	16,611700
2223,000000	16,524200
2222,000000	16,385400
2221,000000	16,255000
2220,000000	16,112400
2219,000000	15,980100
2218,000000	15,833800
2217,000000	15,716300
2216,000000	15,608400
2215,000000	15,489600
2214,000000	15,421700
2213,000000	15,344400
2212,000000	15,311600
2211,000000	15,270200
2210,000000	15,282400
2209,000000	15,304500
2208,000000	15,363700
2207,000000	15,449200
2206,000000	15,546800
2205,000000	15,688000
2204,000000	15,855600
2203,000000	16,036200
2202,000000	16,250600
2201,000000	16,461700
2200,000000	16,699500
2199,000000	16,940200
2198,000000	17,177700
2197,000000	17,427700
2196,000000	17,664300
2195,000000	17,911600
2194,000000	18,125200
2193,000000	18,339200
2192,000000	18,527600
2191,000000	18,712200
2190,000000	18,881900
2189,000000	19,045200
2188,000000	19,180600
2187,000000	19,304000
2186,000000	19,424800
2185,000000	19,518700
2184,000000	19,610200
2183,000000	19,690200
2182,000000	19,749400
2181,000000	19,814600
2180,000000	19,866200
2179,000000	19,933400
2178,000000	19,982300
2177,000000	20,039300
2176,000000	20,079700
2175,000000	20,117500
2174,000000	20,173900
2173,000000	20,221000
2172,000000	20,270700
2171,000000	20,329800
2170,000000	20,384300
2169,000000	20,447500
2168,000000	20,512200
2167,000000	20,588000
2166,000000	20,648000
2165,000000	20,708300
2164,000000	20,765100
2163,000000	20,841300
2162,000000	20,931500
2161,000000	21,016600
2160,000000	21,111000
2159,000000	21,206500
2158,000000	21,285400
2157,000000	21,388800
2156,000000	21,502000
2155,000000	21,627400
2154,000000	21,724400
2153,000000	21,836400
2152,000000	21,954600
2151,000000	22,085700
2150,000000	22,212800
2149,000000	22,336000
2148,000000	22,462300
2147,000000	22,588100
2146,000000	22,701600
2145,000000	22,807800
2144,000000	22,922600
2143,000000	23,039300
2142,000000	23,152300
2141,000000	23,272300
2140,000000	23,394000
2139,000000	23,484800
2138,000000	23,577900
2137,000000	23,678700
2136,000000	23,763900
2135,000000	23,851000
2134,000000	23,953400
2133,000000	24,035000
2132,000000	24,099400
2131,000000	24,160700
2130,000000	24,237500
2129,000000	24,301900
2128,000000	24,346800
2127,000000	24,405100
2126,000000	24,465300
2125,000000	24,491400
2124,000000	24,518500
2123,000000	24,556300
2122,000000	24,593200
2121,000000	24,617500
2120,000000	24,639500
2119,000000	24,655700
2118,000000	24,669000
2117,000000	24,679800
2116,000000	24,695600
2115,000000	24,711700
2114,000000	24,712500
2113,000000	24,706300
2112,000000	24,703700
2111,000000	24,690300
2110,000000	24,694500
2109,000000	24,684500
2108,000000	24,676600
2107,000000	24,670200
2106,000000	24,656600
2105,000000	24,649500
2104,000000	24,632800
2103,000000	24,626800
2102,000000	24,614500
2101,000000	24,599900
2100,000000	24,591600
2099,000000	24,580600
2098,000000	24,573900
2097,000000	24,563000
2096,000000	24,556100
2095,000000	24,560100
2094,000000	24,564300
2093,000000	24,570200
2092,000000	24,564100
2091,000000	24,557500
2090,000000	24,566100
2089,000000	24,569800
2088,000000	24,571900
2087,000000	24,552000
2086,000000	24,526600
2085,000000	24,511200
2084,000000	24,481300
2083,000000	24,451800
2082,000000	24,428100
2081,000000	24,391900
2080,000000	24,353100
2079,000000	24,287400
2078,000000	24,220200
2077,000000	24,185300
2076,000000	24,117700
2075,000000	24,034700
2074,000000	23,958900
2073,000000	23,881100
2072,000000	23,793800
2071,000000	23,719900
2070,000000	23,635800
2069,000000	23,529900
2068,000000	23,422500
2067,000000	23,337500
2066,000000	23,247200
2065,000000	23,159500
2064,000000	23,068000
2063,000000	22,988600
2062,000000	22,909900
2061,000000	22,840900
2060,000000	22,792800
2059,000000	22,732800
2058,000000	22,716200
2057,000000	22,700300
2056,000000	22,685100
2055,000000	22,698600
2054,000000	22,750700
2053,000000	22,801300
2052,000000	22,860600
2051,000000	22,956500
2050,000000	23,079400
2049,000000	23,220500
2048,000000	23,379300
2047,000000	23,534600
2046,000000	23,713000
2045,000000	23,882700
2044,000000	24,052000
2043,000000	24,254600
2042,000000	24,444600
2041,000000	24,626700
2040,000000	24,828700
2039,000000	25,006700
2038,000000	25,163900
2037,000000	25,350000
2036,000000	25,513800
2035,000000	25,658300
2034,000000	25,829200
2033,000000	25,971800
2032,000000	26,097300
2031,000000	26,219800
2030,000000	26,330800
2029,000000	26,472000
2028,000000	26,566100
2027,000000	26,670200
2026,000000	26,766000
2025,000000	26,848700
2024,000000	26,947500
2023,000000	27,037700
2022,000000	27,113800
2021,000000	27,203500
2020,000000	27,270500
2019,000000	27,334800
2018,000000	27,415200
2017,000000	27,459300
2016,000000	27,510100
2015,000000	27,563300
2014,000000	27,604800
2013,000000	27,653400
2012,000000	27,678100
2011,000000	27,685600
2010,000000	27,728200
2009,000000	27,742500
2008,000000	27,728300
2007,000000	27,728400
2006,000000	27,734200
2005,000000	27,721900
2004,000000	27,702400
2003,000000	27,689700
2002,000000	27,658000
2001,000000	27,626600
2000,000000	27,585700
1999,000000	27,541400
1998,000000	27,502300
1997,000000	27,455100
1996,000000	27,379500
1995,000000	27,348600
1994,000000	27,291500
1993,000000	27,216500
1992,000000	27,146000
1991,000000	27,083800
1990,000000	26,996400
1989,000000	26,931900
1988,000000	26,841300
1987,000000	26,767200
1986,000000	26,671000
1985,000000	26,589000
1984,000000	26,491800
1983,000000	26,407700
1982,000000	26,332300
1981,000000	26,245700
1980,000000	26,156300
1979,000000	26,084300
1978,000000	25,984200
1977,000000	25,878900
1976,000000	25,815300
1975,000000	25,737700
1974,000000	25,657400
1973,000000	25,577300
1972,000000	25,505500
1971,000000	25,421000
1970,000000	25,349700
1969,000000	25,266500
1968,000000	25,200200
1967,000000	25,136200
1966,000000	25,040500
1965,000000	24,989900
1964,000000	24,910000
1963,000000	24,820600
1962,000000	24,732600
1961,000000	24,655400
1960,000000	24,578400
1959,000000	24,513500
1958,000000	24,463600
1957,000000	24,357100
1956,000000	24,279900
1955,000000	24,193200
1954,000000	24,108000
1953,000000	24,036400
1952,000000	23,953700
1951,000000	23,891200
1950,000000	23,821300
1949,000000	23,768500
1948,000000	23,719900
1947,000000	23,663300
1946,000000	23,611900
1945,000000	23,564600
1944,000000	23,540400
1943,000000	23,498100
1942,000000	23,482400
1941,000000	23,486400
1940,000000	23,469600
1939,000000	23,452500
1938,000000	23,482700
1937,000000	23,470100
1936,000000	23,509300
1935,000000	23,547500
1934,000000	23,587300
1933,000000	23,654200
1932,000000	23,749400
1931,000000	23,822600
1930,000000	23,925700
1929,000000	24,009900
1928,000000	24,121500
1927,000000	24,237600
1926,000000	24,377400
1925,000000	24,527300
1924,000000	24,675700
1923,000000	24,857100
1922,000000	25,060500
1921,000000	25,243000
1920,000000	25,466500
