INBUCRO235_T
Integration time [ms]:   8,000
Averaging Nr. [scans]: 10
Smoothing Nr. [pixels]: 0
Data measured with spectrometer [name]: 7314920SP
Wave   ;Sample   ;Dark     ;Reference;Reflectance
[nm]   ;[counts] ;[counts] ;[counts] ;[%]

 199,42;   83,889;   72,222;  210,244; 8,45292
 200,02;  107,231;  102,008;  189,811; 5,94880
 200,62;   72,845;   74,992;  115,875;-5,25158
 201,22;   98,201;   92,709;  193,470; 5,45033
 201,82;   84,798;   64,025;  211,220;14,11232
 202,42;  112,741;   95,408;  188,025;18,71542
 203,03;   67,992;   55,806;  149,594;12,99325
 203,63;   83,632;   65,404;  161,149;19,03817
 204,23;   93,450;   81,415;  188,764;11,21076
 204,83;   86,252;   76,103;  162,076;11,80488
 205,43;   61,689;   65,122;  182,444;-2,92626
 206,03;   75,562;   56,103;  131,590;25,77854
 206,63;   76,824;   81,096;  130,910;-8,57759
 207,24;   83,617;   77,929;  242,810; 3,45017
 207,84;   56,772;   57,902;  135,404;-1,45808
 208,44;   58,101;   59,009;  153,170;-0,96454
 209,04;   67,114;   53,697;  112,596;22,77897
 209,64;   86,049;   72,519;  200,426;10,57783
 210,24;   65,652;   50,503;  130,176;19,01397
 210,84;   61,391;   60,310;  167,756; 1,00636
 211,44;   87,851;   86,511;  189,701; 1,29797
 212,05;   66,614;   61,997;  128,496; 6,94247
 212,65;   82,392;   75,406;  151,694; 9,15755
 213,25;  106,441;   96,208;  175,325;12,93486
 213,85;   89,673;   84,098;  157,241; 7,62177
 214,45;   64,252;   59,703;  144,876; 5,34090
 215,05;   49,691;   46,810;  150,056; 2,79070
 215,65;   59,781;   64,010;  156,742;-4,56064
 216,25;   60,952;   47,903;  131,676;15,57662
 216,85;   49,211;   45,209;  131,084; 4,66058
 217,45;   55,892;   61,406;  140,794;-6,94548
 218,05;   70,020;   56,513;  170,560;11,84414
 218,66;   30,821;   35,109;  126,597;-4,68609
 219,26;   38,632;   40,904;  108,649;-3,35371
 219,86;   44,170;   30,415;  147,291;11,76928
 220,46;   67,531;   62,212;  165,774; 5,13551
 221,06;   65,750;   50,415;  173,264;12,48252
 221,66;   61,720;   49,317;  185,122; 9,13298
 222,26;   45,149;   47,619;  163,026;-2,14047
 222,86;   65,462;   70,807;  163,753;-5,75103
 223,46;   59,452;   54,503;  138,276; 5,90764
 224,06;   67,960;   63,215;  169,877; 4,44865
 224,66;   74,000;   59,613;  169,732;13,06492
 225,26;   62,661;   55,111;  162,715; 7,01634
 225,86;   56,319;   43,521;  183,285; 9,15707
 226,46;   59,851;   58,307;  160,639; 1,50901
 227,06;   47,700;   30,313;  143,532;15,35693
 227,66;   50,783;   58,298;  114,355;-13,40551
 228,27;   46,731;   40,012;  159,574; 5,61921
 228,87;   99,410;   91,313;  208,446; 6,91303
 229,47;   49,739;   37,020;  166,312; 9,83759
 230,07;   27,561;   18,811;  112,215; 9,36775
 230,67;   54,111;   40,209;  142,184;13,63304
 231,27;   36,531;   30,212;  143,374; 5,58354
 231,87;   49,111;   40,109;  147,584; 8,37616
 232,47;   62,337;   59,528;  218,437; 1,76808
 233,07;   50,034;   37,496;  115,524;16,06820
 233,67;   64,992;   55,906;  155,694; 9,10542
 234,27;   25,662;   20,103;  106,490; 6,43555
 234,87;   42,370;   43,315;  164,991;-0,77622
 235,47;   24,661;   20,211;  136,915; 3,81294
 236,07;   34,233;   29,800;  113,786; 5,27807
 236,67;   56,293;   59,802;  134,031;-4,72731
 237,27;   45,468;   47,023;  174,316;-1,22088
 237,87;   43,300;   44,213;  155,532;-0,82019
 238,47;   28,531;   24,408;  124,611; 4,11487
 239,07;   38,959;   26,119;  172,740; 8,75744
 239,67;   63,606;   47,333;  213,158; 9,81357
 240,27;   57,919;   43,621;  186,385;10,01533
 240,87;   61,658;   59,423;  199,102; 1,60039
 241,47;   51,904;   48,693;   99,120; 6,36771
 242,07;   44,072;   48,007;  129,466;-4,83042
 242,67;    8,079;    5,722;  135,930; 1,80971
 243,27;   17,652;   23,603;  102,476;-7,54504
 243,87;   50,560;   50,915;  171,077;-0,29540
 244,47;   48,150;   43,215;  154,464; 4,43563
 245,07;   15,791;   13,110;  116,356; 2,59699
 245,67;   45,292;   43,706;  124,694; 1,95846
 246,27;   44,324;   36,296;  104,710;11,73331
 246,87;   37,362;   29,007;  121,153; 9,06682
 247,46;   11,845;   12,792;   58,475;-2,07303
 248,06;   17,420;   21,613;  126,060;-4,01357
 248,66;   37,649;   43,719;  153,526;-5,52812
 249,26;   39,033;   30,300;  102,586;12,08094
 249,86;   43,419;   44,721;  160,885;-1,12057
 250,46;   21,127;    4,828;  172,023; 9,74858
 251,06;   34,192;   30,406;  103,194; 5,20156
 251,66;   21,780;   18,014;  130,305; 3,35380
 252,26;   46,713;   40,501;  110,659; 8,85415
 252,86;   31,291;   26,710;  135,356; 4,21671
 253,46;    1,752;   -0,997;   71,476; 3,79314
 254,06;   38,743;   46,300;  117,300;-10,64312
 254,66;   41,889;   43,622;  156,244;-1,53890
 255,26;   66,409;   47,221;  183,271;14,10350
 255,86;   37,104;   53,693;   90,620;-44,92372
 256,46;   27,651;   27,311;  117,701; 0,37546
 257,05;   32,690;   24,314;  137,219; 7,41906
 257,65;   60,870;   55,915;  159,191; 4,79830
 258,25;   47,739;   44,920;  174,412; 2,17717
 258,85;   24,391;   24,210;  114,956; 0,19979
 259,45;   17,211;   13,309;  104,284; 4,28939
 260,05;   41,952;   39,503;  115,376; 3,22777
 260,65;   47,113;   49,901;  110,459;-4,60403
 261,25;   38,260;   35,715;  144,777; 2,33357
 261,85;    3,330;    3,916;  117,036;-0,51839
 262,45;   53,091;   58,110;  146,656;-5,66787
 263,04;   58,199;   54,121;  181,157; 3,20960
 263,64;   46,922;   46,104;  120,435; 1,09990
 264,24;   48,840;   50,116;  169,050;-1,07279
 264,84;   71,518;   72,525;  200,347;-0,78743
 265,44;   37,702;   27,105;  102,308;14,09080
 266,04;   54,963;   40,299;  110,528;20,88077
 266,64;   54,793;   46,002;  130,331;10,42449
 267,24;   41,093;   37,402;  107,331; 5,27806
 267,84;   49,441;   35,308;  124,625;15,82416
 268,43;   57,682;   63,006;  136,180;-7,27632
 269,03;   49,521;   52,609;  143,797;-3,38556
 269,63;   66,023;   71,300;  125,873;-9,67092
 270,23;   13,483;   18,498;   87,355;-7,28282
 270,83;   61,613;   57,001;  121,259; 7,17716
 271,43;   30,712;   42,005;  112,221;-16,08303
 272,03;   59,402;   66,705;  133,008;-11,01532
 272,62;   31,881;   31,410;  109,542; 0,60259
 273,22;   23,810;   11,613;  120,746;11,17666
 273,82;   16,646;   23,684;   41,950;-38,52584
 274,42;   31,094;   31,194;   62,506;-0,31757
 275,02;   38,944;   37,396;   87,038; 3,11863
 275,62;   51,839;   49,620;  176,012; 1,75585
 276,21;   31,941;   22,012;  119,787;10,15477
 276,81;   47,172;   46,802;  100,904; 0,68384
 277,41;   36,010;   34,617;  138,809; 1,33661
 278,01;   26,244;   30,596;   62,038;-13,84087
 278,61;   63,901;   53,409;  127,970;14,07147
 279,20;   63,319;   66,621;  179,185;-2,93316
 279,80;   12,955;    2,887;   19,827;59,43719
 280,40;   50,433;   49,500;  111,686; 1,50010
 281,00;    4,401;   -1,591;   79,870; 7,35543
 281,60;   33,528;   24,024;  147,561; 7,69323
 282,20;   39,051;   44,011;  129,701;-5,78905
 282,79;   33,982;   32,006;  103,580; 2,76027
 283,39;   17,523;   24,500;   69,873;-15,37866
 283,99;   29,934;   24,796;   62,724;13,54591
 284,59;   15,871;   11,311;   95,329; 5,42780
 285,19;   34,162;   27,803;   93,790; 9,63746
 285,78;   23,951;   26,011;  114,401;-2,33129
 286,38;   41,124;   46,196;   90,310;-11,49940
 286,98;   40,682;   42,206;  104,180;-2,45969
 287,58;   17,950;   10,015;  106,264; 8,24385
 288,17;   30,109;   30,221;  134,771;-0,10729
 288,77;   33,277;   25,130;  160,455; 6,02016
 289,37;   14,791;    7,610;  106,556; 7,25776
 289,97;   48,834;   51,596;   89,824;-7,22597
 290,57;   51,189;   40,218;  142,281;10,74987
 291,16;   72,102;   62,005;  153,508;11,03427
 291,76;   21,310;    9,813;  111,846;11,26834
 292,36;   39,232;   34,804;   91,949; 7,74883
 292,96;   11,129;   12,920;  112,799;-1,79340
 293,55;   33,172;   24,302;   95,904;12,38800
 294,15;   22,441;   21,012;  117,487; 1,48109
 294,75;   46,124;   46,296;   87,510;-0,41931
 295,35;   19,902;   30,905;   87,208;-19,54346
 295,94;   42,383;   47,602;  101,718;-9,64521
 296,54;   28,751;   20,307;  102,039;10,33163
 297,14;   38,020;   35,817;  149,522; 1,93756
 297,73;   15,193;   23,498;   65,969;-19,55267
 298,33;   42,043;   41,300;   94,600; 1,39461
 298,93;   56,762;   47,607;  131,952;10,85376
 299,53;   22,369;   21,519;  133,654; 0,75865
 300,12;    7,720;    5,217;  115,922; 2,26105
 300,72;   53,522;   58,004;  131,835;-6,07125
 301,32;   45,770;   37,415;  153,391; 7,20449
 301,92;   15,084;   15,294;   52,693;-0,56131
 302,51;   25,942;   22,804;   94,763; 4,36155
 303,11;   24,962;   21,403;   92,290; 5,02134
 303,71;   31,931;   25,908;  111,711; 7,01983
 304,30;   22,553;   24,399;   89,214;-2,84840
 304,90;   15,843;   22,400;   83,400;-10,74855
 305,50;   38,683;   35,598;   93,655; 5,31420
 306,09;   22,733;   27,100;  107,186;-5,45305
 306,69;   37,740;   37,316;  149,950; 0,37651
 307,29;   29,156;   40,383;   43,764;-332,06893
 307,88;   48,671;   51,611;  142,529;-3,23330
 308,48;    7,631;    7,612;  111,974; 0,01764
 309,08;   11,465;    6,391;   47,803;12,25234
 309,68;   25,893;   25,198;   76,769; 1,34909
 310,27;   11,881;    3,310;  109,342; 8,08322
 310,87;   36,051;   40,507;  113,439;-6,10959
 311,47;   55,352;   52,803;  134,376; 3,12481
 312,06;   51,703;   54,797;   99,183;-6,97026
 312,66;   52,502;   58,605;  130,408;-8,50030
 313,26;   63,680;   57,714;  154,805; 6,14477
 313,85;   52,962;   48,603;  102,090; 8,15053
 314,45;   42,601;   43,309;  124,070;-0,87693
 315,04;   49,003;   52,497;  102,883;-6,93411
 315,64;   34,422;   32,204;   92,535; 3,67569
 316,24;   53,131;   45,412;  136,874; 8,43897
 316,83;   48,933;   44,800;  109,286; 6,40889
 317,43;   42,512;   34,805;  112,521; 9,91693
 318,03;   42,324;   46,992;  105,248;-8,01300
 318,62;   81,776;   83,886;  116,254;-6,52127
 319,22;   25,941;   23,508;  114,325; 2,67979
 319,82;   49,502;   41,505;  135,108; 8,54317
 320,41;   72,431;   50,808;  152,511;21,26113
 321,01;   93,183;   87,098;  148,755; 9,86952
 321,60;   84,694;   75,494;  138,706;14,55490
 322,20;   77,089;   57,422;  215,744;12,42208
 322,80;   60,122;   51,404;  154,635; 8,44475
 323,39;   64,654;   51,895;  113,651;20,65969
 323,99;   59,513;   62,501;  142,359;-3,74178
 324,59;   63,124;   68,792;  121,248;-10,80540
 325,18;   52,342;   47,504;  158,863; 4,34498
 325,78;   74,393;   66,698;  150,369; 9,19761
 326,37;   68,992;   65,706;  177,794; 2,93173
 326,97;   68,622;   72,204;  176,935;-3,42063
 327,57;   40,145;   49,692;  114,875;-14,64638
 328,16;   54,804;   66,793;  136,120;-17,29336
 328,76;   64,783;   65,802;  159,418;-1,08909
 329,35;   78,970;   70,715;  202,591; 6,26004
 329,95;   42,251;   46,311;  172,301;-3,22298
 330,54;   68,752;   57,403;  166,676;10,38592
 331,14;   50,572;   37,202;  149,004;11,95868
 331,74;   66,283;   65,898;  158,355; 0,41670
 332,33;   51,131;   36,712;  182,074; 9,91900
 332,93;   53,384;   48,294;  153,293; 4,84776
 333,52;   56,923;   51,300;  173,173; 4,61334
 334,12;   85,721;   76,609;  216,397; 6,51893
 334,71;   53,833;   55,600;  177,586;-1,44864
 335,31;   86,462;   68,403;  194,790;14,28902
 335,90;   31,905;   38,089;  116,458;-7,89111
 336,50;   39,624;   31,796;  151,710; 6,52735
 337,10;   54,981;   43,110;  224,742; 6,53563
 337,69;   56,524;   58,596;  164,910;-1,94971
 338,29;   42,132;   38,604;  183,549; 2,43406
 338,88;   40,362;   36,207;  199,452; 2,54505
 339,48;   64,415;   69,289;  185,372;-4,19844
 340,07;   51,003;   51,901;  214,445;-0,55283
 340,67;   42,170;   44,015;  244,991;-0,91776
 341,26;   60,633;   52,500;  219,286; 4,87621
 341,86;   77,761;   73,011;  274,415; 2,35837
 342,45;   57,471;   51,411;  255,729; 2,96613
 343,05;   45,371;   41,711;  268,829; 1,61165
 343,64;   69,493;   62,602;  262,431; 3,44840
 344,24;   51,324;   33,096;  233,710; 9,08572
 344,83;   71,134;   72,396;  265,724;-0,65295
 345,43;   43,083;   42,302;  272,018; 0,33975
 346,02;   45,911;   43,109;  299,884; 1,09133
 346,62;   61,880;   49,414;  334,805; 4,36805
 347,21;   59,493;   56,098;  304,069; 1,36941
 347,81;   41,689;   33,118;  351,481; 2,69242
 348,40;   42,104;   34,893;  282,320; 2,91441
 349,00;   61,624;   60,892;  331,448; 0,27056
 349,59;   85,710;   71,813;  420,746; 3,98284
 350,19;   42,880;   44,914;  383,305;-0,60108
 350,78;   55,662;   51,303;  373,790; 1,35183
 351,38;   30,211;   30,009;  377,584; 0,05819
 351,97;   43,383;   42,702;  406,118; 0,18724
 352,57;   39,531;   52,312;  422,774;-3,45018
 353,16;   39,454;   39,295;  383,751; 0,04605
 353,76;   54,010;   46,613;  467,346; 1,75823
 354,35;   46,561;   17,411;  484,915; 6,23521
 354,95;   56,441;   51,712;  515,687; 1,01921
 355,54;   52,141;   38,008;  504,925; 3,02703
 356,14;   51,261;   42,611;  534,915; 1,75702
 356,73;   44,515;   52,589;  490,871;-1,84211
 357,32;   24,631;   26,908;  533,411;-0,44951
 357,92;   42,079;   36,718;  583,967; 0,97966
 358,51;   68,869;   51,519;  631,554; 2,99132
 359,11;   56,789;   47,018;  646,981; 1,62871
 359,70;   34,790;   30,014;  629,419; 0,79687
 360,30;   70,755;   58,187;  603,727; 2,30382
 360,89;   40,362;   25,007;  639,453; 2,49895
 361,48;   69,741;   54,112;  712,987; 2,37206
 362,08;   31,812;   25,005;  677,021; 1,04400
 362,67;   45,445;   33,892;  669,375; 1,81798
 363,27;   71,942;   64,804;  752,763; 1,03764
 363,86;   50,283;   36,998;  746,555; 1,87233
 364,46;   71,704;   56,393;  812,720; 2,02439
 365,05;   89,067;   75,379;  800,115; 1,88874
 365,64;   58,097;   53,582;  858,719; 0,56077
 366,24;   61,028;   39,876;  899,498; 2,46053
 366,83;   71,839;   64,668; 1001,887; 0,76517
 367,43;   82,326;   69,837; 1018,860; 1,31598
 368,02;   65,205;   44,141; 1136,095; 1,92894
 368,61;   91,969;   63,919; 1250,365; 2,36421
 369,21;   52,931;   44,061; 1249,760; 0,73566
 369,80;   72,088;   59,322; 1383,066; 0,96436
 370,39;   83,169;   60,519; 1588,676; 1,48214
 370,99;   88,749;   42,468; 1618,624; 2,93630
 371,58;   60,778;   33,423; 1699,364; 1,64199
 372,18;   90,262;   38,200; 1809,762; 2,93879
 372,77;   82,702;   50,550; 1827,654; 1,80922
 373,36;   96,214;   52,342; 1852,343; 2,43732
 373,96;   89,050;   53,009; 1748,685; 2,12551
 374,55;   75,805;   39,534; 1728,804; 2,14714
 375,14;   75,012;   37,250; 1608,468; 2,40337
 375,74;   99,828;   73,973; 1533,970; 1,77084
 376,33;   79,183;   50,595; 1398,327; 2,12121
 376,92;   64,465;   41,936; 1361,138; 1,70782
 377,52;  127,740;   93,712; 1534,810; 2,36123
 378,11;   87,001;   61,010; 1438,393; 1,88695
 378,71;   97,245;   79,636; 1530,799; 1,21346
 379,30;   81,312;   57,953; 1617,807; 1,49748
 379,89;   88,604;   56,742; 1639,606; 2,01297
 380,49;   57,251;   31,556; 1680,725; 1,55810
 381,08;  125,349;   81,520; 1641,749; 2,80911
 381,67;   92,797;   58,726; 1650,543; 2,14040
 382,26;   85,549;   44,520; 1663,849; 2,53368
 382,86;   71,360;   51,912; 1684,538; 1,19125
 383,45;   87,655;   63,740; 1765,375; 1,40541
 384,04;   69,075;   52,739; 1794,203; 0,93806
 384,64;   80,044;   47,044; 1831,224; 1,84957
 385,23;  102,528;   71,621; 1827,321; 1,76041
 385,82;   84,723;   55,649; 1889,958; 1,58500
 386,42;  111,488;   67,274; 1996,892; 2,29131
 387,01;   87,564;   67,543; 1922,351; 1,07939
 387,60;  110,337;   76,228; 1970,060; 1,80103
 388,20;   74,555;   48,340; 2018,675; 1,33048
 388,79;  113,521;   83,357; 2123,583; 1,47847
 389,38;   70,949;   54,020; 2028,549; 0,85735
 389,97;   84,743;   58,048; 2147,386; 1,27767
 390,57;  108,214;   74,645; 2194,082; 1,58383
 391,16;   96,714;   77,945; 2258,282; 0,86079
 391,75;   82,794;   56,642; 2278,892; 1,17683
 392,34;  101,330;   65,865; 2381,022; 1,53186
 392,94;   90,101;   55,558; 2418,156; 1,46209
 393,53;   70,183;   38,151; 2418,703; 1,34557
 394,12;   86,358;   61,871; 2581,588; 0,97181
 394,72;   92,484;   73,643; 2576,379; 0,75284
 395,31;   83,723;   50,649; 2629,658; 1,28243
 395,90;   77,078;   41,475; 2732,778; 1,32289
 396,49;   95,806;   59,286; 2807,207; 1,32901
 397,09;   83,002;   56,254; 2772,993; 0,98457
 397,68;  103,537;   64,576; 2914,023; 1,36732
 398,27;  103,496;   63,382; 3016,531; 1,35836
 398,86;   92,097;   53,778; 3036,468; 1,28472
 399,45;  110,594;   61,894; 3185,318; 1,55918
 400,05;   79,210;   47,961; 3091,132; 1,02686
 400,64;  104,381;   67,859; 3225,428; 1,15666
 401,23;   98,970;   55,563; 3253,277; 1,35744
 401,82;  109,070;   63,863; 3288,777; 1,40181
 402,42;   99,320;   66,665; 3369,608; 0,98865
 403,01;  134,237;   77,976; 3502,223; 1,64302
 403,60;  123,313;   73,197; 3538,808; 1,44610
 404,19;  135,458;   80,976; 3582,651; 1,55589
 404,78;  106,539;   68,668; 3550,598; 1,08764
 405,38;  122,263;   77,499; 3734,039; 1,22421
 405,97;  107,816;   55,281; 3700,958; 1,44103
 406,56;  136,375;   76,387; 3843,565; 1,59240
 407,15;  112,695;   68,690; 3813,955; 1,17494
 407,74;  124,024;   86,793; 3924,359; 0,97018
 408,34;  106,543;   59,000; 3935,712; 1,22637
 408,93;  118,944;   64,696; 4017,449; 1,37240
 409,52;  109,251;   55,908; 4063,050; 1,33121
 410,11;  135,323;   90,297; 4169,222; 1,10388
 410,70;  104,566;   58,983; 4135,689; 1,11813
 411,29;  121,796;   65,186; 4164,293; 1,38102
 411,89;  116,321;   71,609; 4289,809; 1,05998
 412,48;  108,285;   55,186; 4249,779; 1,26589
 413,07;  106,972;   66,503; 4362,416; 0,94204
 413,66;  115,041;   69,808; 4401,236; 1,04430
 414,25;  122,490;   80,814; 4542,030; 0,93418
 414,84;  127,844;   72,596; 4521,849; 1,24173
 415,44;  147,144;   92,492; 4528,687; 1,23196
 416,03;  122,730;   72,912; 4620,185; 1,09555
 416,62;  134,509;   78,017; 4684,620; 1,22633
 417,21;  136,122;   74,205; 4680,046; 1,34431
 417,80;  123,580;   82,814; 4723,417; 0,87845
 418,39;  144,088;   83,422; 4766,355; 1,29548
 418,98;  108,862;   59,003; 4695,202; 1,07543
 419,58;  124,502;   70,002; 4754,557; 1,16341
 420,17;  111,671;   54,107; 4792,378; 1,21489
 420,76;  141,430;   82,012; 4871,985; 1,24046
 421,35;  124,911;   66,309; 4790,295; 1,24051
 421,94;  148,688;   87,322; 4907,955; 1,27299
 422,53;  125,068;   66,423; 4867,228; 1,22157
 423,12;  135,879;   78,819; 4876,579; 1,18932
 423,71;  111,721;   59,809; 4856,909; 1,08216
 424,30;  151,761;   91,611; 4912,926; 1,24757
 424,90;   98,740;   44,016; 4917,061; 1,12298
 425,49;  140,298;   83,922; 4948,069; 1,15903
 426,08;  145,298;   92,422; 5032,169; 1,07043
 426,67;  114,901;   56,110; 4951,881; 1,20086
 427,26;  133,587;   70,530; 5041,180; 1,26858
 427,85;  123,929;   69,216; 5000,047; 1,10961
 428,44;  140,237;   70,628; 5078,549; 1,38998
 429,03;  153,777;   83,027; 5133,804; 1,40079
 429,62;  141,388;   84,326; 5156,817; 1,12492
 430,21;  152,716;   89,633; 5174,883; 1,24051
 430,80;  127,185;   64,238; 5194,005; 1,22709
 431,39;  131,696;   65,134; 5275,956; 1,27739
 431,99;  132,921;   85,909; 5201,209; 0,91905
 432,58;  143,979;   86,919; 5228,879; 1,10971
 433,17;  126,841;   80,608; 5265,236; 0,89173
 433,76;  144,544;   80,944; 5403,812; 1,19485
 434,35;  160,905;   94,637; 5427,532; 1,24263
 434,94;  165,813;   87,749; 5528,633; 1,43477
 435,53;  134,757;   85,131; 5489,938; 0,91817
 436,12;  139,406;   77,833; 5530,870; 1,12915
 436,71;  157,148;   95,824; 5567,900; 1,12068
 437,30;  156,208;   92,125; 5645,645; 1,15391
 437,89;  155,915;   86,337; 5750,746; 1,22834
 438,48;  139,997;   80,830; 5726,994; 1,04792
 439,07;  160,199;   89,118; 5756,006; 1,25433
 439,66;  160,494;  106,846; 5907,443; 0,92487
 440,25;  142,106;  102,533; 5933,270; 0,67869
 440,84;  167,663;  100,151; 5953,765; 1,15333
 441,43;  158,190;   81,466; 6120,255; 1,27052
 442,02;  145,222;   70,653; 6098,910; 1,23700
 442,61;  169,896;  102,834; 6151,956; 1,10863
 443,20;  160,173;   85,351; 6266,378; 1,21051
 443,79;  135,705;   81,541; 6234,795; 0,88024
 444,38;  160,163;   97,347; 6409,602; 0,99515
 444,97;  154,855;   78,439; 6464,563; 1,19659
 445,56;  177,125;  109,241; 6579,222; 1,04922
 446,15;  174,352;   88,455; 6706,313; 1,29795
 446,74;  143,286;   69,334; 6742,643; 1,10817
 447,33;  156,805;   95,241; 6883,895; 0,90685
 447,92;  155,872;   84,855; 6996,541; 1,02750
 448,51;  181,145;  100,340; 7059,750; 1,16109
 449,10;  176,875;   94,139; 7198,291; 1,16462
 449,69;  165,602;   87,253; 7331,782; 1,08149
 450,28;  148,604;   81,345; 7420,757; 0,91640
 450,87;  167,524;   82,645; 7551,885; 1,13638
 451,46;  187,843;  109,948; 7689,475; 1,02771
 452,05;  174,763;   83,751; 7799,165; 1,17961
 452,64;  177,312;   79,053; 7949,396; 1,24847
 453,23;  213,801;  121,857; 8107,044; 1,15143
 453,82;  192,182;   84,154; 8243,854; 1,32392
 454,40;  173,112;   65,153; 8384,695; 1,29766
 454,99;  204,490;  106,662; 8574,793; 1,15526
 455,58;  175,364;   87,043; 8649,739; 1,03146
 456,17;  167,351;   80,659; 8846,976; 0,98892
 456,76;  182,872;   76,455; 9034,841; 1,18791
 457,35;  195,463;   81,647; 9159,302; 1,25381
 457,94;  185,050;   81,464; 9376,038; 1,11449
 458,53;  181,492;   61,254; 9526,168; 1,27036
 459,12;  223,198;  102,874; 9854,294; 1,23392
 459,71;  177,584;   74,246; 9828,729; 1,05938
 460,30;  215,394;   87,146;10047,144; 1,28763
 460,89;  191,372;   73,955;10215,141; 1,15783
 461,48;  204,050;   79,164;10399,538; 1,21010
 462,06;  194,742;   79,052;10532,938; 1,10668
 462,65;  178,723;   50,349;10614,747; 1,21516
 463,24;  222,689;   97,770;10972,218; 1,14874
 463,83;  187,942;   68,452;11002,037; 1,09288
 464,42;  211,713;   85,649;11187,634; 1,13551
 465,01;  205,012;   73,753;11387,596; 1,16016
 465,60;  201,322;   78,553;11587,810; 1,06670
 466,19;  217,050;   85,064;11761,938; 1,13033
 466,77;  220,752;   85,955;11897,913; 1,14119
 467,36;  212,208;   69,673;12026,008; 1,19213
 467,95;  229,642;   80,156;12155,399; 1,23795
 468,54;  239,510;   89,865;12369,683; 1,21862
 469,13;  226,011;   81,657;12434,158; 1,16862
 469,72;  227,149;   74,968;12666,501; 1,20860
 470,31;  233,529;   85,968;12844,173; 1,15660
 470,90;  242,153;   80,951;12953,451; 1,25229
 471,48;  201,588;   39,174;13142,381; 1,23950
 472,07;  273,154;  121,143;13334,026; 1,15047
 472,66;  230,021;   88,761;13472,034; 1,05550
 473,25;  229,952;   72,055;13588,813; 1,16815
 473,84;  238,480;   61,866;13773,542; 1,28805
 474,43;  222,357;   54,279;14038,502; 1,20191
 475,01;  249,700;   80,066;14139,770; 1,20653
 475,60;  232,159;   49,967;14305,914; 1,27801
 476,19;  278,128;   93,176;14422,298; 1,29074
 476,78;  258,008;   82,173;14542,208; 1,21601
 477,37;  238,759;   58,867;14636,614; 1,23402
 477,95;  261,409;   82,169;14810,445; 1,21698
 478,54;  259,490;   76,062;14981,894; 1,23058
 479,13;  243,390;   63,162;15125,093; 1,19658
 479,72;  273,630;   76,964;15232,811; 1,29762
 480,31;  258,437;   75,880;15418,174; 1,18989
 480,89;  244,800;   70,066;15522,369; 1,13080
 481,48;  256,766;   55,283;15600,078; 1,29615
 482,07;  250,210;   57,765;15750,783; 1,22631
 482,66;  250,480;   68,962;15832,380; 1,15151
 483,25;  287,866;   84,683;15929,778; 1,28231
 483,83;  267,990;   68,466;16050,655; 1,24841
 484,42;  259,850;   63,364;16126,138; 1,22324
 485,01;  280,148;   70,776;16307,025; 1,28954
 485,60;  298,394;   77,194;16445,707; 1,35138
 486,18;  276,409;   67,069;16479,246; 1,27552
 486,77;  280,101;   74,057;16525,145; 1,25246
 487,36;  286,684;   72,094;16711,293; 1,28967
 487,95;  292,516;   70,785;16813,010; 1,32438
 488,53;  276,626;   71,684;16801,322; 1,22502
 489,12;  275,435;   62,692;16952,961; 1,25956
 489,71;  254,335;   39,888;16938,100; 1,26905
 490,30;  288,946;   69,484;17113,451; 1,28763
 490,88;  324,006;   89,585;17127,195; 1,37590
 491,47;  290,724;   69,492;17224,348; 1,28962
 492,06;  294,275;   65,090;17261,617; 1,33274
 492,65;  293,786;   77,986;17233,469; 1,25791
 493,23;  286,376;   68,382;17320,291; 1,26359
 493,82;  280,201;   69,661;17342,307; 1,21892
 494,41;  283,266;   58,487;17437,141; 1,29342
 494,99;  303,180;   84,866;17518,842; 1,25223
 495,58;  312,746;   84,284;17554,650; 1,30771
 496,17;  298,589;   72,370;17509,719; 1,29732
 496,76;  304,309;   93,469;17612,945; 1,20346
 497,34;  285,778;   64,574;17624,666; 1,25970
 497,93;  290,688;   65,474;17590,080; 1,28513
 498,52;  288,917;   75,281;17695,846; 1,21242
 499,10;  315,125;   93,088;17745,086; 1,25786
 499,69;  301,297;   72,282;17776,318; 1,29358
 500,28;  279,137;   45,880;17695,674; 1,32158
 500,86;  300,955;   78,487;17817,127; 1,25414
 501,45;  293,055;   62,587;17787,127; 1,30028
 502,04;  287,935;   74,588;17819,199; 1,20232
 502,62;  303,989;   80,870;17980,617; 1,24649
 503,21;  291,569;   73,771;17892,291; 1,22231
 503,80;  311,015;   80,889;18049,971; 1,28068
 504,38;  295,676;   66,782;18081,592; 1,27059
 504,97;  292,915;   63,789;18149,771; 1,26687
 505,56;  308,667;   86,979;18184,016; 1,22500
 506,14;  319,074;   78,294;18216,379; 1,32748
 506,73;  279,424;   38,396;18106,211; 1,33401
 507,32;  327,483;   77,098;18168,154; 1,38403
 507,90;  311,166;   84,283;18161,578; 1,25507
 508,49;  303,914;   59,197;18255,996; 1,34483
 509,08;  328,604;   77,493;18383,420; 1,37175
 509,66;  312,156;   85,583;18346,564; 1,24075
 510,25;  309,896;   68,886;18430,381; 1,31258
 510,83;  311,224;   75,296;18536,609; 1,27795
 511,42;  331,651;   72,807;18572,838; 1,39916
 512,01;  304,154;   60,695;18642,652; 1,31019
 512,59;  315,415;   62,589;18756,072; 1,35248
 513,18;  318,266;   74,787;18718,840; 1,30593
 513,77;  295,618;   53,173;18818,521; 1,29199
 514,35;  311,885;   48,290;18820,730; 1,40416
 514,94;  319,425;   84,088;18969,385; 1,24614
 515,52;  309,533;   53,000;18990,287; 1,35464
 516,11;  353,734;   92,196;19062,123; 1,37870
 516,69;  310,927;   51,880;18975,660; 1,36889
 517,28;  345,138;  102,676;18976,813; 1,28462
 517,87;  308,558;   69,975;18977,738; 1,26182
 518,45;  330,718;   66,277;19035,684; 1,39404
 519,04;  301,587;   60,478;19057,742; 1,26918
 519,62;  314,475;   53,390;19135,617; 1,36821
 520,21;  292,623;   41,900;19184,572; 1,30976
 520,79;  314,992;   57,406;19303,594; 1,33837
 521,38;  327,036;   58,784;19330,137; 1,39197
 521,97;  321,562;   54,407;19542,053; 1,37089
 522,55;  345,677;   65,078;19568,729; 1,43870
 523,14;  320,767;   34,679;19635,314; 1,45959
 523,72;  344,826;   79,184;19741,822; 1,35100
 524,31;  351,924;   73,996;19769,811; 1,41110
 524,89;  335,902;   55,805;20040,607; 1,40155
 525,48;  324,493;   53,902;20077,531; 1,35136
 526,06;  340,754;   75,395;20128,451; 1,32328
 526,65;  357,300;   73,913;20367,232; 1,39645
 527,23;  338,495;   49,890;20330,645; 1,42305
 527,82;  329,442;   51,304;20600,063; 1,35355
 528,41;  368,303;   68,401;20707,045; 1,45311
 528,99;  343,214;   59,097;20783,096; 1,37096
 529,58;  340,905;   47,789;20840,559; 1,40970
 530,16;  353,666;   56,887;21053,141; 1,41348
 530,75;  378,164;   76,995;21260,465; 1,42172
 531,33;  348,393;   49,602;21294,031; 1,40644
 531,92;  357,256;   56,183;21466,564; 1,40620
 532,50;  404,941;  104,412;21786,588; 1,38606
 533,09;  389,073;   83,598;21850,541; 1,40339
 533,67;  386,597;   78,678;22009,957; 1,40402
 534,26;  378,786;   70,982;22162,506; 1,39331
 534,84;  385,786;   66,086;22364,168; 1,43375
 535,42;  377,864;   63,895;22625,564; 1,39160
 536,01;  406,775;   83,690;22830,316; 1,42036
 536,59;  377,823;   54,600;22982,172; 1,40975
 537,18;  421,297;   80,682;23112,119; 1,47891
 537,76;  401,299;   66,517;23531,195; 1,42675
 538,35;  401,872;   75,907;23692,867; 1,38022
 538,93;  428,254;   89,595;23721,951; 1,43303
 539,52;  412,200;   70,313;24095,432; 1,42304
 540,10;  432,181;   75,810;24403,342; 1,46489
 540,69;  436,414;   91,093;24507,135; 1,41432
 541,27;  432,725;   82,888;24822,186; 1,41409
 541,85;  430,643;   59,400;25106,500; 1,48218
 542,44;  424,466;   67,483;25112,178; 1,42539
 543,02;  455,281;   92,310;25576,242; 1,42431
 543,61;  467,152;   96,503;25801,377; 1,44194
 544,19;  450,753;   68,999;26045,113; 1,46963
 544,78;  437,213;   69,301;26190,260; 1,40849
 545,36;  466,901;  100,009;26530,770; 1,38812
 545,94;  451,664;   66,795;26660,564; 1,44722
 546,53;  469,920;   73,917;26816,822; 1,48078
 547,11;  497,641;  105,408;27133,426; 1,45121
 547,70;  476,597;   93,082;27194,020; 1,41514
 548,28;  452,914;   45,797;27442,697; 1,48600
 548,86;  490,614;   87,897;27794,797; 1,45349
 549,45;  468,762;   46,507;27921,453; 1,51482
 550,03;  489,732;   76,004;28138,549; 1,47431
 550,62;  498,333;   70,000;28556,387; 1,50364
 551,20;  502,652;   79,903;28837,176; 1,47006
 551,78;  491,384;   71,094;28870,492; 1,45937
 552,37;  494,864;   58,995;29194,064; 1,49603
 552,95;  502,034;   59,696;29443,123; 1,50540
 553,54;  502,524;   55,296;29695,211; 1,50887
 554,12;  510,322;   74,404;29911,135; 1,46101
 554,70;  533,941;   90,408;30498,525; 1,45860
 555,29;  519,993;   74,598;30497,770; 1,46400
 555,87;  512,920;   61,613;30831,760; 1,46671
 556,45;  522,235;   62,488;31186,799; 1,47713
 557,04;  526,772;   58,902;31462,805; 1,48985
 557,62;  549,772;   63,202;31739,805; 1,53605
 558,20;  536,810;   48,717;32057,809; 1,52486
 558,79;  578,392;  104,406;32384,094; 1,46837
 559,37;  550,152;   53,403;32421,775; 1,53467
 559,95;  540,021;   58,009;32974,496; 1,46435
 560,54;  579,151;   76,907;33105,141; 1,52065
 561,12;  562,013;   61,901;33310,559; 1,50416
 561,70;  564,011;   57,109;33693,484; 1,50701
 562,29;  578,772;   74,007;34096,867; 1,48361
 562,87;  603,562;   81,807;34555,254; 1,51350
 563,45;  600,962;   82,507;34828,051; 1,49215
 564,04;  582,395;   58,590;34728,145; 1,51085
 564,62;  598,131;   63,108;35171,711; 1,52391
 565,20;  580,456;   62,387;35393,527; 1,46632
 565,78;  600,203;   81,397;35845,984; 1,45061
 566,37;  601,143;   67,400;36021,801; 1,48450
 566,95;  623,581;   73,010;36297,043; 1,51990
 567,53;  626,435;   77,488;36631,398; 1,50175
 568,12;  614,714;   61,697;36731,496; 1,50810
 568,70;  654,044;   88,396;37224,637; 1,52317
 569,28;  632,911;   72,909;37518,684; 1,49550
 569,86;  644,762;   69,103;37728,289; 1,52860
 570,45;  667,071;   75,011;38155,730; 1,55475
 571,03;  629,545;   53,588;38139,211; 1,51227
 571,61;  648,480;   57,514;38657,105; 1,53102
 572,19;  663,765;   59,991;38611,504; 1,56615
 572,78;  679,592;   75,906;39057,594; 1,54864
 573,36;  711,464;   86,495;39295,066; 1,59396
 573,94;  661,884;   61,294;39533,691; 1,52154
 574,52;  686,437;   76,080;39699,473; 1,54040
 575,11;  664,504;   48,093;39929,320; 1,54562
 575,69;  681,393;   64,102;40206,430; 1,53776
 576,27;  688,016;   59,785;40348,609; 1,55932
 576,85;  670,264;   40,795;40698,863; 1,54820
 577,44;  677,435;   48,888;40863,898; 1,53999
 578,02;  681,617;   49,881;40926,648; 1,54546
 578,60;  713,694;   62,994;41257,508; 1,57958
 579,18;  695,535;   62,292;41632,262; 1,52332
 579,76;  687,954;   50,795;41594,051; 1,53372
 580,35;  746,651;   68,111;41928,703; 1,62095
 580,93;  728,112;   76,905;42284,422; 1,54287
 581,51;  706,341;   37,412;42435,488; 1,57773
 582,09;  747,785;   66,590;42631,930; 1,60035
 582,67;  742,252;   72,803;42942,875; 1,56158
 583,26;  733,352;   35,007;43231,340; 1,61667
 583,84;  729,774;   39,694;43499,578; 1,58785
 584,42;  751,444;   68,796;43810,539; 1,56063
 585,00;  797,693;   81,602;44189,230; 1,62351
 585,58;  758,372;   37,302;44473,902; 1,62269
 586,17;  794,026;   64,784;44458,621; 1,64266
 586,75;  746,523;   19,300;44482,672; 1,63555
 587,33;  812,842;   63,604;44897,063; 1,67116
 587,91;  819,323;   91,000;45095,574; 1,61833
 588,49;  814,735;   80,188;45246,199; 1,62633
 589,07;  802,902;   60,505;45233,109; 1,64347
 589,65;  792,483;   46,902;45181,918; 1,65189
 590,24;  799,945;   58,588;45293,613; 1,63890
 590,82;  781,386;   35,086;45274,168; 1,64968
 591,40;  812,674;   58,994;45434,578; 1,66098
 591,98;  813,427;   54,580;45384,961; 1,67403
 592,56;  835,386;   72,486;45642,168; 1,67414
 593,14;  815,227;   45,880;45612,262; 1,68841
 593,72;  833,124;   50,996;45797,711; 1,70969
 594,30;  831,017;   52,581;45818,848; 1,70089
 594,89;  840,454;   57,095;45617,051; 1,71940
 595,47;  841,026;   52,484;45796,723; 1,72381
 596,05;  835,772;   39,602;45930,805; 1,73491
 596,63;  848,572;   54,302;46063,105; 1,72634
 597,21;  846,733;   55,000;46049,988; 1,72135
 597,79;  859,083;   45,002;46159,816; 1,76533
 598,37;  862,661;   52,411;46221,414; 1,75496
 598,95;  885,623;   53,800;46273,074; 1,79973
 599,53;  861,418;   46,873;46082,320; 1,76939
 600,11;  900,934;   57,096;46384,324; 1,82147
 600,70;  902,224;   80,192;46052,746; 1,78809
 601,28;  882,974;   45,494;46162,879; 1,81597
 601,86;  900,223;   68,300;46300,273; 1,79945
 602,44;  890,486;   36,486;46388,270; 1,84243
 603,02;  892,099;   39,570;46382,832; 1,83960
 603,60;  922,128;   66,176;46730,398; 1,83428
 604,18;  950,955;   66,491;46584,891; 1,90132
 604,76;  903,285;   58,790;46600,031; 1,81451
 605,34;  897,163;   36,599;46312,227; 1,85965
 605,92;  945,076;   62,486;46220,855; 1,91209
 606,50;  896,745;   37,188;46309,914; 1,85759
 607,08;  922,793;   43,702;46046,633; 1,91095
 607,66;  967,733;   41,000;46295,488; 2,00355
 608,24;  940,662;   48,503;46338,488; 1,92733
 608,82;  934,004;   33,993;46369,520; 1,94238
 609,40;  968,403;   64,001;46126,047; 1,96344
 609,98;  961,954;   35,095;46236,750; 2,00612
 610,56;  980,436;   52,784;46044,535; 2,01700
 611,14;  969,093;   49,098;46042,070; 2,00030
 611,72;  997,114;   64,597;46143,598; 2,02373
 612,30;  975,995;   41,690;46084,242; 2,02922
 612,88; 1003,977;   71,478;46250,930; 2,01929
 613,46;  987,045;   42,588;46000,414; 2,05505
 614,04;  990,241;   50,408;46040,227; 2,04357
 614,62;  981,916;   51,785;45729,809; 2,03628
 615,20; 1009,902;   57,905;45750,707; 2,08347
 615,78;  983,581;   32,910;45702,141; 2,08164
 616,36; 1007,984;   47,494;45707,492; 2,10357
 616,94;  961,133;   26,000;45666,988; 2,04889
 617,52;  980,912;   34,005;45546,723; 2,08053
 618,10; 1040,847;   72,180;45702,289; 2,12287
 618,68;  999,543;   25,800;45447,398; 2,14379
 619,26; 1029,182;   44,406;45536,379; 2,16472
 619,84;  999,855;   40,491;45161,188; 2,12622
 620,42; 1020,424;   40,896;45357,211; 2,16153
 621,00; 1026,124;   39,096;45365,609; 2,17759
 621,58; 1046,597;   39,482;45249,020; 2,22766
 622,16; 1059,090;   57,014;45337,918; 2,21302
 622,74; 1065,633;   57,600;45236,785; 2,23119
 623,32; 1064,553;   44,799;45204,113; 2,25813
 623,90; 1098,770;   79,315;45023,992; 2,26825
 624,48; 1053,445;   43,688;44883,313; 2,25193
 625,05; 1075,545;   40,088;45065,711; 2,29971
 625,63; 1084,245;   57,388;45042,613; 2,28266
 626,21; 1058,495;   48,190;44855,445; 2,25478
 626,79; 1118,352;   74,903;45051,477; 2,31998
 627,37; 1053,725;   43,088;44755,484; 2,26031
 627,95; 1114,702;   71,305;44796,508; 2,33291
 628,53; 1077,024;   57,896;44747,512; 2,28046
 629,11; 1076,357;   49,879;44640,102; 2,30202
 629,69; 1095,031;   52,108;44879,012; 2,32656
 630,27; 1125,755;   84,091;44600,891; 2,33993
 630,84; 1103,745;   54,488;44537,711; 2,35877
 631,42; 1113,012;   61,005;44855,422; 2,34852
 632,00; 1099,137;   45,980;44578,773; 2,36490
 632,58; 1130,214;   61,493;44575,133; 2,40089
 633,16; 1140,800;   59,113;44579,633; 2,42964
 633,74; 1144,144;   66,096;44446,836; 2,42909
 634,32; 1117,206;   57,385;44291,395; 2,39594
 634,90; 1158,710;   61,113;44901,246; 2,44780
 635,47; 1138,556;   38,283;44333,266; 2,48397
 636,05; 1145,506;   42,085;44188,996; 2,49943
 636,63; 1153,924;   54,696;44344,809; 2,48188
 637,21; 1191,554;   62,095;44528,051; 2,54005
 637,79; 1189,673;   70,898;44448,043; 2,52106
 638,37; 1166,539;   64,468;44258,387; 2,49372
 638,94; 1164,693;   47,098;44318,270; 2,52443
 639,52; 1175,993;   42,198;44423,570; 2,55467
 640,10; 1200,591;   72,894;44524,383; 2,53692
 640,68; 1194,009;   57,694;44555,723; 2,55363
 641,26; 1156,527;   33,794;44602,766; 2,51909
 641,84; 1179,446;   54,794;44264,703; 2,54389
 642,41; 1188,464;   33,394;44386,445; 2,60426
 642,99; 1196,482;   61,194;44412,684; 2,55975
 643,57; 1166,300;   27,195;44380,227; 2,56827
 644,15; 1172,719;   34,095;44424,863; 2,56500
 644,73; 1182,737;   51,095;44794,105; 2,52920
 645,30; 1227,555;   69,595;44532,445; 2,60433
 645,88; 1201,173;   53,895;44571,184; 2,57715
 646,46; 1222,991;   57,295;44724,324; 2,60975
 647,04; 1210,009;   47,895;44548,164; 2,61148
 647,61; 1231,128;   45,795;44756,004; 2,65115
 648,19; 1271,346;   69,795;44812,445; 2,68547
 648,77; 1219,264;   32,095;44807,887; 2,65136
 649,35; 1251,482;   61,995;44879,125; 2,65409
 649,92; 1244,900;   52,995;44855,965; 2,66033
 650,50; 1233,019;   31,796;44722,105; 2,68788
 651,08; 1258,437;   47,596;44624,445; 2,71630
 651,66; 1239,455;   27,196;44888,984; 2,70221
 652,23; 1261,573;   56,496;44823,027; 2,69192
 652,81; 1270,291;   45,996;45074,367; 2,71894
 653,39; 1280,410;   69,596;45120,406; 2,68766
 653,97; 1282,828;   33,196;45228,348; 2,76497
 654,54; 1258,346;   37,096;45073,086; 2,71172
 655,12; 1270,564;   30,696;45271,324; 2,74061
 655,70; 1272,282;   49,196;45327,367; 2,70127
 656,28; 1288,801;   45,596;45491,605; 2,73556
 656,85; 1267,219;   44,896;45428,547; 2,69331
 657,43; 1233,637;   17,297;45216,785; 2,69105
 658,01; 1256,255;   21,797;45644,426; 2,70580
 658,58; 1321,473;   70,597;45949,367; 2,72648
 659,16; 1289,292;   57,397;45552,508; 2,70775
 659,74; 1302,510;   78,497;45746,246; 2,68026
 660,32; 1324,228;   79,297;45955,586; 2,71367
 660,89; 1309,446;   37,497;45904,125; 2,77315
 661,47; 1342,964;   53,597;46094,566; 2,80048
 662,05; 1307,483;   35,997;46285,605; 2,74918
 662,62; 1365,701;   73,597;46643,047; 2,77457
 663,20; 1398,919;   94,697;46661,586; 2,80075
 663,78; 1392,137;   67,397;46944,527; 2,82598
 664,35; 1385,555;   51,597;47161,066; 2,83161
 664,93; 1415,774;   64,698;47390,008; 2,85487
 665,51; 1397,092;   54,798;47523,445; 2,82775
 666,08; 1406,610;   52,598;47587,188; 2,84848
 666,66; 1426,928;   54,898;48219,926; 2,84860
 667,23; 1446,746;   73,498;48259,168; 2,84991
 667,81; 1473,464;   67,298;48827,809; 2,88382
 668,39; 1458,783;   53,798;48982,547; 2,87149
 668,96; 1465,601;   64,898;49249,488; 2,84785
 669,54; 1485,819;   52,398;49565,027; 2,89506
 670,12; 1496,937;   62,098;50043,266; 2,87076
 670,69; 1517,656;   72,198;50587,309; 2,86144
 671,27; 1491,674;   42,698;50804,949; 2,85443
 671,84; 1519,692;   52,699;50686,289; 2,89727
 672,42; 1544,110;   77,899;51094,227; 2,87400
 673,00; 1540,228;   61,099;51364,270; 2,88312
 673,57; 1516,047;   73,699;51056,109; 2,82911
 674,15; 1582,965;   76,499;51454,246; 2,93214
 674,72; 1551,583;   64,499;51271,988; 2,90404
 675,30; 1561,801;   68,499;51194,930; 2,92080
 675,88; 1554,919;   47,299;51369,867; 2,93754
 676,45; 1560,637;   68,799;51601,406; 2,89494
 677,03; 1569,056;   70,999;51397,750; 2,91867
 677,60; 1537,874;   36,999;51440,387; 2,91980
 678,18; 1601,792;   63,399;51741,328; 2,97689
 678,76; 1573,110;   39,800;51655,566; 2,97062
 679,33; 1619,828;   60,000;51613,008; 3,02568
 679,91; 1593,147;   48,100;51616,250; 2,99613
 680,48; 1607,165;   49,900;51590,789; 3,02142
 681,06; 1594,983;   53,900;51551,828; 2,99251
 681,63; 1612,401;   48,800;51360,969; 3,04723
 682,21; 1633,519;   75,100;51466,910; 3,03243
 682,78; 1581,538;   22,700;50943,648; 3,06129
 683,36; 1611,456;   54,300;51124,789; 3,04903
 683,93; 1592,074;   48,100;50885,328; 3,03709
 684,51; 1578,992;   45,600;50889,270; 3,01590
 685,08; 1626,510;   50,900;51123,410; 3,08505
 685,66; 1613,229;   59,001;51258,648; 3,03562
 686,24; 1601,047;   45,801;51266,789; 3,03635
 686,81; 1633,565;   58,201;51376,027; 3,06982
 687,39; 1600,083;   46,201;51314,770; 3,03087
 687,96; 1600,901;   54,201;51515,711; 3,00555
 688,54; 1621,320;   25,401;51650,148; 3,09138
 689,11; 1591,038;   31,501;51776,789; 3,01387
 689,69; 1610,856;   41,901;51664,027; 3,03931
 690,26; 1646,774;   60,901;52121,570; 3,04620
 690,84; 1644,392;   57,601;51906,211; 3,06043
 691,41; 1641,111;   51,001;52199,750; 3,04918
 691,98; 1649,829;   40,201;52310,590; 3,07943
 692,56; 1669,047;   37,101;52299,531; 3,12260
 693,13; 1751,365;   66,302;52835,871; 3,19325
 693,71; 1689,483;   35,502;52870,508; 3,13047
 694,28; 1699,202;   34,302;52895,852; 3,14955
 694,86; 1740,320;   51,802;53283,488; 3,17202
 695,43; 1781,938;   69,202;53173,031; 3,22526
 696,01; 1756,056;   54,302;53738,871; 3,16991
 696,58; 1769,374;   45,002;53627,512; 3,21816
 697,16; 1780,893;   49,502;53758,352; 3,22366
 697,73; 1862,311;   80,802;54265,191; 3,28786
 698,30; 1813,829;   52,702;53928,930; 3,26884
 698,88; 1831,347;   45,602;54095,770; 3,30387
 699,45; 1817,765;   40,902;54204,309; 3,28056
 700,03; 1897,984;   58,803;54551,648; 3,37509
 700,60; 1907,202;   69,203;54563,492; 3,37283
 701,18; 1928,320;   73,403;54806,930; 3,38900
 701,75; 1960,338;   75,303;55150,672; 3,42265
 702,32; 1950,756;   47,703;54894,012; 3,46979
 702,90; 1965,675;   54,703;55278,152; 3,46044
 703,47; 1983,793;   64,703;55434,191; 3,46597
 704,05; 2030,511;   82,503;55625,531; 3,50721
 704,62; 2007,129;   40,303;55573,270; 3,54173
 705,19; 2046,547;   48,703;55701,609; 3,58983
 705,77; 2059,766;   30,503;55980,852; 3,62690
 706,34; 2114,784;   65,903;55939,090; 3,66702
 706,91; 2125,302;   51,604;56105,730; 3,69946
 707,49; 2175,920;   64,904;56452,871; 3,74374
 708,06; 2232,638;   81,504;56656,609; 3,80226
 708,64; 2245,457;   41,804;56518,352; 3,90189
 709,21; 2288,075;   66,604;56773,191; 3,91748
 709,78; 2358,193;   54,904;56750,332; 4,06257
 710,36; 2422,711;   68,504;57047,770; 4,13169
 710,93; 2496,329;   69,704;57101,910; 4,25483
 711,50; 2515,347;   53,104;57382,551; 4,29490
 712,08; 2627,766;   64,704;57739,492; 4,44399
 712,65; 2647,684;   77,104;57507,930; 4,47596
 713,22; 2720,602;   88,404;57647,773; 4,57301
 713,80; 2805,520;   89,904;57985,113; 4,69057
 714,37; 2802,938;   62,705;57654,953; 4,75799
 714,94; 2894,957;   67,705;57721,691; 4,90383
 715,52; 2928,975;   58,905;57599,434; 4,98791
 716,09; 3002,093;   63,205;57731,973; 5,09615
 716,66; 3107,411;   74,205;57502,613; 5,28172
 717,23; 3104,929;   72,805;57685,254; 5,26297
 717,81; 3189,248;   58,805;57459,191; 5,45370
 718,38; 3215,166;   51,605;57252,332; 5,53063
 718,95; 3260,584;   70,805;57242,070; 5,57934
 719,53; 3308,502;   58,505;57111,012; 5,69650
 720,10; 3381,120;   78,805;56880,754; 5,81374
 720,67; 3414,239;   49,405;56701,691; 5,93945
 721,24; 3503,757;   68,006;56407,832; 6,09826
 721,82; 3511,575;   65,506;56337,973; 6,12390
 722,39; 3603,393;   63,006;56449,414; 6,27880
 722,96; 3660,511;   79,706;56495,953; 6,34712
 723,53; 3739,130;   87,306;56453,094; 6,47879
 724,11; 3808,448;   67,806;56521,234; 6,62607
 724,68; 3840,566;   69,806;56581,574; 6,67252
 725,25; 3933,684;   74,206;56729,711; 6,81219
 725,82; 4030,002;   99,706;57170,152; 6,88675
 726,40; 4049,121;   62,206;57214,395; 6,97596
 726,97; 4087,239;   67,806;57301,234; 7,02288
 727,54; 4194,557;   62,706;57229,973; 7,22765
 728,11; 4265,675;   53,607;57361,813; 7,34985
 728,69; 4278,193;   49,507;57573,352; 7,35119
 729,26; 4331,711;   58,707;57865,293; 7,39190
 729,83; 4388,230;   53,707;58108,832; 7,46622
 730,40; 4450,048;   58,407;58192,074; 7,55438
 730,97; 4487,266;   47,007;58596,813; 7,58373
 731,55; 4534,185;   47,407;58769,953; 7,64064
 732,12; 4642,803;  100,907;58623,992; 7,76086
 732,69; 4638,521;   71,407;58612,434; 7,80156
 733,26; 4643,639;   53,407;58592,074; 7,84137
 733,83; 4708,457;   50,907;58912,113; 7,91277
 734,41; 4749,875;   74,707;59208,754; 7,90605
 734,98; 4728,394;   62,607;59257,492; 7,88208
 735,55; 4795,412;   55,908;59487,133; 7,97477
 736,12; 4882,830;   72,208;59456,172; 8,10088
 736,69; 4878,348;   90,408;59613,313; 8,04386
 737,26; 4922,167;   68,108;59770,754; 8,13039
 737,84; 4943,885;   62,508;59579,195; 8,20169
 738,41; 5000,703;   59,908;59723,734; 8,28106
 738,98; 4974,921;   70,608;59579,676; 8,24129
 739,55; 4983,139;   62,008;59464,215; 8,28442
 740,12; 5038,357;   79,008;59831,754; 8,29978
 740,69; 5072,375;   71,408;59967,594; 8,34939
 741,26; 5025,994;   69,108;59921,535; 8,28185
 741,83; 5092,412;   69,208;59843,773; 8,40358
 742,41; 5101,430;   74,309;60309,313; 8,34585
 742,98; 5149,548;  103,909;60395,656; 8,36871
 743,55; 5150,466;   69,509;60240,496; 8,44420
 744,12; 5135,085;   57,709;60022,535; 8,46726
 744,69; 5162,703;   75,109;60194,574; 8,46247
 745,26; 5126,421;   46,009;59896,914; 8,48845
 745,83; 5179,639;   62,409;60193,254; 8,51016
 746,40; 5182,658;   64,009;60053,293; 8,53260
 746,97; 5217,375;   47,509;59961,535; 8,62881
 747,55; 5204,994;   72,209;60003,477; 8,56445
 748,12; 5241,212;   64,409;60031,316; 8,63277
 748,69; 5282,030;   64,109;60045,355; 8,69925
 749,26; 5272,449;   68,610;60145,594; 8,66195
 749,83; 5222,467;   62,210;60013,035; 8,60748
 750,40; 5303,185;  103,510;59932,074; 8,69096
 750,97; 5269,703;  103,510;60095,516; 8,61147
 751,54; 5241,121;   43,310;59869,254; 8,68822
 752,11; 5308,040;   67,510;59894,594; 8,75946
 752,68; 5307,058;  102,510;59665,434; 8,73790
 753,25; 5334,876;   71,610;59511,777; 8,85473
 753,82; 5331,094;   72,910;59701,414; 8,81824
 754,39; 5333,912;   76,010;59739,355; 8,81262
 754,96; 5318,530;   72,910;59250,297; 8,86423
 755,53; 5295,049;   52,210;59510,137; 8,81773
 756,10; 5309,567;   70,911;59313,574; 8,84271
 756,67; 5388,585;   81,611;59430,316; 8,94202
 757,24; 5320,903;   82,211;59289,656; 8,84803
 757,81; 5347,321;   43,711;59342,195; 8,94392
 758,38; 5407,340;   60,311;59341,734; 9,01974
 758,95; 5386,158;   84,911;59414,574; 8,93524
 759,52; 5340,976;   59,511;58757,516; 8,99769
 760,09; 5352,194;   70,811;58642,957; 9,01689
 760,66; 5274,612;   68,611;58366,598; 8,92998
 761,23; 5321,131;   85,611;58358,438; 8,98450
 761,80; 5340,349;   74,811;58348,176; 9,03592
 762,37; 5352,967;   87,411;58400,617; 9,02978
 762,94; 5385,685;   84,011;58434,258; 9,08595
 763,51; 5314,204;   59,112;58202,297; 9,03819
 764,08; 5333,822;   68,712;58167,637; 9,06232
 764,65; 5333,640;   87,212;57945,176; 9,06777
 765,22; 5317,758;   59,812;57632,418; 9,13272
 765,79; 5344,576;   79,712;57326,059; 9,19686
 766,36; 5312,495;   80,612;57346,598; 9,13611
 766,93; 5339,313;   65,712;57506,738; 9,18090
 767,50; 5342,931;   77,912;57339,375; 9,19470
 768,07; 5374,049;   77,312;57431,219; 9,23518
 768,64; 5369,967;   91,312;57245,355; 9,23584
 769,21; 5331,785;   64,112;56750,797; 9,29261
 769,78; 5310,604;   78,412;56606,938; 9,25584
 770,34; 5243,922;   44,213;56182,477; 9,26233
 770,91; 5272,540;   63,513;56215,117; 9,27672
 771,48; 5270,258;   69,513;55998,656; 9,29881
 772,05; 5232,076;   79,213;55701,898; 9,26396
 772,62; 5204,495;   51,913;55274,836; 9,33051
 773,19; 5228,313;   66,313;55428,477; 9,32406
 773,76; 5223,631;   78,913;55294,016; 9,31759
 774,33; 5229,649;   75,413;55158,156; 9,35726
 774,90; 5199,067;   60,413;54598,199; 9,42219
 775,47; 5208,686;   70,013;54692,637; 9,40759
 776,03; 5179,404;   77,913;54517,977; 9,37084
 776,60; 5160,222;   63,713;54224,719; 9,40992
 777,17; 5182,340;   66,414;54057,457; 9,47551
 777,74; 5114,358;   41,514;53490,098; 9,49107
 778,31; 5194,577;   71,414;53612,637; 9,56863
 778,88; 5115,495;   44,614;53275,879; 9,52613
 779,45; 5128,413;   91,914;53168,418; 9,48913
 780,01; 5100,231;   80,414;53129,656; 9,46256
 780,58; 5083,649;   75,314;52949,398; 9,47219
 781,15; 5046,768;   60,014;52661,438; 9,48026
 781,72; 5129,786;   74,014;52554,078; 9,63370
 782,29; 5045,704;   69,114;52079,219; 9,56851
 782,86; 5036,922;   75,114;51771,258; 9,59802
 783,42; 5027,541;   70,814;51617,297; 9,61603
 783,99; 5008,659;   66,514;51666,738; 9,57776
 784,56; 5024,977;   75,815;51183,078; 9,68387
 785,13; 4975,395;   65,615;51106,617; 9,61929
 785,70; 4973,713;   63,815;50902,359; 9,65783
 786,26; 4949,631;   80,715;50828,699; 9,59431
 786,83; 5002,250;   81,915;50547,141; 9,74995
 787,40; 4964,868;   71,915;50338,180; 9,73407
 787,97; 4945,586;   50,915;50082,520; 9,78316
 788,54; 4940,904;   76,715;50067,559; 9,73016
 789,10; 4869,922;   70,915;49707,098; 9,66836
 789,67; 4850,240;   88,815;49374,039; 9,66096
 790,24; 4895,759;   67,215;49515,980; 9,76474
 790,81; 4883,977;   85,715;48790,621; 9,85170
 791,37; 4865,995;   89,816;48703,758; 9,82471
 791,94; 4833,513;   77,416;48731,301; 9,77537
 792,51; 4828,332;   55,216;48281,039; 9,89743
 793,08; 4824,050;   78,116;48263,180; 9,84939
 793,64; 4778,668;   70,516;47992,719; 9,82457
 794,21; 4801,086;   91,216;47794,559; 9,87325
 794,78; 4794,604;   67,216;47492,598; 9,96805
 795,35; 4724,723;   74,916;47095,641; 9,88884
 795,91; 4678,541;   58,816;46888,879; 9,86487
 796,48; 4712,159;   76,616;46538,621; 9,97706
 797,05; 4728,277;   66,716;46539,961;10,03063
 797,62; 4697,095;   57,616;46365,500;10,01877
 798,18; 4675,513;   65,717;46022,840;10,03065
 798,75; 4646,132;   60,917;45731,480;10,03976
 799,32; 4697,150;   71,517;45653,219;10,14800
 799,88; 4671,268;   71,317;45503,160;10,12495
 800,45; 4552,086;   43,617;45090,801;10,00833
 801,02; 4612,804;   70,617;45058,039;10,09657
 801,58; 4626,422;  103,217;44902,180;10,09667
 802,15; 4533,041;   78,917;44603,820;10,00367
 802,72; 4544,459;   86,717;44283,559;10,08611
 803,28; 4504,477;   62,217;44124,699;10,08173
 803,85; 4453,996;   51,017;43840,340;10,05491
 804,42; 4484,614;   86,817;43684,180;10,08730
 804,98; 4504,832;  110,518;43623,922;10,09876
 805,55; 4456,750;   63,118;43303,762;10,16089
 806,12; 4456,068;  101,318;43094,000;10,12905
 806,68; 4367,086;   75,418;42643,539;10,08188
 807,25; 4367,305;  100,118;42538,480;10,05502
 807,82; 4342,223;   94,218;42414,621;10,03772
 808,38; 4294,041;   78,818;42374,461; 9,96609
 808,95; 4286,159;   71,618;42215,199;10,00043
 809,52; 4291,978;   67,418;42170,340;10,03389
 810,08; 4292,596;   78,418;42035,480;10,04402
 810,65; 4297,214;   70,318;42062,520;10,06591
 811,21; 4305,532;   81,418;42152,461;10,04043
 811,78; 4282,350;  103,518;42171,902; 9,93343
 812,35; 4251,269;   77,619;41843,543; 9,99295
 812,91; 4257,086;   96,919;42028,383; 9,92135
 813,48; 4245,005;   73,519;41847,520; 9,98584
 814,04; 4147,923;   84,319;41782,961; 9,74517
 814,61; 4161,941;   86,119;41608,602; 9,81594
 815,18; 4123,859;   80,719;41371,543; 9,79186
 815,74; 4081,677;   85,619;41303,980; 9,69485
 816,31; 4094,996;   87,719;40917,621; 9,81456
 816,87; 3981,814;   48,519;40470,363; 9,73062
 817,44; 3984,432;   89,319;40395,402; 9,66383
 818,00; 3958,650;   56,519;40200,641; 9,72030
 818,57; 3921,569;   93,519;39997,082; 9,59325
 819,14; 3910,987;   97,720;39811,922; 9,60177
 819,70; 3892,905;   88,420;39535,660; 9,64449
 820,27; 3804,323;   77,320;39377,602; 9,48340
 820,83; 3797,941;   77,020;39086,941; 9,53840
 821,40; 3796,459;  107,520;38849,980; 9,52170
 821,96; 3778,978;   81,620;38601,422; 9,59859
 822,53; 3698,396;   83,020;38411,762; 9,43255
 823,09; 3691,914;  109,920;38424,301; 9,34895
 823,66; 3670,632;   88,420;38045,141; 9,43762
 824,22; 3609,250;   85,720;37912,484; 9,31491
 824,79; 3611,369;   84,920;37523,723; 9,41923
 825,35; 3586,887;   93,320;37602,664; 9,31386
 825,92; 3564,005;   80,021;37253,602; 9,37221
 826,48; 3565,023;  107,521;37167,043; 9,32959
 827,05; 3522,042;   99,421;36937,082; 9,29109
 827,61; 3534,460;   84,421;36644,523; 9,43662
 828,18; 3500,778;   74,121;36543,762; 9,39592
 828,74; 3464,896;   88,421;36346,004; 9,31247
 829,31; 3460,014;   99,621;36305,645; 9,28131
 829,87; 3470,833;   85,121;36173,883; 9,38162
 830,44; 3442,951;   91,621;36054,922; 9,31875
 831,00; 3504,069;   97,221;35964,465; 9,49849
 831,57; 3484,487;  113,021;35736,305; 9,46422
 832,13; 3431,405;   81,521;35201,441; 9,53842
 832,69; 3443,923;   81,021;35253,785; 9,56110
 833,26; 3478,342;   92,922;35075,125; 9,67755
 833,82; 3446,760;  103,122;34779,063; 9,64253
 834,39; 3397,078;   82,922;34662,203; 9,58423
 834,95; 3415,696;   75,222;34586,445; 9,67939
 835,52; 3440,115;  114,822;34573,582; 9,65006
 836,08; 3431,533;  102,222;34467,223; 9,68809
 836,64; 3457,951;   88,722;34415,863; 9,81506
 837,21; 3415,169;  100,422;34108,805; 9,74685
 837,77; 3424,387;   87,922;33973,742; 9,84620
 838,34; 3410,505;   80,322;33883,184; 9,85178
 838,90; 3397,823;   74,022;33688,023; 9,88814
 839,46; 3430,742;  102,722;33660,965; 9,91714
 840,03; 3430,460;   89,823;33589,305; 9,97221
 840,59; 3407,978;   98,623;33224,945; 9,99011
 841,16; 3435,096;  115,023;33197,586;10,03572
 841,72; 3384,615;   60,623;32782,023;10,15846
 842,28; 3410,333;   88,023;33006,664;10,09249
 842,85; 3414,751;  111,223;32981,305;10,05026
 843,41; 3388,369;  115,623;32759,645;10,02556
 843,97; 3375,387;  101,523;32628,484;10,06508
 844,54; 3340,605;  103,923;32606,424; 9,95826
 845,10; 3334,824;  101,623;32435,264; 9,99949
 845,67; 3308,242;   84,723;32257,805;10,01930
 846,23; 3334,960;   89,623;32027,045;10,16155
 846,79; 3294,778;   95,524;31792,686;10,09319
 847,36; 3217,997;   74,924;31579,225; 9,97665
 847,92; 3251,815;   98,924;31430,064;10,06312
 848,48; 3233,333;   52,124;31495,006;10,11742
 849,04; 3187,751;   76,124;31293,445; 9,96763
 849,61; 3160,569;   69,624;31314,285; 9,89272
 850,17; 3188,988;   75,324;31291,824; 9,97442
 850,73; 3121,106;   79,824;31295,666; 9,74275
 851,30; 3138,224;   67,024;31085,805; 9,90110
 851,86; 3097,742;   82,024;30886,045; 9,79001
 852,42; 3084,160;   68,124;30971,785; 9,75948
 852,99; 3119,378;   94,224;30848,025; 9,83668
 853,55; 3101,797;  105,124;30691,564; 9,79739
 854,11; 3067,815;   74,425;30375,906; 9,87869
 854,67; 3032,633;   95,225;30426,945; 9,68428
 855,24; 3000,351;   67,225;30329,586; 9,69233
 855,80; 3039,469;   89,225;30332,326; 9,75510
 856,36; 3006,588;   86,525;30215,365; 9,69192
 856,92; 2947,006;   62,925;30050,506; 9,61758
 857,49; 2949,024;   83,025;29960,646; 9,59246
 858,05; 2968,242;   79,825;29911,785; 9,68229
 858,61; 2954,760;   66,325;29929,727; 9,67216
 859,17; 2939,979;   89,325;29718,566; 9,62108
 859,74; 2920,997;   83,025;29678,205; 9,58930
 860,30; 2896,715;  113,925;29483,246; 9,47516
 860,86; 2871,633;   68,026;29312,586; 9,58677
 861,42; 2904,251;   86,626;29074,326; 9,72007
 861,99; 2830,670;   63,326;29042,166; 9,54953
 862,55; 2808,788;   75,226;28893,006; 9,48568
 863,11; 2811,306;   91,926;29061,646; 9,38697
 863,67; 2792,824;   76,826;28852,586; 9,43849
 864,23; 2808,143;   90,526;28750,727; 9,48220
 864,80; 2760,461;   70,326;28544,666; 9,44757
 865,36; 2754,179;   65,426;28649,607; 9,40644
 865,92; 2761,897;  100,126;28461,146; 9,38531
 866,48; 2766,715;   89,526;28425,188; 9,44813
 867,04; 2673,134;   67,426;28159,627; 9,27555
 867,60; 2668,052;   91,327;28118,768; 9,19358
 868,17; 2694,970;  104,427;27939,207; 9,30686
 868,73; 2664,288;   82,127;27621,646; 9,37620
 869,29; 2645,206;   65,927;27596,787; 9,36868
 869,85; 2662,524;  113,027;27568,627; 9,28589
 870,41; 2606,243;   81,527;27384,168; 9,24715
 870,97; 2608,561;  107,827;27213,406; 9,22590
 871,54; 2530,979;   85,727;26980,947; 9,09177
 872,10; 2559,997;   88,627;26828,088; 9,24241
 872,66; 2526,215;   62,827;26528,428; 9,30789
 873,22; 2505,734;   93,127;26519,367; 9,12959
 873,78; 2439,552;   78,627;26172,908; 9,04767
 874,34; 2467,470;  104,228;26033,547; 9,11417
 874,90; 2445,870;  120,827;25783,248; 9,06011
 875,46; 2400,170;   99,728;25709,348; 8,98273
 876,03; 2396,870;   98,927;25420,648; 9,07499
 876,59; 2338,070;   77,327;25181,547; 9,00543
 877,15; 2374,270;  109,827;25149,047; 9,04358
 877,71; 2347,670;  106,228;25212,648; 8,92777
 878,27; 2338,070;   96,427;24989,248; 9,00518
 878,83; 2340,370;  116,827;25022,148; 8,92798
 879,39; 2328,070;  100,027;24973,648; 8,95745
 879,95; 2311,670;   98,827;24843,648; 8,94265
 880,51; 2283,570;   83,728;24936,047; 8,85166
 881,07; 2306,270;   90,527;25061,848; 8,87315
 881,63; 2302,070;  101,027;25156,047; 8,78484
 882,19; 2297,070;   87,628;24975,447; 8,87761
 882,75; 2298,870;  101,427;25261,947; 8,73369
 883,31; 2282,670;  105,327;25428,648; 8,59817
 883,88; 2320,970;   98,927;25336,748; 8,80442
 884,44; 2313,270;   91,927;25417,947; 8,77099
 885,00; 2325,570;  107,427;25761,848; 8,64624
 885,56; 2292,870;  107,827;25751,648; 8,52074
 886,12; 2329,270;  111,228;25842,648; 8,61998
 886,68; 2295,370;   99,228;25852,348; 8,52768
 887,24; 2348,870;  117,927;26350,547; 8,50446
 887,80; 2335,770;   90,728;26280,748; 8,57213
 888,36; 2335,170;  116,327;26529,848; 8,40040
 888,92; 2369,370;  125,728;26572,047; 8,48376
 889,48; 2343,470;  103,128;26954,447; 8,34351
 890,04; 2327,770;  109,128;26947,547; 8,26667
 890,60; 2384,770;  112,128;27251,248; 8,37405
 891,16; 2359,670;   96,628;27188,848; 8,35311
 891,72; 2336,170;  118,228;27260,547; 8,17153
 892,28; 2339,370;  134,827;27331,547; 8,10591
 892,84; 2353,170;  104,728;27348,848; 8,25295
 893,39; 2343,770;  123,927;27411,947; 8,13486
 893,95; 2320,570;  114,228;27186,348; 8,14987
 894,51; 2218,270;   76,327;26955,748; 7,96871
 895,07; 2291,170;  129,727;27084,848; 8,01867
 895,63; 2224,170;   77,128;26839,947; 8,02248
 896,19; 2199,670;   97,128;26677,248; 7,91021
 896,75; 2192,570;  124,927;26555,748; 7,82285
 897,31; 2114,470;   90,728;26203,148; 7,75011
 897,87; 2081,270;  101,728;25897,248; 7,67398
 898,43; 2066,770;  106,527;25790,848; 7,63206
 898,99; 2060,370;  117,427;25589,047; 7,62787
 899,55; 2022,770;  119,927;25597,447; 7,46871
 900,11; 1987,070;  108,327;25305,447; 7,45618
 900,67; 1947,570;   98,527;25075,248; 7,40306
 901,22; 1968,470;  119,628;24861,047; 7,47266
 901,78; 1901,670;   91,628;24661,248; 7,36699
 902,34; 1936,570;  111,228;24532,248; 7,47447
 902,90; 1867,170;   80,827;24335,148; 7,36505
 903,46; 1871,570;  105,728;24231,348; 7,31937
 904,02; 1829,370;  100,527;24123,947; 7,19649
 904,58; 1800,170;   90,728;23850,848; 7,19459
 905,14; 1760,470;   68,527;23822,947; 7,12264
 905,70; 1752,370;   83,927;23630,748; 7,08564
 906,25; 1753,770;   90,628;23553,348; 7,08845
 906,81; 1754,070;   94,628;23392,047; 7,12286
 907,37; 1729,970;   98,827;23257,447; 7,04335
 907,93; 1685,770;   89,527;23089,748; 6,94012
 908,49; 1696,570;   99,628;22999,447; 6,97360
 909,05; 1677,370;   97,827;22927,848; 6,91871
 909,60; 1659,070;  108,228;22788,748; 6,83777
 910,16; 1613,570;   74,228;22700,748; 6,80327
 910,72; 1645,570;  110,427;22663,447; 6,80682
 911,28; 1627,870;  102,128;22408,248; 6,84002
 911,84; 1570,870;   90,628;22454,148; 6,61900
 912,39; 1582,870;   78,427;22258,547; 6,78284
 912,95; 1584,170;  102,728;22258,148; 6,68659
 913,51; 1558,270;   98,327;22083,547; 6,64056
 914,07; 1525,970;   98,728;21907,547; 6,54434
 914,63; 1519,770;   76,128;21874,547; 6,62269
 915,18; 1498,070;   87,628;21589,648; 6,55958
 915,74; 1469,270;   80,927;21587,248; 6,45551
 916,30; 1448,570;   59,528;21357,648; 6,52190
 916,86; 1449,970;   93,728;21262,648; 6,40676
 917,42; 1430,270;  100,228;21321,348; 6,26754
 917,97; 1403,170;   77,427;21064,748; 6,31687
 918,53; 1364,970;   74,927;20915,447; 6,19007
 919,09; 1394,970;   98,728;20860,447; 6,24343
 919,65; 1363,570;   85,527;20650,848; 6,21455
 920,20; 1338,170;   73,527;20532,748; 6,18128
 920,76; 1289,870;   72,027;20320,547; 6,01448
 921,32; 1309,170;   82,027;20178,947; 6,10612
 921,87; 1284,670;  102,728;19954,348; 5,95388
 922,43; 1234,970;   77,027;19849,648; 5,85629
 922,99; 1214,770;   67,427;19482,748; 5,90947
 923,55; 1186,970;   70,527;19338,047; 5,79443
 924,10; 1197,870;   73,027;19189,547; 5,88414
 924,66; 1144,270;   87,827;18955,648; 5,59918
 925,22; 1097,870;   55,228;18851,248; 5,54714
 925,77; 1102,370;   82,128;18536,348; 5,52851
 926,33; 1108,670;   95,927;18507,947; 5,50044
 926,89; 1067,770;   71,427;18124,148; 5,51907
 927,44; 1015,170;   62,327;17937,248; 5,33061
 928,00; 1030,070;   71,228;17715,447; 5,43431
 928,56; 1030,570;   88,827;17529,648; 5,39965
 929,12;  998,870;   87,728;17383,348; 5,26805
 929,67;  950,970;   69,527;17014,248; 5,20187
 930,23;  905,570;   56,127;16842,248; 5,06039
 930,78;  975,570;  115,628;16704,547; 5,18384
 931,34;  915,470;   72,327;16173,647; 5,23648
 931,90;  875,970;   73,128;15997,647; 5,04155
 932,45;  877,970;   83,427;15594,647; 5,12237
 933,01;  825,070;   64,728;15138,247; 5,04423
 933,57;  805,970;   74,527;14649,048; 5,01864
 934,12;  775,070;   82,628;14015,147; 4,96997
 934,68;  732,070;   64,427;13299,647; 5,04444
 935,24;  686,370;   77,027;12511,147; 4,90057
 935,79;  655,670;   75,228;11770,247; 4,96316
 936,35;  631,270;  101,827;10989,848; 4,86262
 936,90;  589,070;   84,427;10143,848; 5,01662
 937,46;  542,070;   83,728; 9403,947; 4,91772
 938,02;  492,670;   73,527; 8615,747; 4,90672
 938,57;  473,370;   81,728; 8016,047; 4,93606
 939,13;  444,870;   80,228; 7513,447; 4,90558
 939,68;  392,370;   68,628; 6973,248; 4,68878
 940,24;  397,770;   71,527; 6581,047; 5,01178
 940,79;  401,570;  110,628; 6292,447; 4,70642
 941,35;  397,070;  101,228; 6079,047; 4,94900
 941,91;  354,070;   75,527; 5851,348; 4,82256
 942,46;  344,970;   77,128; 5791,947; 4,68681
 943,02;  349,270;   79,927; 5671,348; 4,81707
 943,57;  313,470;   64,427; 5573,547; 4,52055
 944,13;  351,170;   79,027; 5648,147; 4,88663
 944,68;  337,970;   78,027; 5685,248; 4,63585
 945,24;  349,970;   90,427; 5783,147; 4,55920
 945,79;  346,370;   73,027; 5876,147; 4,71027
 946,35;  330,870;   60,627; 5994,447; 4,55428
 946,90;  364,970;  114,927; 6160,147; 4,13620
 947,46;  341,370;   64,927; 6271,248; 4,45421
 948,01;  349,770;   57,827; 6434,447; 4,57833
 948,57;  376,170;  104,827; 6687,547; 4,12204
 949,12;  365,470;   79,827; 6797,248; 4,25226
 949,68;  402,770;  103,327; 7106,647; 4,27572
 950,23;  391,570;   83,527; 7300,047; 4,26857
 950,79;  394,270;   83,327; 7497,748; 4,19375
 951,34;  389,970;  100,927; 7735,248; 3,78609
 951,90;  383,670;   70,527; 7954,848; 3,97171
 952,45;  410,570;   97,628; 8185,147; 3,86945
 953,01;  388,870;   82,628; 8326,348; 3,71486
 953,56;  402,270;   88,228; 8589,947; 3,69387
 954,12;  388,270;   52,028; 8720,447; 3,87894
 954,67;  405,570;   77,327; 8976,247; 3,68857
 955,23;  409,770;   76,927; 9148,048; 3,66925
 955,78;  413,570;   73,927; 9338,348; 3,66610
 956,33;  399,570;   63,728; 9521,548; 3,55095
 956,89;  409,270;   59,928; 9696,848; 3,62504
 957,44;  409,870;   69,628; 9882,348; 3,46736
 958,00;  415,770;   59,428;10075,548; 3,55769
 958,55;  425,870;   61,627;10222,348; 3,58481
 959,10;  411,970;   69,327;10408,747; 3,31394
 959,66;  431,570;   82,527;10609,048; 3,31584
 960,21;  436,870;   81,427;10733,147; 3,33695
 960,77;  422,570;   70,327;10817,147; 3,27764
 961,32;  414,870;   64,728;10986,548; 3,20590
 961,87;  441,570;   88,527;11049,147; 3,22101
 962,43;  434,370;   70,728;11118,048; 3,29168
 962,98;  459,170;   94,327;11290,247; 3,25871
 963,54;  401,570;   47,228;11352,147; 3,13441
 964,09;  421,070;   79,027;11395,348; 3,02256
 964,64;  415,070;   74,527;11550,747; 2,96738
 965,20;  403,670;   60,327;11524,247; 2,99498
 965,75;  430,770;   81,728;11624,447; 3,02392
 966,30;  430,870;   70,827;11653,848; 3,10836
 966,86;  437,270;   78,527;11719,247; 3,08179
 967,41;  441,270;   93,527;11768,048; 2,97864
 967,96;  426,870;   76,728;11864,647; 2,97035
 968,52;  444,770;   93,228;11930,647; 2,96976
 969,07;  429,070;   77,628;11868,348; 2,98067
 969,62;  424,470;   79,527;11967,147; 2,90170
 970,18;  429,170;   75,728;12076,747; 2,94510
 970,73;  418,970;   80,728;12023,048; 2,83230
 971,28;  447,870;   96,327;12036,348; 2,94424
 971,84;  411,170;   77,527;12048,848; 2,78702
 972,39;  449,370;  100,228;12039,548; 2,92431
 972,94;  417,770;   66,228;12109,947; 2,91889
 973,49;  395,470;   96,628;12092,447; 2,49122
 974,05;  394,070;   76,728;12000,747; 2,66137
 974,60;  428,770;   93,228;12070,048; 2,80160
 975,15;  423,270;   88,628;12097,447; 2,78664
 975,71;  402,370;   65,128;11908,548; 2,84751
 976,26;  405,270;   98,927;11977,247; 2,57901
 976,81;  417,670;   91,827;11959,048; 2,74574
 977,36;  404,670;   98,728;11983,247; 2,57429
 977,92;  407,270;   96,527;12038,848; 2,60203
 978,47;  380,170;   81,927;11925,647; 2,51815
 979,02;  396,770;   93,228;11922,548; 2,56602
 979,57;  394,070;   88,427;11895,747; 2,58859
 980,13;  389,170;   83,527;11783,147; 2,61241
 980,68;  378,270;   82,927;11805,147; 2,51951
 981,23;  381,970;   90,527;11802,247; 2,48847
 981,78;  362,970;   92,427;11735,247; 2,32369
 982,33;  371,970;   90,728;11677,848; 2,42720
 982,89;  373,670;   89,927;11703,647; 2,44317
 983,44;  353,170;   83,027;11608,947; 2,34378
 983,99;  379,970;  118,628;11622,647; 2,27175
 984,54;  364,370;   96,128;11457,247; 2,36106
 985,09;  364,470;   93,728;11413,947; 2,39167
 985,65;  338,470;   91,327;11470,747; 2,17184
 986,20;  377,070;  106,927;11419,548; 2,38797
 986,75;  357,370;  108,628;11414,447; 2,20013
 987,30;  354,570;  102,827;11258,348; 2,25666
 987,85;  339,670;   90,228;11246,747; 2,23585
 988,40;  344,470;  108,527;11213,747; 2,12461
 988,96;  350,370;  108,027;11133,947; 2,19793
 989,51;  352,470;  115,427;11038,447; 2,17012
 990,06;  372,970;  138,227;11045,147; 2,15223
 990,61;  326,470;   92,128;10938,348; 2,16059
 991,16;  348,270;  118,927;10940,048; 2,11940
 991,71;  316,170;   92,527;10792,848; 2,09005
 992,26;  326,370;  102,427;10714,848; 2,11019
 992,81;  312,670;  104,728;10660,548; 1,96993
 993,37;  352,470;  137,727;10574,647; 2,05753
 993,92;  334,170;  121,728;10458,048; 2,05530
 994,47;  326,870;  124,628;10466,848; 1,95550
 995,02;  331,470;  137,027;10490,947; 1,87796
 995,57;  311,970;  110,427;10392,848; 1,96007
 996,12;  350,570;  145,727;10300,348; 2,01723
 996,67;  336,470;  129,628;10209,147; 2,05211
 997,22;  311,870;  113,527;10126,947; 1,98077
 997,77;  332,070;  121,527;10148,647; 2,09973
 998,32;  321,870;  111,628;10071,647; 2,11086
 998,87;  330,070;  125,128; 9984,647; 2,07863
 999,42;  323,470;  127,927; 9851,147; 2,01109
 999,97;  305,570;  108,927; 9777,548; 2,03382
1000,53;  347,670;  142,727; 9784,247; 2,12562
1001,08;  305,770;  107,228; 9686,947; 2,07253
1001,63;  341,970;  153,027; 9649,647; 1,98958
1002,18;  264,470;   83,728; 9424,147; 1,93506
1002,73;  328,670;  138,327; 9412,947; 2,05229
1003,28;  301,370;  124,327; 9381,947; 1,91240
1003,83;  321,570;  125,927; 9218,247; 2,15173
1004,38;  331,670;  149,928; 9191,647; 2,01004
1004,93;  301,170;  126,027; 9120,247; 1,94728
1005,48;  300,870;  116,827; 9054,348; 2,05921
1006,03;  282,770;  117,927; 9005,947; 1,85466
1006,58;  289,570;  111,128; 8858,647; 2,03992
1007,13;  276,370;  107,927; 8851,247; 1,92653
1007,68;  272,370;  104,728; 8818,747; 1,92383
1008,23;  279,870;  133,727; 8715,848; 1,70287
1008,78;  271,170;  112,027; 8711,147; 1,85068
1009,33;  285,870;  130,327; 8604,447; 1,83550
1009,88;  250,270;   88,228; 8605,447; 1,90253
1010,43;  269,770;  124,228; 8525,848; 1,73231
1010,98;  258,570;   99,827; 8492,447; 1,89145
1011,52;  266,570;   95,827; 8398,447; 2,05649
1012,07;  282,270;  150,327; 8388,247; 1,60165
1012,62;  252,570;  104,628; 8320,747; 1,80064
1013,17;  253,870;  113,128; 8276,947; 1,72398
1013,72;  251,970;   95,728; 8223,848; 1,92225
1014,27;  249,570;  121,228; 8163,047; 1,59594
1014,82;  230,670;   95,728; 7981,147; 1,71129
1015,37;  228,370;   94,128; 7887,848; 1,72244
1015,92;  249,870;  118,427; 7731,447; 1,72655
1016,47;  219,170;  102,628; 7596,447; 1,55518
1017,02;  215,170;   93,128; 7494,047; 1,64902
1017,57;  237,270;  112,527; 7367,248; 1,71947
1018,11;  217,070;   99,827; 7284,647; 1,63181
1018,66;  243,570;  130,928; 7236,947; 1,58517
1019,21;  231,070;  112,327; 7082,447; 1,70359
1019,76;  203,370;   93,628; 6976,348; 1,59446
1020,31;  198,070;   98,827; 6900,348; 1,45912
1020,86;  207,970;   93,927; 6846,248; 1,68894
1021,41;  194,870;   94,827; 6743,047; 1,50480
1021,96;  201,170;  104,128; 6702,147; 1,47078
1022,50;  234,570;  133,027; 6633,047; 1,56219
1023,05;  218,270;  100,128; 6498,748; 1,84637
1023,60;  209,270;  102,628; 6447,947; 1,68065
1024,15;  181,870;   86,927; 6297,348; 1,52876
1024,70;  216,970;  117,427; 6274,447; 1,61673
1025,25;  195,070;   97,728; 6228,447; 1,58778
1025,79;  229,070;  122,228; 6171,147; 1,76631
1026,34;  208,570;  101,427; 6090,447; 1,78898
1026,89;  219,170;  114,827; 6060,147; 1,75504
1027,44;  200,970;  104,827; 5966,348; 1,64023
1027,99;  205,270;  103,027; 5876,547; 1,77089
1028,53;  191,270;   96,728; 5813,647; 1,65373
1029,08;  199,570;  116,628; 5784,147; 1,46347
1029,63;  210,770;  115,327; 5690,348; 1,71197
1030,18;  188,670;  103,027; 5656,147; 1,54224
1030,73;  191,370;   96,027; 5543,647; 1,75017
1031,27;  183,970;   96,027; 5490,147; 1,63034
1031,82;  181,870;   88,827; 5398,447; 1,75234
1032,37;  191,070;  108,527; 5371,147; 1,56847
1032,92;  199,670;  115,827; 5293,348; 1,61936
1033,46;  190,870;  100,228; 5164,647; 1,78979
1034,01;  184,470;   93,927; 5108,748; 1,80550
1034,56;  185,970;  117,728; 5101,348; 1,36934
1035,11;  191,370;  107,128; 5004,248; 1,72025
1035,65;  182,870;  101,527; 4981,547; 1,66685
1036,20;  182,670;   92,927; 4950,047; 1,84765
1036,75;  202,270;  122,728; 4905,848; 1,66298
1037,29;  188,170;  103,927; 4828,647; 1,78302
1037,84;  163,570;   94,527; 4709,147; 1,49617
1038,39;  177,570;  103,827; 4639,547; 1,62582
1038,94;  142,470;   75,728; 4562,848; 1,48742
1039,48;  165,070;   96,628; 4571,947; 1,52933
1040,03;  187,270;  112,427; 4492,248; 1,70880
1040,58;  170,870;   98,128; 4393,447; 1,69353
1041,12;  161,370;  107,827; 4359,547; 1,25931
1041,67;  167,470;  109,128; 4320,947; 1,38521
1042,22;  184,970;  120,527; 4276,447; 1,55062
1042,76;  156,770;   99,827; 4151,447; 1,40543
1043,31;  181,970;  110,728; 4086,548; 1,79189
1043,86;  172,770;  114,628; 4037,647; 1,48209
1044,40;  171,670;  110,327; 4005,847; 1,57469
1044,95;  171,270;  115,228; 3962,147; 1,45681
1045,50;  157,570;   84,628; 3881,548; 1,92110
1046,04;  179,970;  120,628; 3843,548; 1,59398
1046,59;  155,070;   97,927; 3796,548; 1,54497
1047,13;  177,470;  126,128; 3766,347; 1,41042
1047,68;  172,570;  119,427; 3689,948; 1,48837
1048,23;  176,670;  123,228; 3670,847; 1,50643
1048,77;  153,870;  105,628; 3606,948; 1,37784
1049,32;  164,070;  108,228; 3568,048; 1,61403
1049,86;  162,070;   99,027; 3502,847; 1,85211
1050,41;  145,470;   91,527; 3451,248; 1,60557
1050,96;  160,270;  113,628; 3423,347; 1,40926
1051,50;  161,870;  104,927; 3366,948; 1,74562
1052,05;  163,270;  119,427; 3347,448; 1,35819
1052,59;  148,370;   99,827; 3256,748; 1,53765
1053,14;  134,070;   95,427; 3219,948; 1,23675
1053,69;  144,970;  104,128; 3185,448; 1,32549
1054,23;  160,070;  118,427; 3134,748; 1,38057
1054,78;  153,970;  114,628; 3053,847; 1,33854
1055,32;  169,270;  130,027; 3055,548; 1,34139
1055,87;  137,770;   86,128; 2966,347; 1,79301
1056,41;  123,070;   96,128; 2919,548; 0,95425
1056,96;  144,670;  107,728; 2911,948; 1,31739
1057,50;  176,570;  124,427; 2892,048; 1,88402
1058,05;  128,470;   76,527; 2784,248; 1,91831
1058,59;  150,770;  112,128; 2788,548; 1,44381
1059,14;  162,470;  117,527; 2774,748; 1,69134
1059,68;  126,570;   85,827; 2677,147; 1,57227
1060,23;  169,170;  130,928; 2707,448; 1,48427
1060,77;  151,970;  112,728; 2641,347; 1,55193
1061,32;  157,470;  122,628; 2596,847; 1,40822
1061,86;  152,770;  115,827; 2570,748; 1,50484
1062,41;  152,770;  106,128; 2522,048; 1,93063
1062,95;  149,770;  101,628; 2446,048; 2,05349
1063,50;  156,170;  119,927; 2427,847; 1,57035
1064,04;  130,570;  101,128; 2392,548; 1,28490
1064,59;  153,270;  124,427; 2369,948; 1,28445
1065,13;  148,370;  122,327; 2316,948; 1,18665
1065,68;  148,670;  125,128; 2272,948; 1,09611
1066,22;  154,670;  117,427; 2267,748; 1,73195
1066,76;  160,470;  137,027; 2243,448; 1,11291
1067,31;  151,270;  105,927; 2185,248; 2,18064
1067,85;  141,870;  102,728; 2165,948; 1,89716
1068,40;  152,870;  117,927; 2147,847; 1,72137
1068,94;  136,770;  102,327; 2097,548; 1,72625
1069,49;  137,770;  100,128; 2098,048; 1,88408
1070,03;  140,370;  102,628; 2031,848; 1,95636
1070,57;  131,870;  100,427; 2008,147; 1,64817
1071,12;  113,070;   90,327; 1958,448; 1,21740
1071,66;  178,870;  145,327; 2002,448; 1,80616
1072,21;  153,770;  124,427; 1952,047; 1,60550
1072,75;  144,670;  112,427; 1928,547; 1,77535
1073,29;  127,070;   92,427; 1865,047; 1,95431
1073,84;  137,770;  107,728; 1884,848; 1,69052
1074,38;  130,170;  104,427; 1862,448; 1,46429
1074,92;  136,070;  121,027; 1845,547; 0,87227
1075,47;  155,770;  134,327; 1822,448; 1,27020
1076,01;  159,370;  137,628; 1818,647; 1,29341
1076,56;  145,870;  102,027; 1735,848; 2,68344
1077,10;  114,370;   87,628; 1681,248; 1,67810
1077,64;  133,870;   99,628; 1726,147; 2,10526
1078,19;  159,970;  129,628; 1703,948; 1,92734
1078,73;  131,270;  123,527; 1661,248; 0,50351
1079,27;  149,570;  128,227; 1683,848; 1,37196
1079,81;  153,770;  136,727; 1662,547; 1,11694
1080,36;  140,970;  113,327; 1624,547; 1,82915
1080,90;  130,470;  107,228; 1608,848; 1,54783
1081,44;  116,870;  103,027; 1572,647; 0,94191
1081,99;  113,870;   81,728; 1551,748; 2,18653
1082,53;  143,270;  125,527; 1540,147; 1,25422
1083,07;  136,270;  122,827; 1522,147; 0,96065
1083,62;  131,470;  121,128; 1502,948; 0,74847
1084,16;  126,470;  112,228; 1487,248; 1,03580
1084,70;  142,970;  121,327; 1481,848; 1,59075
1085,24;  146,370;  117,527; 1450,948; 2,16305
1085,79;  125,570;  109,728; 1423,147; 1,20620
1086,33;  114,070;  100,628; 1400,047; 1,03450
1086,87;  123,570;  122,228; 1391,448; 0,10577
1087,41;  116,570;  106,827; 1360,547; 0,77709
1087,96;  149,970;  131,827; 1364,748; 1,47151
1088,50;  125,370;  102,628; 1345,848; 1,82932
1089,04;  131,570;  138,727; 1334,147;-0,59874
1089,58;  126,070;   93,427; 1286,848; 2,73521
1090,13;  120,270;  113,628; 1273,848; 0,57252
1090,67;  128,470;  114,728; 1274,948; 1,18447
1091,21;  119,070;  111,228; 1250,848; 0,68817
1091,75;  123,970;  112,327; 1235,948; 1,03616
1092,29;  143,470;  121,427; 1240,647; 1,96945
1092,84;  130,070;  104,628; 1213,147; 2,29518
1093,38;  162,670;  134,128; 1226,448; 2,61302
1093,92;  145,070;  128,027; 1210,748; 1,57405
1094,46;  142,170;  128,527; 1207,248; 1,26469
1095,00;  117,770;  110,228; 1150,448; 0,72509
1095,54;  110,570;   92,027; 1139,547; 1,77013
1096,09;  130,370;  113,128; 1144,047; 1,67253
1096,63;  150,670;  130,527; 1128,647; 2,01804
1097,17;  120,070;  109,427; 1108,147; 1,06561
1097,71;  147,470;  126,128; 1099,248; 2,19320
1098,25;  115,470;   97,927; 1059,547; 1,82427
1098,79;  133,170;  124,728; 1078,647; 0,88503
1099,33;  134,570;  117,728; 1040,147; 1,82590
1099,88;  131,270;  118,628; 1035,848; 1,37835
1100,42;  116,770;  103,628; 1000,747; 1,46497

