INBUCRO235_M
Integration time [ms]:   8,000
Averaging Nr. [scans]: 10
Smoothing Nr. [pixels]: 0
Data measured with spectrometer [name]: 7314920SP
Wave   ;Sample   ;Dark     ;Reference;Reflectance
[nm]   ;[counts] ;[counts] ;[counts] ;[%]

 199,42;   90,473;   72,222;  210,244;13,22320
 200,02;  113,673;  102,008;  189,811;13,28492
 200,62;   80,355;   74,992;  115,875;13,11878
 201,22;  106,137;   92,709;  193,470;13,32670
 201,82;   94,167;   64,025;  211,220;20,47727
 202,42;  110,784;   95,408;  188,025;16,60245
 203,03;   67,843;   55,806;  149,594;12,83487
 203,63;   75,690;   65,404;  161,149;10,74341
 204,23;   95,861;   81,415;  188,764;13,45672
 204,83;   99,114;   76,103;  162,076;26,76489
 205,43;   79,373;   65,122;  182,444;12,14684
 206,03;   62,326;   56,103;  131,590; 8,24345
 206,63;   78,114;   81,096;  130,910;-5,98748
 207,24;  100,473;   77,929;  242,810;13,67291
 207,84;   61,737;   57,902;  135,404; 4,94819
 208,44;   72,037;   59,009;  153,170;13,83600
 209,04;   62,002;   53,697;  112,596;14,10071
 209,64;   99,443;   72,519;  200,426;21,04963
 210,24;   58,314;   50,503;  130,176; 9,80329
 210,84;   59,426;   60,310;  167,756;-0,82283
 211,44;   93,879;   86,511;  189,701; 7,13949
 212,05;   72,802;   61,997;  128,496;16,24862
 212,65;   80,643;   75,406;  151,694; 6,86552
 213,25;  105,284;   96,208;  175,325;11,47251
 213,85;   94,555;   84,098;  157,241;14,29610
 214,45;   70,314;   59,703;  144,876;12,45768
 215,05;   56,826;   46,810;  150,056; 9,70096
 215,65;   66,514;   64,010;  156,742; 2,69995
 216,25;   55,614;   47,903;  131,676; 9,20413
 216,85;   47,749;   45,209;  131,084; 2,95807
 217,45;   52,443;   61,406;  140,794;-11,28938
 218,05;   73,143;   56,513;  170,560;14,58230
 218,66;   45,861;   35,109;  126,597;11,75268
 219,26;   38,890;   40,904;  108,649;-2,97257
 219,86;   38,284;   30,415;  147,291; 6,73351
 220,46;   76,055;   62,212;  165,774;13,36683
 221,06;   74,061;   50,415;  173,264;19,24778
 221,66;   65,126;   49,317;  185,122;11,64093
 222,26;   59,943;   47,619;  163,026;10,67866
 222,86;   75,308;   70,807;  163,753; 4,84269
 223,46;   57,714;   54,503;  138,276; 3,83247
 224,06;   64,073;   63,215;  169,877; 0,80415
 224,66;   80,720;   59,613;  169,732;19,16688
 225,26;   64,490;   55,111;  162,715; 8,71659
 225,86;   64,808;   43,521;  183,285;15,23093
 226,46;   66,196;   58,307;  160,639; 7,70917
 227,06;   40,920;   30,313;  143,532; 9,36803
 227,66;   46,767;   58,298;  114,355;-20,57056
 228,27;   44,155;   40,012;  159,574; 3,46507
 228,87;  107,831;   91,313;  208,446;14,10237
 229,47;   55,631;   37,020;  166,312;14,39505
 230,07;   24,090;   18,811;  112,215; 5,65222
 230,67;   50,649;   40,209;  142,184;10,23805
 231,27;   42,355;   30,212;  143,374;10,73059
 231,87;   55,549;   40,109;  147,584;14,36637
 232,47;   84,696;   59,528;  218,437;15,83819
 233,07;   66,626;   37,496;  115,524;37,33230
 233,67;   59,043;   55,906;  155,694; 3,14424
 234,27;   27,326;   20,103;  106,490; 8,36090
 234,87;   54,984;   43,315;  164,991; 9,59091
 235,47;   36,490;   20,211;  136,915;13,94931
 236,07;   39,908;   29,800;  113,786;12,03520
 236,67;   56,061;   59,802;  134,031;-5,03943
 237,27;   58,249;   47,023;  174,316; 8,81942
 237,87;   58,520;   44,213;  155,532;12,85170
 238,47;   41,873;   24,408;  124,611;17,42917
 239,07;   55,655;   26,119;  172,740;20,14451
 239,67;   68,443;   47,333;  213,158;12,73038
 240,27;   70,608;   43,621;  186,385;18,90347
 240,87;   70,537;   59,423;  199,102; 7,95707
 241,47;   50,408;   48,693;   99,120; 3,40048
 242,07;   51,420;   48,007;  129,466; 4,19009
 242,67;   22,161;    5,722;  135,930;12,62501
 243,27;   24,514;   23,603;  102,476; 1,15448
 243,87;   70,173;   50,915;  171,077;16,02641
 244,47;   51,361;   43,215;  154,464; 7,32197
 245,07;   27,426;   13,110;  116,356;13,86575
 245,67;   46,743;   43,706;  124,694; 3,75064
 246,27;   54,014;   36,296;  104,710;25,89748
 246,87;   39,508;   29,007;  121,153;11,39618
 247,46;   26,255;   12,792;   58,475;29,47104
 248,06;   42,443;   21,613;  126,060;19,94376
 248,66;   49,343;   43,719;  153,526; 5,12162
 249,26;   50,808;   30,300;  102,586;28,37042
 249,86;   57,808;   44,721;  160,885;11,26628
 250,46;   43,584;    4,828;  172,023;23,18021
 251,06;   31,743;   30,406;  103,194; 1,83763
 251,66;   33,296;   18,014;  130,305;13,60937
 252,26;   45,184;   40,501;  110,659; 6,67577
 252,86;   47,326;   26,710;  135,356;18,97521
 253,46;   10,914;   -0,997;   71,476;16,43450
 254,06;   50,320;   46,300;  117,300; 5,66205
 254,66;   44,273;   43,622;  156,244; 0,57794
 255,26;   67,496;   47,221;  183,271;14,90276
 255,86;   43,308;   53,693;   90,620;-28,12375
 256,46;   33,579;   27,311;  117,701; 6,93355
 257,05;   37,308;   24,314;  137,219;11,50900
 257,65;   64,684;   55,915;  159,191; 8,49166
 258,25;   58,231;   44,920;  174,412;10,27991
 258,85;   35,526;   24,210;  114,956;12,46979
 259,45;   16,749;   13,309;  104,284; 3,78153
 260,05;   47,814;   39,503;  115,376;10,95327
 260,65;   45,784;   49,901;  110,459;-6,79749
 261,25;   43,373;   35,715;  144,777; 7,02142
 261,85;   20,237;    3,916;  117,036;14,42825
 262,45;   62,426;   58,110;  146,656; 4,87416
 263,04;   61,484;   54,121;  181,157; 5,79604
 263,64;   49,679;   46,104;  120,435; 4,80835
 264,24;   69,749;   50,116;  169,050;16,50779
 264,84;   83,090;   72,525;  200,347; 8,26592
 265,44;   34,555;   27,105;  102,308; 9,90628
 266,04;   55,843;   40,299;  110,528;22,13398
 266,64;   53,561;   46,002;  130,331; 8,96393
 267,24;   49,761;   37,402;  107,331;17,67383
 267,84;   43,784;   35,308;  124,625; 9,49059
 268,43;   55,832;   63,006;  136,180;-9,80486
 269,03;   59,461;   52,609;  143,797; 7,51451
 269,63;   64,096;   71,300;  125,873;-13,20135
 270,23;   22,967;   18,498;   87,355; 6,48989
 270,83;   65,084;   57,001;  121,259;12,57989
 271,43;   30,867;   42,005;  112,221;-15,86253
 272,03;   63,455;   66,705;  133,008;-4,90219
 272,62;   45,914;   31,410;  109,542;18,56304
 273,22;   26,431;   11,613;  120,746;13,57842
 273,82;   29,390;   23,684;   41,950;31,24134
 274,42;   27,696;   31,194;   62,506;-11,16928
 275,02;   47,837;   37,396;   87,038;21,03411
 275,62;   70,031;   49,620;  176,012;16,14947
 276,21;   46,867;   22,012;  119,787;25,42049
 276,81;   54,737;   46,802;  100,904;14,66676
 277,41;   40,714;   34,617;  138,809; 5,85161
 278,01;   31,537;   30,596;   62,038; 2,99521
 278,61;   62,137;   53,409;  127,970;11,70600
 279,20;   79,108;   66,621;  179,185;11,09357
 279,80;   12,484;    2,887;   19,827;56,65671
 280,40;   52,008;   49,500;  111,686; 4,03290
 281,00;    9,837;   -1,591;   79,870;14,02894
 281,60;   36,802;   24,024;  147,561;10,34338
 282,20;   43,279;   44,011;  129,701;-0,85514
 282,79;   31,432;   32,006;  103,580;-0,80280
 283,39;   22,196;   24,500;   69,873;-5,07857
 283,99;   34,026;   24,796;   62,724;24,33459
 284,59;   18,902;   11,311;   95,329; 9,03562
 285,19;   34,526;   27,803;   93,790;10,18795
 285,78;   35,879;   26,011;  114,401;11,16331
 286,38;   56,414;   46,196;   90,310;23,16156
 286,98;   47,032;   42,206;  104,180; 7,78618
 287,58;   25,361;   10,015;  106,264;15,94372
 288,17;   43,196;   30,221;  134,771;12,41053
 288,77;   48,526;   25,130;  160,455;17,28836
 289,37;   23,126;    7,610;  106,556;15,68110
 289,97;   40,326;   51,596;   89,824;-29,48223
 290,57;   46,790;   40,218;  142,281; 6,43968
 291,16;   65,755;   62,005;  153,508; 4,09797
 291,76;   23,731;    9,813;  111,846;13,64121
 292,36;   37,890;   34,804;   91,949; 5,40075
 292,96;   27,420;   12,920;  112,799;14,51721
 293,55;   40,837;   24,302;   95,904;23,09303
 294,15;   33,367;   21,012;  117,487;12,80640
 294,75;   46,814;   46,296;   87,510; 1,25545
 295,35;   28,755;   30,905;   87,208;-3,81914
 295,94;   47,749;   47,602;  101,718; 0,27179
 296,54;   38,796;   20,307;  102,039;22,62154
 297,14;   52,926;   35,817;  149,522;15,04678
 297,73;   19,779;   23,498;   65,969;-8,75672
 298,33;   53,920;   41,300;   94,600;23,67726
 298,93;   51,608;   47,607;  131,952; 4,74366
 299,53;   33,067;   21,519;  133,654;10,29850
 300,12;   14,826;    5,217;  115,922; 8,67981
 300,72;   64,579;   58,004;  131,835; 8,90428
 301,32;   51,784;   37,415;  153,391;12,39034
 301,92;   29,284;   15,294;   52,693;37,40892
 302,51;   33,602;   22,804;   94,763;15,00637
 303,11;   18,826;   21,403;   92,290;-3,63571
 303,71;   44,973;   25,908;  111,711;22,21897
 304,30;   24,232;   24,399;   89,214;-0,25882
 304,90;   25,620;   22,400;   83,400; 5,27879
 305,50;   36,067;   35,598;   93,655; 0,80740
 306,09;   37,408;   27,100;  107,186;12,87101
 306,69;   53,649;   37,316;  149,950;14,50128
 307,29;   21,502;   40,383;   43,764;-558,46236
 307,88;   56,902;   51,611;  142,529; 5,82014
 308,48;   20,155;    7,612;  111,974;12,01870
 309,08;    7,279;    6,391;   47,803; 2,14374
 309,68;   26,479;   25,198;   76,769; 2,48378
 310,27;   25,314;    3,310;  109,342;20,75191
 310,87;   33,796;   40,507;  113,439;-9,20193
 311,47;   65,514;   52,803;  134,376;15,58184
 312,06;   47,590;   54,797;   99,183;-16,23716
 312,66;   75,055;   58,605;  130,408;22,90980
 313,26;   63,496;   57,714;  154,805; 5,95532
 313,85;   48,926;   48,603;  102,090; 0,60341
 314,45;   50,837;   43,309;  124,070; 9,32146
 315,04;   60,990;   52,497;  102,883;16,85625
 315,64;   32,979;   32,204;   92,535; 1,28305
 316,24;   53,855;   45,412;  136,874; 9,23109
 316,83;   47,208;   44,800;  109,286; 3,73399
 317,43;   29,267;   34,805;  112,521;-7,12603
 318,03;   42,832;   46,992;  105,248;-7,14254
 318,62;   82,908;   83,886;  116,254;-3,02278
 319,22;   23,484;   23,508;  114,325;-0,02562
 319,82;   49,255;   41,505;  135,108; 8,27944
 320,41;   71,673;   50,808;  152,511;20,51517
 321,01;   88,367;   87,098;  148,755; 2,05775
 321,60;   80,696;   75,494;  138,706; 8,23028
 322,20;   75,473;   57,422;  215,744;11,40139
 322,80;   69,179;   51,404;  154,635;17,21785
 323,39;   62,549;   51,895;  113,651;17,25159
 323,99;   62,884;   62,501;  142,359; 0,48033
 324,59;   72,932;   68,792;  121,248; 7,89071
 325,18;   52,102;   47,504;  158,863; 4,12936
 325,78;   71,779;   66,698;  150,369; 6,07248
 326,37;   74,243;   65,706;  177,794; 7,61684
 326,97;   59,279;   72,204;  176,935;-12,34209
 327,57;   42,055;   49,692;  114,875;-11,71549
 328,16;   59,708;   66,793;  136,120;-10,22004
 328,76;   76,949;   65,802;  159,418;11,90730
 329,35;   83,984;   70,715;  202,591;10,06236
 329,95;   47,679;   46,311;  172,301; 1,08519
 330,54;   65,114;   57,403;  166,676; 7,05625
 331,14;   48,037;   37,202;  149,004; 9,69122
 331,74;   72,667;   65,898;  158,355; 7,32097
 332,33;   49,455;   36,712;  182,074; 8,76635
 332,93;   55,484;   48,294;  153,293; 6,84811
 333,52;   54,096;   51,300;  173,173; 2,29400
 334,12;   77,661;   76,609;  216,397; 0,75285
 334,71;   63,208;   55,600;  177,586; 6,23670
 335,31;   85,026;   68,403;  194,790;13,15224
 335,90;   41,226;   38,089;  116,458; 4,00215
 336,50;   40,914;   31,796;  151,710; 7,60332
 337,10;   72,014;   43,110;  224,742;15,91332
 337,69;   59,014;   58,596;  164,910; 0,39263
 338,29;   50,590;   38,604;  183,549; 8,26953
 338,88;   41,508;   36,207;  199,452; 3,24730
 339,48;   68,137;   69,289;  185,372;-0,99188
 340,07;   56,473;   51,901;  214,445; 2,81242
 340,67;   55,384;   44,015;  244,991; 5,65732
 341,26;   66,608;   52,500;  219,286; 8,45868
 341,86;   88,990;   73,011;  274,415; 7,93400
 342,45;   80,202;   51,411;  255,729;14,09153
 343,05;   64,102;   41,711;  268,829; 9,85899
 343,64;   78,861;   62,602;  262,431; 8,13656
 344,24;   44,914;   33,096;  233,710; 5,89063
 344,83;   79,626;   72,396;  265,724; 3,73955
 345,43;   47,849;   42,302;  272,018; 2,41476
 346,02;   66,049;   43,109;  299,884; 8,93399
 346,62;   75,996;   49,414;  334,805; 9,31427
 347,21;   64,679;   56,098;  304,069; 3,46045
 347,81;   50,690;   33,118;  351,481; 5,51965
 348,40;   51,708;   34,893;  282,320; 6,79585
 349,00;   61,332;   60,892;  331,448; 0,16229
 349,59;   90,731;   71,813;  420,746; 5,42183
 350,19;   65,496;   44,914;  383,305; 6,08234
 350,78;   65,026;   51,303;  373,790; 4,25529
 351,38;   51,349;   30,009;  377,584; 6,13975
 351,97;   50,049;   42,702;  406,118; 2,02167
 352,57;   53,055;   52,312;  422,774; 0,20053
 353,16;   45,649;   39,295;  383,751; 1,84462
 353,76;   58,231;   46,613;  467,346; 2,76150
 354,35;   63,990;   17,411;  484,915; 9,96342
 354,95;   71,167;   51,712;  515,687; 4,19312
 355,54;   64,584;   38,008;  504,925; 5,69196
 356,14;   56,990;   42,611;  534,915; 2,92084
 356,73;   55,237;   52,589;  490,871; 0,60431
 357,32;   43,573;   26,908;  533,411; 3,29012
 357,92;   55,279;   36,718;  583,967; 3,39158
 358,51;   72,367;   51,519;  631,554; 3,59430
 359,11;   72,890;   47,018;  646,981; 4,31236
 359,70;   54,208;   30,014;  629,419; 4,03637
 360,30;   69,984;   58,187;  603,727; 2,16250
 360,89;   46,008;   25,007;  639,453; 3,41789
 361,48;   83,867;   54,112;  712,987; 4,51604
 362,08;   42,267;   25,005;  677,021; 2,64747
 362,67;   59,655;   33,892;  669,375; 4,05415
 363,27;   78,402;   64,804;  752,763; 1,97663
 363,86;   55,567;   36,998;  746,555; 2,61695
 364,46;   79,208;   56,393;  812,720; 3,01652
 365,05;   85,532;   75,379;  800,115; 1,40089
 365,64;   77,149;   53,582;  858,719; 2,92715
 366,24;   79,102;   39,876;  899,498; 4,56314
 366,83;  100,949;   64,668; 1001,887; 3,87116
 367,43;  103,267;   69,837; 1018,860; 3,52260
 368,02;  103,226;   44,141; 1136,095; 5,41088
 368,61;  122,285;   63,919; 1250,365; 4,91937
 369,21;   97,791;   44,061; 1249,760; 4,45633
 369,80;  117,308;   59,322; 1383,066; 4,38044
 370,39;  148,002;   60,519; 1588,676; 5,72475
 370,99;  127,597;   42,468; 1618,624; 5,40102
 371,58;  131,014;   33,423; 1699,364; 5,85802
 372,18;  162,497;   38,200; 1809,762; 7,01623
 372,77;  148,944;   50,550; 1827,654; 5,53673
 373,36;  176,091;   52,342; 1852,343; 6,87494
 373,96;  153,967;   53,009; 1748,685; 5,95390
 374,55;  153,814;   39,534; 1728,804; 6,76506
 375,14;  140,756;   37,250; 1608,468; 6,58760
 375,74;  156,073;   73,973; 1533,970; 5,62329
 376,33;  123,538;   50,595; 1398,327; 5,41227
 376,92;  108,950;   41,936; 1361,138; 5,07989
 377,52;  174,202;   93,712; 1534,810; 5,58533
 378,11;  120,273;   61,010; 1438,393; 4,30258
 378,71;  146,408;   79,636; 1530,799; 4,60128
 379,30;  135,402;   57,953; 1617,807; 4,96514
 379,89;  144,244;   56,742; 1639,606; 5,52807
 380,49;  135,332;   31,556; 1680,725; 6,29262
 381,08;  161,479;   81,520; 1641,749; 5,12481
 381,67;  144,902;   58,726; 1650,543; 5,41371
 382,26;  142,079;   44,520; 1663,849; 6,02465
 382,86;  130,226;   51,912; 1684,538; 4,79683
 383,45;  135,602;   63,740; 1765,375; 4,22315
 384,04;  134,726;   52,739; 1794,203; 4,70794
 384,64;  126,473;   47,044; 1831,224; 4,45184
 385,23;  151,955;   71,621; 1827,321; 4,57564
 385,82;  132,432;   55,649; 1889,958; 4,18592
 386,42;  170,091;   67,274; 1996,892; 5,32832
 387,01;  150,696;   67,543; 1922,351; 4,48311
 387,60;  167,532;   76,228; 1970,060; 4,82109
 388,20;  136,102;   48,340; 2018,675; 4,45420
 388,79;  178,896;   83,357; 2123,583; 4,68279
 389,38;  124,679;   54,020; 2028,549; 3,57852
 389,97;  154,455;   58,048; 2147,386; 4,61424
 390,57;  156,438;   74,645; 2194,082; 3,85915
 391,16;  161,538;   77,945; 2258,282; 3,83392
 391,75;  144,932;   56,642; 2278,892; 3,97298
 392,34;  153,673;   65,865; 2381,022; 3,79276
 392,94;  147,973;   55,558; 2418,156; 3,91159
 393,53;  140,585;   38,151; 2418,703; 4,30296
 394,12;  152,573;   61,871; 2581,588; 3,59967
 394,72;  156,720;   73,643; 2576,379; 3,31947
 395,31;  138,032;   50,649; 2629,658; 3,38823
 395,90;  146,479;   41,475; 2732,778; 3,90161
 396,49;  169,561;   59,286; 2807,207; 4,01305
 397,09;  155,991;   56,254; 2772,993; 3,67119
 397,68;  173,332;   64,576; 2914,023; 3,81672
 398,27;  179,767;   63,382; 3016,531; 3,94105
 398,86;  165,885;   53,778; 3036,468; 3,75858
 399,45;  178,114;   61,894; 3185,318; 3,72092
 400,05;  153,167;   47,961; 3091,132; 3,45711
 400,64;  175,549;   67,859; 3225,428; 3,41056
 401,23;  164,520;   55,563; 3253,277; 3,40734
 401,82;  179,720;   63,863; 3288,777; 3,59256
 402,42;  184,161;   66,665; 3369,608; 3,55732
 403,01;  203,732;   77,976; 3502,223; 3,67250
 403,60;  208,520;   73,197; 3538,808; 3,90473
 404,19;  203,155;   80,976; 3582,651; 3,48918
 404,78;  169,867;   68,668; 3550,598; 2,90640
 405,38;  198,461;   77,499; 3734,039; 3,30810
 405,97;  176,791;   55,281; 3700,958; 3,33297
 406,56;  220,726;   76,387; 3843,565; 3,83149
 407,15;  198,832;   68,690; 3813,955; 3,47483
 407,74;  223,149;   86,793; 3924,359; 3,55320
 408,34;  185,638;   59,000; 3935,712; 3,26662
 408,93;  199,355;   64,696; 4017,449; 3,40672
 409,52;  192,114;   55,908; 4063,050; 3,39909
 410,11;  234,432;   90,297; 4169,222; 3,53365
 410,70;  193,832;   58,983; 4135,689; 3,30778
 411,29;  199,149;   65,186; 4164,293; 3,26811
 411,89;  207,379;   71,609; 4289,809; 3,21867
 412,48;  189,338;   55,186; 4249,779; 3,19819
 413,07;  212,355;   66,503; 4362,416; 3,39514
 413,66;  199,102;   69,808; 4401,236; 2,98502
 414,25;  227,726;   80,814; 4542,030; 3,29309
 414,84;  218,155;   72,596; 4521,849; 3,27154
 415,44;  239,473;   92,492; 4528,687; 3,31322
 416,03;  222,873;   72,912; 4620,185; 3,29781
 416,62;  234,332;   78,017; 4684,620; 3,39327
 417,21;  223,796;   74,205; 4680,046; 3,24787
 417,80;  230,514;   82,814; 4723,417; 3,18277
 418,39;  229,990;   83,422; 4766,355; 3,12984
 418,98;  226,943;   59,003; 4695,202; 3,62237
 419,58;  219,791;   70,002; 4754,557; 3,19751
 420,17;  215,538;   54,107; 4792,378; 3,40695
 420,76;  245,373;   82,012; 4871,985; 3,41047
 421,35;  210,667;   66,309; 4790,295; 3,05585
 421,94;  242,890;   87,322; 4907,955; 3,22714
 422,53;  233,567;   66,423; 4867,228; 3,48158
 423,12;  229,596;   78,819; 4876,579; 3,14267
 423,71;  212,079;   59,809; 4856,909; 3,17421
 424,30;  240,908;   91,611; 4912,926; 3,09660
 424,90;  203,867;   44,016; 4917,061; 3,28031
 425,49;  242,202;   83,922; 4948,069; 3,25402
 426,08;  244,702;   92,422; 5032,169; 3,08276
 426,67;  202,455;   56,110; 4951,881; 2,98922
 427,26;  217,355;   70,530; 5041,180; 2,95384
 427,85;  230,155;   69,216; 5000,047; 3,26393
 428,44;  231,914;   70,628; 5078,549; 3,22061
 429,03;  265,161;   83,027; 5133,804; 3,60607
 429,62;  249,673;   84,326; 5156,817; 3,25967
 430,21;  259,373;   89,633; 5174,883; 3,33789
 430,80;  225,620;   64,238; 5194,005; 3,14598
 431,39;  235,249;   65,134; 5275,956; 3,26466
 431,99;  239,079;   85,909; 5201,209; 2,99435
 432,58;  245,196;   86,919; 5228,879; 3,07816
 433,17;  234,902;   80,608; 5265,236; 2,97599
 433,76;  264,855;   80,944; 5403,812; 3,45512
 434,35;  261,043;   94,637; 5427,532; 3,12037
 434,94;  266,202;   87,749; 5528,633; 3,27986
 435,53;  252,820;   85,131; 5489,938; 3,10258
 436,12;  257,861;   77,833; 5530,870; 3,30142
 436,71;  269,543;   95,824; 5567,900; 3,17466
 437,30;  247,696;   92,125; 5645,645; 2,80130
 437,89;  259,355;   86,337; 5750,746; 3,05448
 438,48;  250,267;   80,830; 5726,994; 3,00093
 439,07;  251,020;   89,118; 5756,006; 2,85699
 439,66;  272,896;  106,846; 5907,443; 2,86264
 440,25;  266,861;  102,533; 5933,270; 2,81830
 440,84;  279,843;  100,151; 5953,765; 3,06977
 441,43;  281,308;   81,466; 6120,255; 3,30931
 442,02;  262,796;   70,653; 6098,910; 3,18738
 442,61;  290,649;  102,834; 6151,956; 3,10484
 443,20;  291,355;   85,351; 6266,378; 3,33285
 443,79;  271,026;   81,541; 6234,795; 3,07942
 444,38;  283,661;   97,347; 6409,602; 2,95162
 444,97;  287,485;   78,439; 6464,563; 3,27343
 445,56;  303,049;  109,241; 6579,222; 2,99551
 446,15;  294,914;   88,455; 6706,313; 3,11972
 446,74;  270,438;   69,334; 6742,643; 3,01355
 447,33;  288,226;   95,241; 6883,895; 2,84275
 447,92;  291,737;   84,855; 6996,541; 2,99323
 448,51;  319,473;  100,340; 7059,750; 3,14873
 449,10;  312,008;   94,139; 7198,291; 3,06679
 449,69;  310,273;   87,253; 7331,782; 3,07845
 450,28;  300,208;   81,345; 7420,757; 2,98202
 450,87;  310,532;   82,645; 7551,885; 3,05101
 451,46;  328,938;  109,948; 7689,475; 2,88923
 452,05;  316,243;   83,751; 7799,165; 3,01335
 452,64;  322,685;   79,053; 7949,396; 3,09556
 453,23;  370,455;  121,857; 8107,044; 3,11323
 453,82;  339,049;   84,154; 8243,854; 3,12383
 454,40;  326,085;   65,153; 8384,695; 3,13637
 454,99;  356,126;  106,662; 8574,793; 2,94591
 455,58;  332,479;   87,043; 8649,739; 2,86634
 456,17;  351,296;   80,659; 8846,976; 3,08724
 456,76;  361,537;   76,455; 9034,841; 3,18230
 457,35;  364,061;   81,647; 9159,302; 3,11109
 457,94;  366,579;   81,464; 9376,038; 3,06754
 458,53;  348,061;   61,254; 9526,168; 3,03021
 459,12;  394,984;  102,874; 9854,294; 2,99557
 459,71;  371,485;   74,246; 9828,729; 3,04720
 460,30;  403,896;   87,146;10047,144; 3,18023
 460,89;  377,237;   73,955;10215,141; 2,99061
 461,48;  377,979;   79,164;10399,538; 2,89539
 462,06;  384,020;   79,052;10532,938; 2,91727
 462,65;  375,314;   50,349;10614,747; 3,07604
 463,24;  422,090;   97,770;10972,218; 2,98241
 463,83;  380,020;   68,452;11002,037; 2,84964
 464,42;  424,302;   85,649;11187,634; 3,05038
 465,01;  412,885;   73,753;11387,596; 2,99749
 465,60;  427,096;   78,553;11587,810; 3,02838
 466,19;  438,379;   85,064;11761,938; 3,02577
 466,77;  454,314;   85,955;11897,913; 3,11852
 467,36;  431,096;   69,673;12026,008; 3,02286
 467,95;  448,402;   80,156;12155,399; 3,04960
 468,54;  457,032;   89,865;12369,683; 2,99000
 469,13;  459,367;   81,657;12434,158; 3,05776
 469,72;  456,261;   74,968;12666,501; 3,02817
 470,31;  476,337;   85,968;12844,173; 3,05975
 470,90;  475,332;   80,951;12953,451; 3,06374
 471,48;  445,173;   39,174;13142,381; 3,09847
 472,07;  513,467;  121,143;13334,026; 2,96925
 472,66;  485,661;   88,761;13472,034; 2,96564
 473,25;  483,014;   72,055;13588,813; 3,04036
 473,84;  498,796;   61,866;13773,542; 3,18655
 474,43;  492,520;   54,279;14038,502; 3,13382
 475,01;  524,420;   80,066;14139,770; 3,16048
 475,60;  488,373;   49,967;14305,914; 3,07525
 476,19;  530,702;   93,176;14422,298; 3,05340
 476,78;  532,296;   82,173;14542,208; 3,11288
 477,37;  499,473;   58,867;14636,614; 3,02245
 477,95;  555,114;   82,169;14810,445; 3,21113
 478,54;  539,926;   76,062;14981,894; 3,11196
 479,13;  542,126;   63,162;15125,093; 3,17996
 479,72;  560,855;   76,964;15232,811; 3,19277
 480,31;  559,896;   75,880;15418,174; 3,15478
 480,89;  536,520;   70,066;15522,369; 3,01867
 481,48;  543,214;   55,283;15600,078; 3,13887
 482,07;  545,732;   57,765;15750,783; 3,10945
 482,66;  544,814;   68,962;15832,380; 3,01871
 483,25;  579,014;   84,683;15929,778; 3,11977
 483,83;  548,508;   68,466;16050,655; 3,00361
 484,42;  568,879;   63,364;16126,138; 3,14712
 485,01;  580,626;   70,776;16307,025; 3,14020
 485,60;  592,296;   77,194;16445,707; 3,14691
 486,18;  570,114;   67,069;16479,246; 3,06507
 486,77;  575,755;   74,057;16525,145; 3,04963
 487,36;  584,884;   72,094;16711,293; 3,08182
 487,95;  606,055;   70,785;16813,010; 3,19713
 488,53;  599,567;   71,684;16801,322; 3,15537
 489,12;  587,643;   62,692;16952,961; 3,10801
 489,71;  566,361;   39,888;16938,100; 3,11555
 490,30;  604,890;   69,484;17113,451; 3,14133
 490,88;  626,743;   89,585;17127,195; 3,15278
 491,47;  607,632;   69,492;17224,348; 3,13695
 492,06;  611,490;   65,090;17261,617; 3,17739
 492,65;  617,520;   77,986;17233,469; 3,14496
 493,23;  601,926;   68,382;17320,291; 3,09266
 493,82;  609,937;   69,661;17342,307; 3,12793
 494,41;  598,596;   58,487;17437,141; 3,10789
 494,99;  611,896;   84,866;17518,842; 3,02301
 495,58;  646,390;   84,284;17554,650; 3,21749
 496,17;  606,590;   72,370;17509,719; 3,06366
 496,76;  613,014;   93,469;17612,945; 2,96553
 497,34;  614,561;   64,574;17624,666; 3,13203
 497,93;  616,073;   65,474;17590,080; 3,14186
 498,52;  627,673;   75,281;17695,846; 3,13493
 499,10;  626,249;   93,088;17745,086; 3,02040
 499,69;  604,649;   72,282;17776,318; 3,00704
 500,28;  581,496;   45,880;17695,674; 3,03469
 500,86;  629,084;   78,487;17817,127; 3,10394
 501,45;  606,884;   62,587;17787,127; 3,07087
 502,04;  632,561;   74,588;17819,199; 3,14446
 502,62;  629,590;   80,870;17980,617; 3,06552
 503,21;  612,067;   73,771;17892,291; 3,02099
 503,80;  623,137;   80,889;18049,971; 3,01768
 504,38;  622,626;   66,782;18081,592; 3,08548
 504,97;  627,637;   63,789;18149,771; 3,11760
 505,56;  632,932;   86,979;18184,016; 3,01681
 506,14;  628,473;   78,294;18216,379; 3,03328
 506,73;  587,814;   38,396;18106,211; 3,04086
 507,32;  638,067;   77,098;18168,154; 3,10081
 507,90;  625,314;   84,283;18161,578; 2,99288
 508,49;  621,702;   59,197;18255,996; 3,09123
 509,08;  639,608;   77,493;18383,420; 3,07067
 509,66;  630,002;   85,583;18346,564; 2,98132
 510,25;  624,832;   68,886;18430,381; 3,02778
 510,83;  619,414;   75,296;18536,609; 2,94734
 511,42;  637,296;   72,807;18572,838; 3,05129
 512,01;  628,549;   60,695;18642,652; 3,05594
 512,59;  623,837;   62,589;18756,072; 3,00238
 513,18;  630,696;   74,787;18718,840; 2,98170
 513,77;  625,108;   53,173;18818,521; 3,04783
 514,35;  597,202;   48,290;18820,730; 2,92403
 514,94;  629,349;   84,088;18969,385; 2,88722
 515,52;  605,708;   53,000;18990,287; 2,91862
 516,11;  643,526;   92,196;19062,123; 2,90633
 516,69;  615,484;   51,880;18975,660; 2,97829
 517,28;  655,214;  102,676;18976,813; 2,92749
 517,87;  624,937;   69,975;18977,738; 2,93510
 518,45;  635,290;   66,277;19035,684; 2,99964
 519,04;  607,355;   60,478;19057,742; 2,87872
 519,62;  625,790;   53,390;19135,617; 2,99965
 520,21;  594,196;   41,900;19184,572; 2,88515
 520,79;  626,843;   57,406;19303,594; 2,95870
 521,38;  637,679;   58,784;19330,137; 3,00391
 521,97;  640,108;   54,407;19542,053; 3,00550
 522,55;  639,043;   65,078;19568,729; 2,94286
 523,14;  611,332;   34,679;19635,314; 2,94201
 523,72;  662,267;   79,184;19741,822; 2,96543
 524,31;  657,614;   73,996;19769,811; 2,96315
 524,89;  645,155;   55,805;20040,607; 2,94899
 525,48;  636,661;   53,902;20077,531; 2,91036
 526,06;  649,849;   75,395;20128,451; 2,86467
 526,65;  687,220;   73,913;20367,232; 3,02221
 527,23;  651,414;   49,890;20330,645; 2,96599
 527,82;  662,102;   51,304;20600,063; 2,97243
 528,41;  686,273;   68,401;20707,045; 2,99376
 528,99;  683,502;   59,097;20783,096; 3,01296
 529,58;  671,126;   47,789;20840,559; 2,99785
 530,16;  676,296;   56,887;21053,141; 2,95010
 530,75;  732,061;   76,995;21260,465; 3,09235
 531,33;  699,561;   49,602;21294,031; 3,05943
 531,92;  685,802;   56,183;21466,564; 2,94072
 532,50;  747,667;  104,412;21786,588; 2,96675
 533,09;  732,955;   83,598;21850,541; 2,98322
 533,67;  743,267;   78,678;22009,957; 3,03033
 534,26;  728,337;   70,982;22162,506; 2,97560
 534,84;  759,620;   66,086;22364,168; 3,11028
 535,42;  754,261;   63,895;22625,564; 3,05991
 536,01;  792,890;   83,690;22830,316; 3,11782
 536,59;  767,396;   54,600;22982,172; 3,10890
 537,18;  809,949;   80,682;23112,119; 3,16640
 537,76;  808,002;   66,517;23531,195; 3,16000
 538,35;  799,220;   75,907;23692,867; 3,06269
 538,93;  839,449;   89,595;23721,951; 3,17300
 539,52;  816,420;   70,313;24095,432; 3,10553
 540,10;  859,614;   75,810;24403,342; 3,22188
 540,69;  861,620;   91,093;24507,135; 3,15582
 541,27;  860,949;   82,888;24822,186; 3,14504
 541,85;  868,220;   59,400;25106,500; 3,22920
 542,44;  886,614;   67,483;25112,178; 3,27068
 543,02;  932,814;   92,310;25576,242; 3,29817
 543,61;  945,914;   96,503;25801,377; 3,30447
 544,19;  912,332;   68,999;26045,113; 3,24657
 544,78;  916,484;   69,301;26190,260; 3,24331
 545,36;  968,737;  100,009;26530,770; 3,28681
 545,94;  935,361;   66,795;26660,564; 3,26605
 546,53;  955,126;   73,917;26816,822; 3,29511
 547,11; 1013,684;  105,408;27133,426; 3,36050
 547,70;  995,949;   93,082;27194,020; 3,33150
 548,28;  992,302;   45,797;27442,697; 3,45479
 548,86; 1041,002;   87,897;27794,797; 3,43996
 549,45; 1010,508;   46,507;27921,453; 3,45831
 550,03; 1052,490;   76,004;28138,549; 3,47968
 550,62; 1066,608;   70,000;28556,387; 3,49854
 551,20; 1071,614;   79,903;28837,176; 3,44856
 551,78; 1077,984;   71,094;28870,492; 3,49622
 552,37; 1105,161;   58,995;29194,064; 3,59074
 552,95; 1110,726;   59,696;29443,123; 3,57695
 553,54; 1139,114;   55,296;29695,211; 3,65661
 554,12; 1150,179;   74,404;29911,135; 3,60554
 554,70; 1179,384;   90,408;30498,525; 3,58120
 555,29; 1181,679;   74,598;30497,770; 3,63894
 555,87; 1197,243;   61,613;30831,760; 3,69069
 556,45; 1216,461;   62,488;31186,799; 3,70763
 557,04; 1246,637;   58,902;31462,805; 3,78213
 557,62; 1279,837;   63,202;31739,805; 3,84080
 558,20; 1268,014;   48,717;32057,809; 3,80922
 558,79; 1335,243;  104,406;32384,094; 3,81304
 559,37; 1283,114;   53,403;32421,775; 3,79911
 559,95; 1350,961;   58,009;32974,496; 3,92798
 560,54; 1371,896;   76,907;33105,141; 3,92085
 561,12; 1371,284;   61,901;33310,559; 3,93815
 561,70; 1399,249;   57,109;33693,484; 3,99015
 562,29; 1438,620;   74,007;34096,867; 4,01087
 562,87; 1456,108;   81,807;34555,254; 3,98655
 563,45; 1478,608;   82,507;34828,051; 4,01807
 564,04; 1466,214;   58,590;34728,145; 4,06012
 564,62; 1488,273;   63,108;35171,711; 4,05930
 565,20; 1489,084;   62,387;35393,527; 4,03807
 565,78; 1573,290;   81,397;35845,984; 4,17143
 566,37; 1576,320;   67,400;36021,801; 4,19676
 566,95; 1575,314;   73,010;36297,043; 4,14726
 567,53; 1608,461;   77,488;36631,398; 4,18826
 568,12; 1628,802;   61,697;36731,496; 4,27356
 568,70; 1679,737;   88,396;37224,637; 4,28514
 569,28; 1701,149;   72,909;37518,684; 4,34826
 569,86; 1737,126;   69,103;37728,289; 4,42926
 570,45; 1765,302;   75,011;38155,730; 4,43871
 571,03; 1729,873;   53,588;38139,211; 4,40136
 571,61; 1769,996;   57,514;38657,105; 4,43653
 572,19; 1764,279;   59,991;38611,504; 4,42081
 572,78; 1819,043;   75,906;39057,594; 4,47168
 573,36; 1866,761;   86,495;39295,066; 4,54050
 573,94; 1847,385;   61,294;39533,691; 4,52491
 574,52; 1867,796;   76,080;39699,473; 4,52186
 575,11; 1893,608;   48,093;39929,320; 4,62753
 575,69; 1913,061;   64,102;40206,430; 4,60601
 576,27; 1937,455;   59,785;40348,609; 4,66052
 576,85; 1949,361;   40,795;40698,863; 4,69419
 577,44; 1967,261;   48,888;40863,898; 4,70017
 578,02; 2010,173;   49,881;40926,648; 4,79561
 578,60; 2044,596;   62,994;41257,508; 4,81036
 579,18; 2069,143;   62,292;41632,262; 4,82765
 579,76; 2090,149;   50,795;41594,051; 4,90899
 580,35; 2109,879;   68,111;41928,703; 4,87754
 580,93; 2150,167;   76,905;42284,422; 4,91207
 581,51; 2145,167;   37,412;42435,488; 4,97135
 582,09; 2200,102;   66,590;42631,930; 5,01232
 582,67; 2227,314;   72,803;42942,875; 5,02568
 583,26; 2252,296;   35,007;43231,340; 5,13305
 583,84; 2240,973;   39,694;43499,578; 5,06508
 584,42; 2333,837;   68,796;43810,539; 5,17822
 585,00; 2343,061;   81,602;44189,230; 5,12714
 585,58; 2332,737;   37,302;44473,902; 5,16564
 586,17; 2397,967;   64,784;44458,621; 5,25564
 586,75; 2350,896;   19,300;44482,672; 5,24386
 587,33; 2423,202;   63,604;44897,063; 5,26303
 587,91; 2482,896;   91,000;45095,574; 5,31478
 588,49; 2481,361;   80,188;45246,199; 5,31633
 589,07; 2504,155;   60,505;45233,109; 5,40958
 589,65; 2501,649;   46,902;45181,918; 5,43868
 590,24; 2550,073;   58,588;45293,613; 5,50787
 590,82; 2540,520;   35,086;45274,168; 5,53821
 591,40; 2553,073;   58,994;45434,578; 5,49652
 591,98; 2576,685;   54,580;45384,961; 5,56383
 592,56; 2614,720;   72,486;45642,168; 5,57878
 593,14; 2605,084;   45,880;45612,262; 5,61643
 593,72; 2649,214;   50,996;45797,711; 5,67957
 594,30; 2669,173;   52,581;45818,848; 5,71729
 594,89; 2684,049;   57,095;45617,051; 5,76593
 595,47; 2681,267;   52,484;45796,723; 5,74670
 596,05; 2709,037;   39,602;45930,805; 5,81688
 596,63; 2707,037;   54,302;46063,105; 5,76571
 597,21; 2749,208;   55,000;46049,988; 5,85761
 597,79; 2771,849;   45,002;46159,816; 5,91317
 598,37; 2759,790;   52,411;46221,414; 5,86406
 598,95; 2786,696;   53,800;46273,074; 5,91289
 599,53; 2803,108;   46,873;46082,320; 5,98720
 600,11; 2842,726;   57,096;46384,324; 6,01294
 600,70; 2852,531;   80,192;46052,746; 6,03042
 601,28; 2853,373;   45,494;46162,879; 6,08855
 601,86; 2905,496;   68,300;46300,273; 6,13687
 602,44; 2872,320;   36,486;46388,270; 6,11807
 603,02; 2909,502;   39,570;46382,832; 6,19277
 603,60; 2963,802;   66,176;46730,398; 6,20952
 604,18; 2952,767;   66,491;46584,891; 6,20459
 604,76; 2987,002;   58,790;46600,031; 6,29165
 605,34; 2921,343;   36,599;46312,227; 6,23383
 605,92; 2960,908;   62,486;46220,855; 6,27930
 606,50; 2971,673;   37,188;46309,914; 6,34172
 607,08; 2968,361;   43,702;46046,633; 6,35755
 607,66; 2973,908;   41,000;46295,488; 6,34081
 608,24; 2995,126;   48,503;46338,488; 6,36557
 608,82; 3009,608;   33,993;46369,520; 6,42189
 609,40; 2980,873;   64,001;46126,047; 6,33248
 609,98; 2969,449;   35,095;46236,750; 6,35119
 610,56; 3027,979;   52,784;46044,535; 6,46897
 611,14; 3036,178;   49,098;46042,070; 6,49465
 611,72; 3018,702;   64,597;46143,598; 6,41096
 612,30; 3045,014;   41,690;46084,242; 6,52293
 612,88; 3068,043;   71,478;46250,930; 6,48896
 613,46; 3081,873;   42,588;46000,414; 6,61320
 614,04; 3088,184;   50,408;46040,227; 6,60532
 614,62; 3092,455;   51,785;45729,809; 6,65675
 615,20; 3075,155;   57,905;45750,707; 6,60334
 615,78; 3066,214;   32,910;45702,141; 6,64190
 616,36; 3078,685;   47,494;45707,492; 6,63861
 616,94; 3042,908;   26,000;45666,988; 6,61008
 617,52; 3054,267;   34,005;45546,723; 6,63608
 618,10; 3062,108;   72,180;45702,289; 6,55253
 618,68; 3068,920;   25,800;45447,398; 6,69972
 619,26; 3057,731;   44,406;45536,379; 6,62386
 619,84; 3042,667;   40,491;45161,188; 6,65366
 620,42; 3054,614;   40,896;45357,211; 6,65040
 621,00; 3056,314;   39,096;45365,609; 6,65663
 621,58; 3059,249;   39,482;45249,020; 6,67949
 622,16; 3089,908;   57,014;45337,918; 6,69795
 622,74; 3064,408;   57,600;45236,785; 6,65529
 623,32; 3031,832;   44,799;45204,113; 6,61443
 623,90; 3068,885;   79,315;45023,992; 6,65167
 624,48; 3068,573;   43,688;44883,313; 6,74601
 625,05; 3053,073;   40,088;45065,711; 6,69171
 625,63; 3101,573;   57,388;45042,613; 6,76708
 626,21; 3052,514;   48,190;44855,445; 6,70500
 626,79; 3103,314;   74,903;45051,477; 6,73331
 627,37; 3058,449;   43,088;44755,484; 6,74390
 627,95; 3082,555;   71,305;44796,508; 6,73278
 628,53; 3067,514;   57,896;44747,512; 6,73449
 629,11; 3080,620;   49,879;44640,102; 6,79687
 629,69; 3064,673;   52,108;44879,012; 6,72044
 630,27; 3094,867;   84,091;44600,891; 6,76323
 630,84; 3057,873;   54,488;44537,711; 6,75173
 631,42; 3063,967;   61,005;44855,422; 6,70388
 632,00; 3030,196;   45,980;44578,773; 6,70117
 632,58; 3041,420;   61,493;44575,133; 6,69441
 633,16; 3040,920;   59,113;44579,633; 6,69760
 633,74; 3047,537;   66,096;44446,836; 6,71787
 634,32; 3033,043;   57,385;44291,395; 6,72708
 634,90; 3076,132;   61,113;44901,246; 6,72393
 635,47; 3005,602;   38,283;44333,266; 6,69900
 636,05; 3008,243;   42,085;44188,996; 6,71884
 636,63; 3005,614;   54,696;44344,809; 6,66270
 637,21; 3032,449;   62,095;44528,051; 6,68006
 637,79; 3065,655;   70,898;44448,043; 6,74842
 638,37; 2986,149;   64,468;44258,387; 6,61105
 638,94; 2982,178;   47,098;44318,270; 6,62978
 639,52; 2997,279;   42,198;44423,570; 6,65838
 640,10; 3012,399;   72,894;44524,383; 6,61284
 640,68; 3044,037;   57,694;44555,723; 6,71118
 641,26; 2984,375;   33,794;44602,766; 6,62026
 641,84; 3026,913;   54,794;44264,703; 6,72274
 642,41; 2970,052;   33,394;44386,445; 6,62109
 642,99; 3021,889;   61,194;44412,684; 6,67553
 643,57; 2985,427;   27,195;44380,227; 6,66974
 644,15; 2988,566;   34,095;44424,863; 6,65560
 644,73; 3034,804;   51,095;44794,105; 6,66855
 645,30; 3013,542;   69,595;44532,445; 6,62114
 645,88; 3033,280;   53,895;44571,184; 6,69265
 646,46; 3022,318;   57,295;44724,324; 6,63806
 647,04; 3000,556;   47,895;44548,164; 6,63515
 647,61; 2979,794;   45,795;44756,004; 6,56226
 648,19; 3011,932;   69,795;44812,445; 6,57569
 648,77; 2975,070;   32,095;44807,887; 6,57269
 649,35; 2973,708;   61,995;44879,125; 6,49688
 649,92; 3006,347;   52,995;44855,965; 6,59186
 650,50; 2983,785;   31,796;44722,105; 6,60543
 651,08; 2986,523;   47,596;44624,445; 6,59294
 651,66; 2981,661;   27,196;44888,984; 6,58571
 652,23; 2946,099;   56,496;44823,027; 6,45483
 652,81; 2956,737;   45,996;45074,367; 6,46424
 653,39; 2999,875;   69,596;45120,406; 6,50439
 653,97; 2967,513;   33,196;45228,348; 6,49255
 654,54; 2944,451;   37,096;45073,086; 6,45563
 655,12; 2984,990;   30,696;45271,324; 6,53018
 655,70; 2996,328;   49,196;45327,367; 6,50895
 656,28; 2984,766;   45,596;45491,605; 6,46739
 656,85; 2964,804;   44,896;45428,547; 6,43383
 657,43; 2950,842;   17,297;45216,785; 6,49022
 658,01; 2975,280;   21,797;45644,426; 6,47372
 658,58; 3033,718;   70,597;45949,367; 6,45859
 659,16; 3001,356;   57,397;45552,508; 6,47094
 659,74; 3027,294;   78,497;45746,246; 6,45707
 660,32; 3062,232;   79,297;45955,586; 6,50213
 660,89; 3002,970;   37,497;45904,125; 6,46543
 661,47; 3059,908;   53,597;46094,566; 6,52964
 662,05; 3006,547;   35,997;46285,605; 6,42286
 662,62; 3074,885;   73,597;46643,047; 6,44476
 663,20; 3112,423;   94,697;46661,586; 6,48041
 663,78; 3104,361;   67,397;46944,527; 6,47856
 664,35; 3109,699;   51,597;47161,066; 6,49148
 664,93; 3135,737;   64,698;47390,008; 6,48921
 665,51; 3134,675;   54,798;47523,445; 6,48823
 666,08; 3136,113;   52,598;47587,188; 6,48689
 666,66; 3135,751;   54,898;48219,926; 6,39645
 667,23; 3197,489;   73,498;48259,168; 6,48324
 667,81; 3234,327;   67,298;48827,809; 6,49507
 668,39; 3220,865;   53,798;48982,547; 6,47282
 668,96; 3276,404;   64,898;49249,488; 6,52950
 669,54; 3278,342;   52,398;49565,027; 6,51540
 670,12; 3310,680;   62,098;50043,266; 6,49961
 670,69; 3353,318;   72,198;50587,309; 6,49532
 671,27; 3367,156;   42,698;50804,949; 6,54907
 671,84; 3333,994;   52,699;50686,289; 6,48047
 672,42; 3396,132;   77,899;51094,227; 6,50426
 673,00; 3375,070;   61,099;51364,270; 6,45958
 673,57; 3391,408;   73,699;51056,109; 6,50756
 674,15; 3421,247;   76,499;51454,246; 6,51011
 674,72; 3375,985;   64,499;51271,988; 6,46680
 675,30; 3393,223;   68,499;51194,930; 6,50294
 675,88; 3372,461;   47,299;51369,867; 6,47895
 676,45; 3379,799;   68,799;51601,406; 6,42506
 677,03; 3394,637;   70,999;51397,750; 6,47545
 677,60; 3378,975;   36,999;51440,387; 6,50147
 678,18; 3408,213;   63,399;51741,328; 6,47242
 678,76; 3404,751;   39,800;51655,566; 6,51923
 679,33; 3450,989;   60,000;51613,008; 6,57768
 679,91; 3425,027;   48,100;51616,250; 6,54848
 680,48; 3420,065;   49,900;51590,789; 6,53882
 681,06; 3482,404;   53,900;51551,828; 6,65756
 681,63; 3413,642;   48,800;51360,969; 6,55759
 682,21; 3451,580;   75,100;51466,910; 6,57007
 682,78; 3414,418;   22,700;50943,648; 6,66075
 683,36; 3453,556;   54,300;51124,789; 6,65601
 683,93; 3418,894;   48,100;50885,328; 6,63056
 684,51; 3462,632;   45,600;50889,270; 6,72066
 685,08; 3498,570;   50,900;51123,410; 6,75054
 685,66; 3485,308;   59,001;51258,648; 6,69205
 686,24; 3499,646;   45,801;51266,789; 6,74303
 686,81; 3512,584;   58,201;51376,027; 6,73135
 687,39; 3514,623;   46,201;51314,770; 6,76520
 687,96; 3536,961;   54,201;51515,711; 6,76770
 688,54; 3555,799;   25,401;51650,148; 6,83858
 689,11; 3541,437;   31,501;51776,789; 6,78310
 689,69; 3578,075;   41,901;51664,027; 6,85011
 690,26; 3674,213;   60,901;52121,570; 6,94058
 690,84; 3654,351;   57,601;51906,211; 6,93702
 691,41; 3688,089;   51,001;52199,750; 6,97445
 691,98; 3697,827;   40,201;52310,590; 6,99751
 692,56; 3758,865;   37,101;52299,531; 7,12130
 693,13; 3858,003;   66,302;52835,871; 7,18539
 693,71; 3869,142;   35,502;52870,508; 7,25587
 694,28; 3845,780;   34,302;52895,852; 7,21030
 694,86; 3932,518;   51,802;53283,488; 7,29024
 695,43; 4013,656;   69,202;53173,031; 7,42781
 696,01; 4017,594;   54,302;53738,871; 7,38255
 696,58; 4076,832;   45,002;53627,512; 7,52453
 697,16; 4166,970;   49,502;53758,352; 7,66627
 697,73; 4235,608;   80,802;54265,191; 7,66790
 698,30; 4213,446;   52,702;53928,930; 7,72278
 698,88; 4274,084;   45,602;54095,770; 7,82325
 699,45; 4336,723;   40,902;54204,309; 7,93122
 700,03; 4398,061;   58,803;54551,648; 7,96299
 700,60; 4509,899;   69,203;54563,492; 8,14892
 701,18; 4523,637;   73,403;54806,930; 8,13073
 701,75; 4659,075;   75,303;55150,672; 8,32273
 702,32; 4651,213;   47,703;54894,012; 8,39347
 702,90; 4699,151;   54,703;55278,152; 8,41028
 703,47; 4804,289;   64,703;55434,191; 8,55992
 704,05; 4928,627;   82,503;55625,531; 8,72499
 704,62; 4956,465;   40,303;55573,270; 8,85269
 705,19; 5059,804;   48,703;55701,609; 9,00420
 705,77; 5178,242;   30,503;55980,852; 9,20055
 706,34; 5285,680;   65,903;55939,090; 9,34218
 706,91; 5342,518;   51,604;56105,730; 9,43894
 707,49; 5467,556;   64,904;56452,871; 9,58121
 708,06; 5632,594;   81,504;56656,609; 9,81190
 708,64; 5680,332;   41,804;56518,352; 9,98384
 709,21; 5859,470;   66,604;56773,191;10,21551
 709,78; 5943,908;   54,904;56750,332;10,38709
 710,36; 6130,046;   68,504;57047,770;10,63815
 710,93; 6175,484;   69,704;57101,910;10,70585
 711,50; 6335,223;   53,104;57382,551;10,95793
 712,08; 6526,460;   64,704;57739,492;11,20378
 712,65; 6591,599;   77,104;57507,930;11,34320
 713,22; 6735,437;   88,404;57647,773;11,54813
 713,80; 6866,775;   89,904;57985,113;11,70541
 714,37; 6927,313;   62,705;57654,953;11,91933
 714,94; 7025,651;   67,705;57721,691;12,06846
 715,52; 7123,089;   58,905;57599,434;12,27689
 716,09; 7255,627;   63,205;57731,973;12,47195
 716,66; 7358,465;   74,205;57502,613;12,68407
 717,23; 7453,003;   72,805;57685,254;12,81008
 717,81; 7626,642;   58,805;57459,191;13,18430
 718,38; 7602,580;   51,605;57252,332;13,20084
 718,95; 7666,818;   70,805;57242,070;13,28642
 719,53; 7765,556;   58,505;57111,012;13,50870
 720,10; 7809,994;   78,805;56880,754;13,61078
 720,67; 7861,632;   49,405;56701,691;13,78978
 721,24; 7904,970;   68,006;56407,832;13,91017
 721,82; 8013,508;   65,506;56337,973;14,12414
 722,39; 8137,946;   63,006;56449,414;14,32072
 722,96; 8233,984;   79,706;56495,953;14,45378
 723,53; 8289,723;   87,306;56453,094;14,55212
 724,11; 8362,461;   67,806;56521,234;14,69292
 724,68; 8432,799;   69,806;56581,574;14,79867
 725,25; 8516,137;   74,206;56729,711;14,90046
 725,82; 8681,075;   99,706;57170,152;15,03645
 726,40; 8730,813;   62,206;57214,395;15,16758
 726,97; 8842,451;   67,806;57301,234;15,33133
 727,54; 8910,189;   62,706;57229,973;15,47648
 728,11; 9032,527;   53,607;57361,813;15,66778
 728,69; 9030,165;   49,507;57573,352;15,61206
 729,26; 9163,304;   58,707;57865,293;15,75010
 729,83; 9224,041;   53,707;58108,832;15,79591
 730,40; 9293,779;   58,407;58192,074;15,88644
 730,97; 9333,317;   47,007;58596,813;15,86053
 731,55; 9432,855;   47,407;58769,953;15,98270
 732,12; 9545,394;  100,907;58623,992;16,13805
 732,69; 9524,932;   71,407;58612,434;16,14855
 733,26; 9566,370;   53,407;58592,074;16,25073
 733,83; 9721,008;   50,907;58912,113;16,42865
 734,41; 9768,346;   74,707;59208,754;16,39265
 734,98; 9792,384;   62,607;59257,492;16,43685
 735,55; 9816,923;   55,908;59487,133;16,42405
 736,12; 9886,761;   72,208;59456,172;16,52728
 736,69; 9929,099;   90,408;59613,313;16,52925
 737,26; 9937,236;   68,108;59770,754;16,53047
 737,84; 9941,875;   62,508;59579,195;16,59932
 738,41;10039,913;   59,908;59723,734;16,72706
 738,98;10038,951;   70,608;59579,676;16,75097
 739,55; 9995,689;   62,008;59464,215;16,72275
 740,12;10069,327;   79,008;59831,754;16,71943
 740,69;10118,965;   71,408;59967,594;16,77495
 741,26;10108,203;   69,108;59921,535;16,77308
 741,83;10059,441;   69,208;59843,773;16,71318
 742,41;10138,479;   74,309;60309,313;16,70818
 742,98;10203,617;  103,909;60395,656;16,75139
 743,55;10285,256;   69,509;60240,496;16,97786
 744,12;10173,693;   57,709;60022,535;16,86986
 744,69;10197,132;   75,109;60194,574;16,83652
 745,26;10189,970;   46,009;59896,914;16,94872
 745,83;10249,908;   62,409;60193,254;16,94222
 746,40;10269,046;   64,009;60053,293;17,01143
 746,97;10257,685;   47,509;59961,535;17,04138
 747,55;10277,122;   72,209;60003,477;17,02769
 748,12;10313,061;   64,409;60031,316;17,09051
 748,69;10302,198;   64,109;60045,355;17,06882
 749,26;10263,337;   68,610;60145,594;16,96944
 749,83;10349,175;   62,210;60013,035;17,15901
 750,40;10366,813;  103,510;59932,074;17,15452
 750,97;10398,951;  103,510;60095,516;17,16136
 751,54;10378,688;   43,310;59869,254;17,27575
 752,11;10343,227;   67,510;59894,594;17,17569
 752,68;10358,665;  102,510;59665,434;17,21903
 753,25;10330,104;   71,610;59511,777;17,25852
 753,82;10355,041;   72,910;59701,414;17,24365
 754,39;10372,880;   76,010;59739,355;17,25828
 754,96;10414,317;   72,910;59250,297;17,47527
 755,53;10391,655;   52,210;59510,137;17,38951
 756,10;10425,494;   70,911;59313,574;17,47825
 756,67;10458,532;   81,611;59430,316;17,48466
 757,24;10400,870;   82,211;59289,656;17,42798
 757,81;10416,908;   43,711;59342,195;17,49319
 758,38;10430,646;   60,311;59341,734;17,49340
 758,95;10522,784;   84,911;59414,574;17,59301
 759,52;10422,822;   59,511;58757,516;17,65530
 760,09;10448,960;   70,811;58642,957;17,71857
 760,66;10462,599;   68,611;58366,598;17,82907
 761,23;10463,137;   85,611;58358,438;17,80852
 761,80;10432,074;   74,811;58348,176;17,77358
 762,37;10502,413;   87,411;58400,617;17,86045
 762,94;10536,751;   84,011;58434,258;17,91379
 763,51;10435,389;   59,112;58202,297;17,84608
 764,08;10499,927;   68,712;58167,637;17,95423
 764,65;10440,665;   87,212;57945,176;17,89460
 765,22;10416,003;   59,812;57632,418;17,98805
 765,79;10465,341;   79,712;57326,059;18,14199
 766,36;10457,379;   80,612;57346,598;18,12030
 766,93;10539,817;   65,712;57506,738;18,23454
 767,50;10580,455;   77,912;57339,375;18,34138
 768,07;10520,294;   77,312;57431,219;18,20797
 768,64;10576,731;   91,312;57245,355;18,34589
 769,21;10495,569;   64,112;56750,797;18,40195
 769,78;10488,607;   78,412;56606,938;18,41583
 770,34;10426,046;   44,213;56182,477;18,49333
 770,91;10419,784;   63,513;56215,117;18,44341
 771,48;10424,223;   69,513;55998,656;18,51398
 772,05;10390,061;   79,213;55701,898;18,53713
 772,62;10353,498;   51,913;55274,836;18,65455
 773,19;10388,637;   66,313;55428,477;18,64509
 773,76;10448,975;   78,913;55294,016;18,78120
 774,33;10378,612;   75,413;55158,156;18,70495
 774,90;10368,951;   60,413;54598,199;18,90164
 775,47;10396,188;   70,013;54692,637;18,90458
 776,03;10382,927;   77,913;54517,977;18,92910
 776,60;10369,365;   63,713;54224,719;19,02781
 777,17;10337,403;   66,414;54057,457;19,02351
 777,74;10301,341;   41,514;53490,098;19,19570
 778,31;10443,180;   71,414;53612,637;19,37155
 778,88;10293,718;   44,614;53275,879;19,25392
 779,45;10355,455;   91,914;53168,418;19,33726
 780,01;10336,594;   80,414;53129,656;19,33332
 780,58;10288,632;   75,314;52949,398;19,31630
 781,15;10286,470;   60,014;52661,438;19,44140
 781,72;10318,308;   74,014;52554,078;19,52035
 782,29;10235,946;   69,114;52079,219;19,54780
 782,86;10266,784;   75,114;51771,258;19,71457
 783,42;10250,522;   70,814;51617,297;19,74860
 783,99;10292,960;   66,514;51666,738;19,81861
 784,56;10276,398;   75,815;51183,078;19,95917
 785,13;10178,336;   65,615;51106,617;19,81294
 785,70;10225,475;   63,815;50902,359;19,98810
 786,26;10215,412;   80,715;50828,699;19,97064
 786,83;10244,650;   81,915;50547,141;20,13810
 787,40;10245,289;   71,915;50338,180;20,23897
 787,97;10142,427;   50,915;50082,520;20,17027
 788,54;10197,165;   76,715;50067,559;20,24461
 789,10;10169,503;   70,915;49707,098;20,34521
 789,67;10262,142;   88,815;49374,039;20,64174
 790,24;10151,579;   67,215;49515,980;20,39356
 790,81;10020,417;   85,715;48790,621;20,39774
 791,37;10104,756;   89,816;48703,758;20,60096
 791,94;10064,993;   77,416;48731,301;20,52781
 792,51;10054,531;   55,216;48281,039;20,73436
 793,08;10037,270;   78,116;48263,180;20,66855
 793,64; 9973,808;   70,516;47992,719;20,66535
 794,21; 9966,346;   91,216;47794,559;20,70113
 794,78; 9949,784;   67,216;47492,598;20,83814
 795,35; 9942,822;   74,916;47095,641;20,98629
 795,91; 9881,561;   58,816;46888,879;20,97530
 796,48; 9870,998;   76,616;46538,621;21,08041
 797,05; 9840,036;   66,716;46539,961;21,02999
 797,62; 9880,675;   57,616;46365,500;21,21250
 798,18; 9785,013;   65,717;46022,840;21,14862
 798,75; 9755,751;   60,917;45731,480;21,22775
 799,32; 9750,089;   71,517;45653,219;21,23346
 799,88; 9653,227;   71,317;45503,160;21,09074
 800,45; 9619,064;   43,617;45090,801;21,25648
 801,02; 9610,003;   70,617;45058,039;21,20456
 801,58; 9568,141;  103,217;44902,180;21,12755
 802,15; 9492,679;   78,917;44603,820;21,14269
 802,72; 9507,217;   86,717;44283,559;21,31487
 803,28; 9470,155;   62,217;44124,699;21,35136
 803,85; 9395,894;   51,017;43840,340;21,34054
 804,42; 9360,932;   86,817;43684,180;21,27219
 804,98; 9426,670;  110,518;43623,922;21,40984
 805,55; 9207,107;   63,118;43303,762;21,14675
 806,12; 9231,646;  101,318;43094,000;21,23693
 806,68; 9171,084;   75,418;42643,539;21,36732
 807,25; 9077,822;  100,118;42538,480;21,15469
 807,82; 9076,561;   94,218;42414,621;21,22462
 808,38; 9040,798;   78,818;42374,461;21,18890
 808,95; 8963,637;   71,618;42215,199;21,09934
 809,52; 8961,675;   67,418;42170,340;21,12503
 810,08; 8859,813;   78,418;42035,480;20,92948
 810,65; 8873,751;   70,318;42062,520;20,96445
 811,21; 8821,488;   81,418;42152,461;20,77455
 811,78; 8889,227;  103,518;42171,902;20,88435
 812,35; 8851,665;   77,619;41843,543;21,00767
 812,91; 8932,603;   96,919;42028,383;21,07173
 813,48; 8774,041;   73,519;41847,520;20,82760
 814,04; 8774,679;   84,319;41782,961;20,84087
 814,61; 8673,217;   86,119;41608,602;20,68060
 815,18; 8565,056;   80,719;41371,543;20,54775
 815,74; 8579,894;   85,619;41303,980;20,60799
 816,31; 8485,731;   87,719;40917,621;20,56829
 816,87; 8389,470;   48,519;40470,363;20,63476
 817,44; 8356,508;   89,319;40395,402;20,51102
 818,00; 8265,646;   56,519;40200,641;20,44914
 818,57; 8197,983;   93,519;39997,082;20,31013
 819,14; 8138,122;   97,720;39811,922;20,24566
 819,70; 8049,260;   88,420;39535,660;20,18098
 820,27; 7976,498;   77,320;39377,602;20,09955
 820,83; 7904,336;   77,020;39086,941;20,06494
 821,40; 7909,274;  107,520;38849,980;20,13748
 821,96; 7848,012;   81,620;38601,422;20,16208
 822,53; 7791,951;   83,020;38411,762;20,11266
 823,09; 7726,889;  109,920;38424,301;19,88018
 823,66; 7650,427;   88,420;38045,141;19,92271
 824,22; 7634,265;   85,720;37912,484;19,95556
 824,79; 7598,403;   84,920;37523,723;20,06870
 825,35; 7631,241;   93,320;37602,664;20,09611
 825,92; 7539,979;   80,021;37253,602;20,06790
 826,48; 7526,417;  107,521;37167,043;20,01887
 827,05; 7522,055;   99,421;36937,082;20,14958
 827,61; 7483,493;   84,421;36644,523;20,23811
 828,18; 7444,332;   74,121;36543,762;20,20917
 828,74; 7473,470;   88,421;36346,004;20,36829
 829,31; 7464,808;   99,621;36305,645;20,34243
 829,87; 7403,246;   85,121;36173,883;20,27813
 830,44; 7393,384;   91,621;36054,922;20,30337
 831,00; 7406,022;   97,221;35964,465;20,37737
 831,57; 7363,360;  113,021;35736,305;20,35281
 832,13; 7277,398;   81,521;35201,441;20,48944
 832,69; 7294,736;   81,021;35253,785;20,50938
 833,26; 7280,074;   92,922;35075,125;20,54517
 833,82; 7246,912;  103,122;34779,063;20,60158
 834,39; 7261,851;   82,922;34662,203;20,76078
 834,95; 7214,989;   75,222;34586,445;20,68825
 835,52; 7164,626;  114,822;34573,582;20,45867
 836,08; 7240,865;  102,222;34467,223;20,77300
 836,64; 7226,603;   88,722;34415,863;20,79369
 837,21; 7157,441;  100,422;34108,805;20,75082
 837,77; 7133,379;   87,922;33973,742;20,79176
 838,34; 7051,917;   80,322;33883,184;20,62427
 838,90; 7051,655;   74,022;33688,023;20,75811
 839,46; 7036,893;  102,722;33660,965;20,66309
 840,03; 7019,231;   89,823;33589,305;20,68512
 840,59; 7010,270;   98,623;33224,945;20,86452
 841,16; 6998,607;  115,023;33197,586;20,80729
 841,72; 6966,746;   60,623;32782,023;21,10583
 842,28; 6904,384;   88,023;33006,664;20,70669
 842,85; 6972,622;  111,223;32981,305;20,87430
 843,41; 6933,360;  115,623;32759,645;20,88510
 843,97; 6923,298;  101,523;32628,484;20,97268
 844,54; 6869,036;  103,923;32606,424;20,81413
 845,10; 6824,774;  101,623;32435,264;20,79305
 845,67; 6779,012;   84,723;32257,805;20,80711
 846,23; 6754,050;   89,623;32027,045;20,86714
 846,79; 6700,889;   95,524;31792,686;20,83898
 847,36; 6648,327;   74,924;31579,225;20,86510
 847,92; 6660,765;   98,924;31430,064;20,94351
 848,48; 6614,903;   52,124;31495,006;20,87207
 849,04; 6574,741;   76,124;31293,445;20,81734
 849,61; 6534,979;   69,624;31314,285;20,69267
 850,17; 6558,317;   75,324;31291,824;20,76784
 850,73; 6462,755;   79,824;31295,666;20,44773
 851,30; 6424,693;   67,024;31085,805;20,49619
 851,86; 6433,231;   82,024;30886,045;20,61811
 852,42; 6420,069;   68,124;30971,785;20,55402
 852,99; 6375,408;   94,224;30848,025;20,42409
 853,55; 6317,946;  105,124;30691,564;20,31234
 854,11; 6308,184;   74,425;30375,906;20,57246
 854,67; 6358,022;   95,225;30426,945;20,64768
 855,24; 6230,360;   67,225;30329,586;20,36568
 855,80; 6249,798;   89,225;30332,326;20,37018
 856,36; 6191,736;   86,525;30215,365;20,26368
 856,92; 6137,874;   62,925;30050,506;20,25822
 857,49; 6122,712;   83,025;29960,646;20,21475
 858,05; 6082,650;   79,825;29911,785;20,12213
 858,61; 6066,789;   66,325;29929,727;20,09303
 859,17; 6085,327;   89,325;29718,566;20,23677
 859,74; 6044,765;   83,025;29678,205;20,14429
 860,30; 5974,403;  113,925;29483,246;19,95442
 860,86; 5923,541;   68,026;29312,586;20,02258
 861,42; 5919,979;   86,626;29074,326;20,12355
 861,99; 5823,617;   63,326;29042,166;19,87758
 862,55; 5805,455;   75,226;28893,006;19,88435
 863,11; 5856,093;   91,926;29061,646;19,89721
 863,67; 5821,431;   76,826;28852,586;19,96335
 864,23; 5759,270;   90,526;28750,727;19,77915
 864,80; 5687,708;   70,326;28544,666;19,72787
 865,36; 5700,146;   65,426;28649,607;19,71272
 865,92; 5667,784;  100,126;28461,146;19,63137
 866,48; 5644,222;   89,526;28425,188;19,60320
 867,04; 5567,360;   67,426;28159,627;19,57815
 867,60; 5573,798;   91,327;28118,768;19,56108
 868,17; 5554,836;  104,427;27939,207;19,58129
 868,73; 5506,974;   82,127;27621,646;19,69841
 869,29; 5457,412;   65,927;27596,787;19,58342
 869,85; 5497,250;  113,027;27568,627;19,61066
 870,41; 5432,088;   81,527;27384,168;19,59723
 870,97; 5376,727;  107,827;27213,406;19,43843
 871,54; 5298,265;   85,727;26980,947;19,38091
 872,10; 5347,603;   88,627;26828,088;19,66747
 872,66; 5233,741;   62,827;26528,428;19,53824
 873,22; 5212,579;   93,127;26519,367;19,37261
 873,78; 5098,617;   78,627;26172,908;19,23789
 874,34; 5095,455;  104,228;26033,547;19,24936
 874,90; 5065,155;  120,827;25783,248;19,26680
 875,46; 5005,755;   99,728;25709,348;19,15697
 876,03; 4967,255;   98,927;25420,648;19,22589
 876,59; 4884,655;   77,327;25181,547;19,14948
 877,15; 4868,055;  109,827;25149,047;19,00310
 877,71; 4863,155;  106,228;25212,648;18,94705
 878,27; 4774,155;   96,427;24989,248;18,79147
 878,83; 4811,755;  116,827;25022,148;18,85110
 879,39; 4752,855;  100,027;24973,648;18,70587
 879,95; 4735,455;   98,827;24843,648;18,73777
 880,51; 4684,455;   83,728;24936,047;18,51227
 881,07; 4694,655;   90,527;25061,848;18,43766
 881,63; 4722,855;  101,027;25156,047;18,44671
 882,19; 4738,655;   87,628;24975,447;18,68797
 882,75; 4689,755;  101,427;25261,947;18,23622
 883,31; 4707,155;  105,327;25428,648;18,17229
 883,88; 4722,455;   98,927;25336,748;18,31984
 884,44; 4691,355;   91,927;25417,947;18,16088
 885,00; 4758,055;  107,427;25761,848;18,12798
 885,56; 4766,555;  107,827;25751,648;18,16706
 886,12; 4741,655;  111,228;25842,648;17,99523
 886,68; 4742,355;   99,228;25852,348;18,02938
 887,24; 4815,655;  117,927;26350,547;17,90796
 887,80; 4793,055;   90,728;26280,748;17,95465
 888,36; 4791,755;  116,327;26529,848;17,70089
 888,92; 4793,455;  125,728;26572,047;17,64982
 889,48; 4788,455;  103,128;26954,447;17,44915
 890,04; 4782,655;  109,128;26947,547;17,41357
 890,60; 4810,855;  112,128;27251,248;17,31348
 891,16; 4831,255;   96,628;27188,848;17,47597
 891,72; 4819,055;  118,228;27260,547;17,31918
 892,28; 4844,855;  134,827;27331,547;17,31837
 892,84; 4749,255;  104,728;27348,848;17,04782
 893,39; 4774,955;  123,927;27411,947;17,04421
 893,95; 4752,155;  114,228;27186,348;17,13175
 894,51; 4658,155;   76,327;26955,748;17,04586
 895,07; 4706,055;  129,727;27084,848;16,97758
 895,63; 4558,455;   77,128;26839,947;16,74460
 896,19; 4548,755;   97,128;26677,248;16,74796
 896,75; 4468,355;  124,927;26555,748;16,43319
 897,31; 4386,655;   90,728;26203,148;16,45166
 897,87; 4365,255;  101,728;25897,248;16,52817
 898,43; 4343,855;  106,527;25790,848;16,49772
 898,99; 4245,655;  117,427;25589,047;16,20716
 899,55; 4218,255;  119,927;25597,447;16,08605
 900,11; 4118,555;  108,327;25305,447;15,91542
 900,67; 4058,355;   98,527;25075,248;15,85407
 901,22; 4018,555;  119,628;24861,047;15,75871
 901,78; 3915,955;   91,628;24661,248;15,56527
 902,34; 3951,455;  111,228;24532,248;15,72509
 902,90; 3877,155;   80,827;24335,148;15,65217
 903,46; 3785,755;  105,728;24231,348;15,25361
 904,02; 3734,155;  100,527;24123,947;15,12536
 904,58; 3643,555;   90,728;23850,848;14,95290
 905,14; 3623,155;   68,527;23822,947;14,96407
 905,70; 3530,655;   83,927;23630,748;14,63776
 906,25; 3543,255;   90,628;23553,348;14,71538
 906,81; 3500,655;   94,628;23392,047;14,61976
 907,37; 3495,055;   98,827;23257,447;14,66507
 907,93; 3447,455;   89,527;23089,748;14,59955
 908,49; 3425,155;   99,628;22999,447;14,52207
 909,05; 3358,255;   97,827;22927,848;14,28132
 909,60; 3293,955;  108,228;22788,748;14,04610
 910,16; 3275,455;   74,228;22700,748;14,14812
 910,72; 3240,855;  110,427;22663,447;13,88030
 911,28; 3219,355;  102,128;22408,248;13,97476
 911,84; 3214,155;   90,628;22454,148;13,96707
 912,39; 3138,455;   78,427;22258,547;13,79626
 912,95; 3163,455;  102,728;22258,148;13,81480
 913,51; 3086,255;   98,327;22083,547;13,59062
 914,07; 3040,555;   98,728;21907,547;13,48916
 914,63; 3057,055;   76,128;21874,547;13,67497
 915,18; 2987,555;   87,628;21589,648;13,48677
 915,74; 2925,955;   80,927;21587,248;13,22880
 916,30; 2881,055;   59,528;21357,648;13,24778
 916,86; 2873,555;   93,728;21262,648;13,13164
 917,42; 2852,155;  100,228;21321,348;12,96787
 917,97; 2816,855;   77,427;21064,748;13,05277
 918,53; 2774,255;   74,927;20915,447;12,95230
 919,09; 2755,055;   98,728;20860,447;12,79435
 919,65; 2676,555;   85,527;20650,848;12,59901
 920,20; 2622,555;   73,527;20532,748;12,45906
 920,76; 2602,655;   72,027;20320,547;12,49784
 921,32; 2568,155;   82,027;20178,947;12,37069
 921,87; 2543,855;  102,728;19954,348;12,29687
 922,43; 2473,455;   77,027;19849,648;12,11993
 922,99; 2417,955;   67,427;19482,748;12,10656
 923,55; 2394,755;   70,527;19338,047;12,06293
 924,10; 2334,655;   73,027;19189,547;11,83075
 924,66; 2317,755;   87,827;18955,648;11,81868
 925,22; 2233,855;   55,228;18851,248;11,59090
 925,77; 2213,455;   82,128;18536,348;11,54927
 926,33; 2166,855;   95,927;18507,947;11,24769
 926,89; 2121,355;   71,427;18124,148;11,35523
 927,44; 2052,255;   62,327;17937,248;11,13251
 928,00; 2048,955;   71,228;17715,447;11,20893
 928,56; 2005,755;   88,827;17529,648;10,99104
 929,12; 1979,955;   87,728;17383,348;10,94050
 929,67; 1902,355;   69,527;17014,248;10,81651
 930,23; 1830,955;   56,127;16842,248;10,57318
 930,78; 1859,055;  115,628;16704,547;10,50959
 931,34; 1760,855;   72,327;16173,647;10,48689
 931,90; 1717,255;   73,128;15997,647;10,32450
 932,45; 1661,455;   83,427;15594,647;10,17346
 933,01; 1620,755;   64,728;15138,247;10,32292
 933,57; 1562,555;   74,527;14649,048;10,20979
 934,12; 1490,655;   82,628;14015,147;10,10605
 934,68; 1404,755;   64,427;13299,647;10,12698
 935,24; 1317,355;   77,027;12511,147; 9,97519
 935,79; 1263,455;   75,228;11770,247;10,16012
 936,35; 1186,555;  101,827;10989,848; 9,96258
 936,90; 1097,355;   84,427;10143,848;10,06944
 937,46;  982,655;   83,728; 9403,947; 9,64492
 938,02;  920,755;   73,527; 8615,747; 9,91812
 938,57;  855,255;   81,728; 8016,047; 9,74913
 939,13;  812,055;   80,228; 7513,447; 9,84536
 939,68;  724,755;   68,628; 6973,248; 9,50273
 940,24;  710,055;   71,527; 6581,047; 9,80913
 940,79;  719,355;  110,628; 6292,447; 9,84706
 941,35;  669,855;  101,228; 6079,047; 9,51229
 941,91;  653,955;   75,527; 5851,348;10,01464
 942,46;  615,355;   77,128; 5791,947; 9,41810
 943,02;  615,255;   79,927; 5671,348; 9,57409
 943,57;  582,855;   64,427; 5573,547; 9,41035
 944,13;  604,455;   79,027; 5648,147; 9,43466
 944,68;  594,955;   78,027; 5685,248; 9,21896
 945,24;  612,655;   90,427; 5783,147; 9,17360
 945,79;  603,855;   73,027; 5876,147; 9,14728
 946,35;  589,355;   60,627; 5994,447; 8,91041
 946,90;  648,555;  114,927; 6160,147; 8,82726
 947,46;  623,755;   64,927; 6271,248; 9,00417
 948,01;  608,155;   57,827; 6434,447; 8,63040
 948,57;  672,555;  104,827; 6687,547; 8,62451
 949,12;  661,755;   79,827; 6797,248; 8,66296
 949,68;  672,155;  103,327; 7106,647; 8,12226
 950,23;  680,555;   83,527; 7300,047; 8,27307
 950,79;  687,855;   83,327; 7497,748; 8,15340
 951,34;  712,155;  100,927; 7735,248; 8,00631
 951,90;  682,155;   70,527; 7954,848; 7,75752
 952,45;  729,355;   97,628; 8185,147; 7,81114
 953,01;  711,255;   82,628; 8326,348; 7,62553
 953,56;  742,855;   88,228; 8589,947; 7,69994
 954,12;  696,255;   52,028; 8720,447; 7,43189
 954,67;  750,355;   77,327; 8976,247; 7,56302
 955,23;  730,155;   76,927; 9148,048; 7,20118
 955,78;  737,055;   73,927; 9338,348; 7,15779
 956,33;  729,255;   63,728; 9521,548; 7,03680
 956,89;  742,655;   59,928; 9696,848; 7,08450
 957,44;  740,555;   69,628; 9882,348; 6,83732
 958,00;  756,755;   59,428;10075,548; 6,96205
 958,55;  758,555;   61,627;10222,348; 6,85904
 959,10;  748,455;   69,327;10408,747; 6,56833
 959,66;  779,655;   82,527;10609,048; 6,62258
 960,21;  780,355;   81,427;10733,147; 6,56164
 960,77;  768,555;   70,327;10817,147; 6,49706
 961,32;  775,355;   64,728;10986,548; 6,50649
 961,87;  791,555;   88,527;11049,147; 6,41412
 962,43;  781,955;   70,728;11118,048; 6,43801
 962,98;  796,855;   94,327;11290,247; 6,27485
 963,54;  733,155;   47,228;11352,147; 6,06751
 964,09;  774,155;   79,027;11395,348; 6,14270
 964,64;  768,655;   74,527;11550,747; 6,04840
 965,20;  755,255;   60,327;11524,247; 6,06187
 965,75;  784,455;   81,728;11624,447; 6,08806
 966,30;  780,655;   70,827;11653,848; 6,12817
 966,86;  763,855;   78,527;11719,247; 5,88733
 967,41;  789,055;   93,527;11768,048; 5,95765
 967,96;  760,155;   76,728;11864,647; 5,79769
 968,52;  778,055;   93,228;11930,647; 5,78528
 969,07;  754,855;   77,628;11868,348; 5,74373
 969,62;  758,655;   79,527;11967,147; 5,71290
 970,18;  738,855;   75,728;12076,747; 5,52559
 970,73;  735,855;   80,728;12023,048; 5,48576
 971,28;  756,455;   96,327;12036,348; 5,52870
 971,84;  714,855;   77,527;12048,848; 5,32379
 972,39;  747,555;  100,228;12039,548; 5,42181
 972,94;  696,655;   66,228;12109,947; 5,23449
 973,49;  727,255;   96,628;12092,447; 5,25706
 974,05;  712,355;   76,728;12000,747; 5,33065
 974,60;  709,355;   93,228;12070,048; 5,14433
 975,15;  717,455;   88,628;12097,447; 5,23638
 975,71;  682,355;   65,128;11908,548; 5,21156
 976,26;  701,355;   98,927;11977,247; 5,07166
 976,81;  694,155;   91,827;11959,048; 5,07556
 977,36;  688,055;   98,728;11983,247; 4,95878
 977,92;  688,855;   96,527;12038,848; 4,95990
 978,47;  667,955;   81,927;11925,647; 4,94800
 979,02;  649,355;   93,228;11922,548; 4,70126
 979,57;  651,755;   88,427;11895,747; 4,77100
 980,13;  630,255;   83,527;11783,147; 4,67304
 980,68;  623,355;   82,927;11805,147; 4,61028
 981,23;  649,355;   90,527;11802,247; 4,77152
 981,78;  622,655;   92,427;11735,247; 4,55412
 982,33;  630,955;   90,728;11677,848; 4,66231
 982,89;  629,555;   89,927;11703,647; 4,64647
 983,44;  598,355;   83,027;11608,947; 4,47103
 983,99;  627,555;  118,628;11622,647; 4,42391
 984,54;  605,655;   96,128;11457,247; 4,48484
 985,09;  623,355;   93,728;11413,947; 4,67860
 985,65;  576,355;   91,327;11470,747; 4,26232
 986,20;  595,155;  106,927;11419,548; 4,31578
 986,75;  602,655;  108,628;11414,447; 4,36967
 987,30;  582,755;  102,827;11258,348; 4,30215
 987,85;  580,555;   90,228;11246,747; 4,39499
 988,40;  558,955;  108,527;11213,747; 4,05600
 988,96;  565,255;  108,027;11133,947; 4,14684
 989,51;  569,255;  115,427;11038,447; 4,15478
 990,06;  583,255;  138,227;11045,147; 4,08023
 990,61;  553,955;   92,128;10938,348; 4,25796
 991,16;  565,655;  118,927;10940,048; 4,12829
 991,71;  531,255;   92,527;10792,848; 4,10013
 992,26;  537,655;  102,427;10714,848; 4,10111
 992,81;  516,155;  104,728;10660,548; 3,89764
 993,37;  550,555;  137,727;10574,647; 3,95545
 993,92;  541,755;  121,728;10458,048; 4,06361
 994,47;  548,955;  124,628;10466,848; 4,10287
 995,02;  548,555;  137,027;10490,947; 3,97461
 995,57;  506,055;  110,427;10392,848; 3,84761
 996,12;  535,555;  145,727;10300,348; 3,83892
 996,67;  521,455;  129,628;10209,147; 3,88736
 997,22;  501,955;  113,527;10126,947; 3,87907
 997,77;  516,155;  121,527;10148,647; 3,93560
 998,32;  497,055;  111,628;10071,647; 3,86975
 998,87;  518,655;  125,128; 9984,647; 3,99135
 999,42;  495,155;  127,927; 9851,147; 3,77681
 999,97;  474,555;  108,927; 9777,548; 3,78159
1000,53;  510,855;  142,727; 9784,247; 3,81815
1001,08;  468,855;  107,228; 9686,947; 3,77493
1001,63;  504,255;  153,027; 9649,647; 3,69845
1002,18;  433,655;   83,728; 9424,147; 3,74638
1002,73;  490,255;  138,327; 9412,947; 3,79452
1003,28;  451,355;  124,327; 9381,947; 3,53252
1003,83;  457,355;  125,927; 9218,247; 3,64514
1004,38;  485,455;  149,928; 9191,647; 3,71088
1004,93;  452,655;  126,027; 9120,247; 3,63153
1005,48;  422,055;  116,827; 9054,348; 3,41513
1006,03;  438,855;  117,927; 9005,947; 3,61079
1006,58;  454,155;  111,128; 8858,647; 3,92143
1007,13;  398,155;  107,927; 8851,247; 3,31942
1007,68;  423,055;  104,728; 8818,747; 3,65305
1008,23;  436,355;  133,727; 8715,848; 3,52626
1008,78;  431,655;  112,027; 8711,147; 3,71698
1009,33;  433,055;  130,327; 8604,447; 3,57238
1009,88;  407,155;   88,228; 8605,447; 3,74450
1010,43;  402,155;  124,228; 8525,848; 3,30802
1010,98;  393,055;   99,827; 8492,447; 3,49387
1011,52;  396,155;   95,827; 8398,447; 3,61726
1012,07;  436,055;  150,327; 8388,247; 3,46844
1012,62;  390,955;  104,628; 8320,747; 3,48495
1013,17;  373,055;  113,128; 8276,947; 3,18390
1013,72;  377,255;   95,728; 8223,848; 3,46362
1014,27;  392,555;  121,228; 8163,047; 3,37396
1014,82;  366,555;   95,728; 7981,147; 3,43453
1015,37;  361,255;   94,128; 7887,848; 3,42747
1015,92;  365,455;  118,427; 7731,447; 3,24480
1016,47;  346,555;  102,628; 7596,447; 3,25505
1017,02;  327,455;   93,128; 7494,047; 3,16619
1017,57;  342,055;  112,527; 7367,248; 3,16384
1018,11;  331,555;   99,827; 7284,647; 3,22524
1018,66;  358,855;  130,928; 7236,947; 3,20753
1019,21;  351,455;  112,327; 7082,447; 3,43075
1019,76;  317,755;   93,628; 6976,348; 3,25638
1020,31;  313,155;   98,827; 6900,348; 3,15117
1020,86;  315,255;   93,927; 6846,248; 3,27780
1021,41;  304,755;   94,827; 6743,047; 3,15765
1021,96;  324,155;  104,128; 6702,147; 3,33475
1022,50;  338,255;  133,027; 6633,047; 3,15734
1023,05;  306,755;  100,128; 6498,748; 3,22925
1023,60;  305,955;  102,628; 6447,947; 3,20437
1024,15;  295,255;   86,927; 6297,348; 3,35448
1024,70;  310,255;  117,427; 6274,447; 3,13183
1025,25;  298,055;   97,728; 6228,447; 3,26760
1025,79;  301,555;  122,228; 6171,147; 2,96462
1026,34;  308,355;  101,427; 6090,447; 3,45511
1026,89;  312,055;  114,827; 6060,147; 3,31736
1027,44;  284,155;  104,827; 5966,348; 3,05940
1027,99;  285,455;  103,027; 5876,547; 3,15973
1028,53;  275,755;   96,728; 5813,647; 3,13154
1029,08;  299,955;  116,628; 5784,147; 3,23470
1029,63;  293,755;  115,327; 5690,348; 3,20048
1030,18;  282,355;  103,027; 5656,147; 3,22931
1030,73;  275,555;   96,027; 5543,647; 3,29552
1031,27;  270,555;   96,027; 5490,147; 3,23551
1031,82;  260,555;   88,827; 5398,447; 3,23427
1032,37;  260,655;  108,527; 5371,147; 2,89072
1032,92;  270,555;  115,827; 5293,348; 2,98845
1033,46;  267,555;  100,228; 5164,647; 3,30398
1034,01;  248,155;   93,927; 5108,748; 3,07543
1034,56;  261,755;  117,728; 5101,348; 2,89002
1035,11;  270,555;  107,128; 5004,248; 3,33722
1035,65;  248,355;  101,527; 4981,547; 3,00875
1036,20;  259,355;   92,927; 4950,047; 3,42647
1036,75;  265,655;  122,728; 4905,848; 2,98816
1037,29;  245,055;  103,927; 4828,647; 2,98700
1037,84;  235,055;   94,527; 4709,147; 3,04527
1038,39;  237,455;  103,827; 4639,547; 2,94611
1038,94;  222,755;   75,728; 4562,848; 3,27666
1039,48;  246,955;   96,628; 4571,947; 3,35903
1040,03;  247,655;  112,427; 4492,248; 3,08751
1040,58;  236,655;   98,128; 4393,447; 3,22508
1041,12;  239,955;  107,827; 4359,547; 3,10762
1041,67;  225,655;  109,128; 4320,947; 2,76668
1042,22;  248,555;  120,527; 4276,447; 3,08061
1042,76;  222,555;   99,827; 4151,447; 3,02910
1043,31;  242,555;  110,728; 4086,548; 3,31573
1043,86;  238,555;  114,628; 4037,647; 3,15898
1044,40;  235,255;  110,327; 4005,847; 3,20695
1044,95;  229,755;  115,228; 3962,147; 2,97712
1045,50;  203,155;   84,628; 3881,548; 3,12167
1046,04;  227,255;  120,628; 3843,548; 2,86408
1046,59;  214,555;   97,927; 3796,548; 3,15327
1047,13;  223,155;  126,128; 3766,347; 2,66543
1047,68;  227,555;  119,427; 3689,948; 3,02834
1048,23;  228,555;  123,228; 3670,847; 2,96896
1048,77;  211,055;  105,628; 3606,948; 3,01108
1049,32;  215,455;  108,228; 3568,048; 3,09922
1049,86;  214,055;   99,027; 3502,847; 3,37936
1050,41;  183,955;   91,527; 3451,248; 2,75105
1050,96;  211,055;  113,628; 3423,347; 2,94368
1051,50;  207,455;  104,927; 3366,948; 3,14307
1052,05;  217,355;  119,427; 3347,448; 3,03367
1052,59;  209,855;   99,827; 3256,748; 3,48528
1053,14;  190,555;   95,427; 3219,948; 3,04455
1053,69;  204,355;  104,128; 3185,448; 3,25275
1054,23;  209,455;  118,427; 3134,748; 3,01783
1054,78;  206,755;  114,628; 3053,847; 3,13442
1055,32;  209,455;  130,027; 3055,548; 2,71499
1055,87;  169,555;   86,128; 2966,347; 2,89657
1056,41;  173,055;   96,128; 2919,548; 2,72462
1056,96;  185,355;  107,728; 2911,948; 2,76824
1057,50;  208,755;  124,427; 2892,048; 3,04693
1058,05;  181,955;   76,527; 2784,248; 3,89359
1058,59;  201,155;  112,128; 2788,548; 3,32636
1059,14;  191,955;  117,527; 2774,748; 2,80095
1059,68;  158,055;   85,827; 2677,147; 2,78729
1060,23;  210,555;  130,928; 2707,448; 3,09051
1060,77;  192,055;  112,728; 2641,347; 3,13719
1061,32;  197,655;  122,628; 2596,847; 3,03237
1061,86;  190,655;  115,827; 2570,748; 3,04806
1062,41;  185,055;  106,128; 2522,048; 3,26697
1062,95;  186,755;  101,628; 2446,048; 3,63107
1063,50;  197,755;  119,927; 2427,847; 3,37219
1064,04;  175,155;  101,128; 2392,548; 3,23064
1064,59;  197,355;  124,427; 2369,948; 3,24769
1065,13;  180,455;  122,327; 2316,948; 2,64864
1065,68;  175,555;  125,128; 2272,948; 2,34785
1066,22;  183,755;  117,427; 2267,748; 3,08454
1066,76;  201,755;  137,027; 2243,448; 3,07287
1067,31;  169,255;  105,927; 2185,248; 3,04559
1067,85;  166,055;  102,728; 2165,948; 3,06935
1068,40;  178,255;  117,927; 2147,847; 2,97192
1068,94;  173,455;  102,327; 2097,548; 3,56490
1069,49;  166,155;  100,128; 2098,048; 3,30481
1070,03;  167,655;  102,628; 2031,848; 3,37066
1070,57;  157,155;  100,427; 2008,147; 2,97358
1071,12;  139,955;   90,327; 1958,448; 2,65655
1071,66;  193,255;  145,327; 2002,448; 2,58074
1072,21;  178,355;  124,427; 1952,047; 2,95070
1072,75;  176,655;  112,427; 1928,547; 3,53652
1073,29;  150,555;   92,427; 1865,047; 3,27919
1073,84;  166,055;  107,728; 1884,848; 3,28214
1074,38;  159,355;  104,427; 1862,448; 3,12440
1074,92;  172,455;  121,027; 1845,547; 2,98213
1075,47;  171,255;  134,327; 1822,448; 2,18749
1076,01;  191,655;  137,628; 1818,647; 3,21397
1076,56;  155,555;  102,027; 1735,848; 3,27622
1077,10;  144,055;   87,628; 1681,248; 3,54084
1077,64;  159,155;   99,628; 1726,147; 3,65981
1078,19;  183,355;  129,628; 1703,948; 3,41274
1078,73;  164,655;  123,527; 1661,248; 2,67458
1079,27;  190,455;  128,227; 1683,848; 4,00017
1079,81;  183,055;  136,727; 1662,547; 3,03624
1080,36;  170,255;  113,327; 1624,547; 3,76699
1080,90;  152,755;  107,228; 1608,848; 3,03189
1081,44;  135,655;  103,027; 1572,647; 2,22013
1081,99;  127,755;   81,728; 1551,748; 3,13108
1082,53;  159,455;  125,527; 1540,147; 2,39835
1083,07;  149,955;  122,827; 1522,147; 1,93862
1083,62;  161,355;  121,128; 1502,948; 2,91120
1084,16;  148,755;  112,228; 1487,248; 2,65651
1084,70;  160,055;  121,327; 1481,848; 2,84652
1085,24;  167,255;  117,527; 1450,948; 3,72932
1085,79;  166,855;  109,728; 1423,147; 4,34952
1086,33;  141,455;  100,628; 1400,047; 3,14198
1086,87;  158,655;  122,228; 1391,448; 2,87007
1087,41;  143,755;  106,827; 1360,547; 2,94543
1087,96;  170,655;  131,827; 1364,748; 3,14923
1088,50;  154,455;  102,628; 1345,848; 4,16881
1089,04;  168,355;  138,727; 1334,147; 2,47842
1089,58;  137,855;   93,427; 1286,848; 3,72270
1090,13;  148,955;  113,628; 1273,848; 3,04490
1090,67;  150,355;  114,728; 1274,948; 3,07075
1091,21;  146,455;  111,228; 1250,848; 3,09116
1091,75;  154,655;  112,327; 1235,948; 3,76707
1092,29;  156,755;  121,427; 1240,647; 3,15644
1092,84;  144,655;  104,628; 1213,147; 3,61090
1093,38;  168,555;  134,128; 1226,448; 3,15178
1093,92;  155,055;  128,027; 1210,748; 2,49626
1094,46;  159,655;  128,527; 1207,248; 2,88560
1095,00;  144,255;  110,228; 1150,448; 3,27118
1095,54;  138,155;   92,027; 1139,547; 4,40350
1096,09;  152,455;  113,128; 1144,047; 3,81480
1096,63;  147,855;  130,527; 1128,647; 1,73601
1097,17;  138,255;  109,427; 1108,147; 2,88645
1097,71;  167,655;  126,128; 1099,248; 4,26746
1098,25;  144,755;   97,927; 1059,547; 4,86965
1098,79;  151,355;  124,728; 1078,647; 2,79138
1099,33;  155,655;  117,728; 1040,147; 4,11174
1099,88;  150,955;  118,628; 1035,848; 3,52451
1100,42;  129,355;  103,628; 1000,747; 2,86779

