PE UV       SUBTECH     SPECTRUM    ASCII       PEDS        4.00        
   -1
ANGSOL0017-3.Sample.ASC
24/03/07
15:53:40.00
24/03/07
15:53:40.00
Vinicio Soto Monge
Chrysina kalinini. Costa Rica, Los Gigantes del Bosque, Altamira. 1400 m, 4-May-2022. A. Solis. 9.03075 -83.00953 . ASolis003117.
250,000000
1
Lambda 1050
1050L1511233
PerkinElmer UV WinLab 6.3.2.0749 / 2.02.05 Lambda 900 UV/VIS/NIR, Aug  7 2015 09:38:08

0
0
3350/servo 860,8/2
0
0
UV/VIS
1
1
1
DoubleDePol,CommonBeamDepol,RBeamAtt,SBeamAtt,60mm sphere, WB InGaAs Detector
0
0
0
0
Program
Program
3350/servo 860,8/2
3350/0,2 860,8/0,2
3350/0,2 860,8/0,2
0
15.00
 
 
 
0
 
860,8
319,2
860,8
Front
100
on
S:100 R:100
0
0
0
0
 
0
 
 
 
0
 
 
0
0
0
0
0
 
 
 
 
0
0


0
0
#HDR
-1
-1
#GR
nm
%R
1.0
0.0
2500,000000
-1,000000
2251
8
21,665100
1,799700
#DATA
250.000000	nan
251.000000	nan
252.000000	nan
253.000000	nan
254.000000	nan
255.000000	nan
256.000000	nan
257.000000	nan
258.000000	nan
259.000000	nan
260.000000	nan
261.000000	nan
262.000000	nan
263.000000	nan
264.000000	nan
265.000000	nan
266.000000	nan
267.000000	nan
268.000000	nan
269.000000	nan
270.000000	nan
271.000000	nan
272.000000	nan
273.000000	nan
274.000000	nan
275.000000	nan
276.000000	nan
277.000000	nan
278.000000	nan
279.000000	nan
280.000000	nan
281.000000	nan
282.000000	nan
283.000000	nan
284.000000	2.017678
285.000000	2.013371
286.000000	2.008876
287.000000	2.004158
288.000000	1.999510
289.000000	1.996207
290.000000	1.992243
291.000000	1.988501
292.000000	1.985094
293.000000	1.980736
294.000000	1.976878
295.000000	1.973063
296.000000	1.970116
297.000000	1.966639
298.000000	1.963100
299.000000	1.959739
300.000000	1.957250
301.000000	1.954409
302.000000	1.950966
303.000000	1.949310
304.000000	1.947099
305.000000	1.944444
306.000000	1.942677
307.000000	1.941624
308.000000	1.940117
309.000000	1.938454
310.000000	1.936347
311.000000	1.934165
312.000000	1.933313
313.000000	1.931811
314.000000	1.929242
315.000000	1.928454
316.000000	1.928535
317.000000	1.939252
318.000000	1.947023
319.000000	1.956503
320.000000	1.965715
321.000000	1.978784
322.000000	1.988409
323.000000	1.994626
324.000000	2.002844
325.000000	2.008386
326.000000	2.015035
327.000000	2.020997
328.000000	2.025538
329.000000	2.029679
330.000000	2.036839
331.000000	2.038994
332.000000	2.041170
333.000000	2.042973
334.000000	2.046099
335.000000	2.046405
336.000000	2.051948
337.000000	2.056420
338.000000	2.057753
339.000000	2.058855
340.000000	2.061847
341.000000	2.064486
342.000000	2.066000
343.000000	2.068055
344.000000	2.069939
345.000000	2.073019
346.000000	2.076447
347.000000	2.079174
348.000000	2.080046
349.000000	2.081581
350.000000	2.083029
351.000000	2.083966
352.000000	2.075420
353.000000	2.069674
354.000000	2.061379
355.000000	2.053897
356.000000	2.042677
357.000000	2.035452
358.000000	2.031235
359.000000	2.024307
360.000000	2.021465
361.000000	2.017173
362.000000	2.012792
363.000000	2.010004
364.000000	2.008715
365.000000	2.003772
366.000000	2.003402
367.000000	2.002584
368.000000	2.002443
369.000000	2.000967
370.000000	2.001545
371.000000	1.997972
372.000000	1.996473
373.000000	1.995991
374.000000	1.994731
375.000000	1.995801
376.000000	1.999921
377.000000	1.998965
378.000000	1.998675
379.000000	1.999070
380.000000	1.999015
381.000000	1.999871
382.000000	2.001829
383.000000	2.006467
384.000000	2.011822
385.000000	2.018269
386.000000	2.025235
387.000000	2.032845
388.000000	2.041335
389.000000	2.052194
390.000000	2.064172
391.000000	2.078046
392.000000	2.092673
393.000000	2.109189
394.000000	2.128071
395.000000	2.148152
396.000000	2.170205
397.000000	2.194781
398.000000	2.221680
399.000000	2.249083
400.000000	2.279253
401.000000	2.311899
402.000000	2.347306
403.000000	2.384589
404.000000	2.424604
405.000000	2.466577
406.000000	2.510300
407.000000	2.556668
408.000000	2.605868
409.000000	2.658832
410.000000	2.710434
411.000000	2.761308
412.000000	2.820048
413.000000	2.880394
414.000000	2.942175
415.000000	3.005400
416.000000	3.069908
417.000000	3.135251
418.000000	3.201445
419.000000	3.268477
420.000000	3.336283
421.000000	3.404386
422.000000	3.473018
423.000000	3.542262
424.000000	3.611667
425.000000	3.681167
426.000000	3.750537
427.000000	3.819570
428.000000	3.888230
429.000000	3.956349
430.000000	4.023567
431.000000	4.089974
432.000000	4.155691
433.000000	4.219992
434.000000	4.283178
435.000000	4.345338
436.000000	4.405996
437.000000	4.465400
438.000000	4.523231
439.000000	4.579427
440.000000	4.634170
441.000000	4.687337
442.000000	4.738814
443.000000	4.788352
444.000000	4.836197
445.000000	4.882836
446.000000	4.927881
447.000000	4.971181
448.000000	5.012767
449.000000	5.052598
450.000000	5.091109
451.000000	5.128079
452.000000	5.163541
453.000000	5.197909
454.000000	5.231052
455.000000	5.263134
456.000000	5.294096
457.000000	5.323872
458.000000	5.352956
459.000000	5.381389
460.000000	5.409120
461.000000	5.436540
462.000000	5.464017
463.000000	5.491645
464.000000	5.519540
465.000000	5.547995
466.000000	5.576838
467.000000	5.606159
468.000000	5.636346
469.000000	5.667277
470.000000	5.698938
471.000000	5.731595
472.000000	5.765169
473.000000	5.799462
474.000000	5.834856
475.000000	5.871351
476.000000	5.908470
477.000000	5.946313
478.000000	5.985493
479.000000	6.025942
480.000000	6.066838
481.000000	6.107830
482.000000	6.149286
483.000000	6.191884
484.000000	6.236177
485.000000	6.281843
486.000000	6.328989
487.000000	6.378103
488.000000	6.429131
489.000000	6.482274
490.000000	6.537384
491.000000	6.594861
492.000000	6.654961
493.000000	6.717609
494.000000	6.782873
495.000000	6.850860
496.000000	6.921618
497.000000	6.995217
498.000000	7.071775
499.000000	7.151250
500.000000	7.233823
501.000000	7.319887
502.000000	7.409291
503.000000	7.502035
504.000000	7.598466
505.000000	7.698453
506.000000	7.801726
507.000000	7.908469
508.000000	8.019007
509.000000	8.133388
510.000000	8.251614
511.000000	8.373806
512.000000	8.500092
513.000000	8.630152
514.000000	8.764071
515.000000	8.902397
516.000000	9.045381
517.000000	9.192822
518.000000	9.344151
519.000000	9.498842
520.000000	9.656964
521.000000	9.818552
522.000000	9.983355
523.000000	10.151041
524.000000	10.321418
525.000000	10.494452
526.000000	10.669535
527.000000	10.846427
528.000000	11.024668
529.000000	11.204283
530.000000	11.385201
531.000000	11.567047
532.000000	11.749500
533.000000	11.932313
534.000000	12.115308
535.000000	12.298155
536.000000	12.480400
537.000000	12.661728
538.000000	12.841849
539.000000	13.020111
540.000000	13.196668
541.000000	13.371682
542.000000	13.544617
543.000000	13.715600
544.000000	13.883896
545.000000	14.048970
546.000000	14.210880
547.000000	14.369625
548.000000	14.525392
549.000000	14.678138
550.000000	14.827133
551.000000	14.972325
552.000000	15.113939
553.000000	15.251780
554.000000	15.385757
555.000000	15.515163
556.000000	15.640329
557.000000	15.761086
558.000000	15.877728
559.000000	15.989801
560.000000	16.084152
561.000000	16.172946
562.000000	16.256934
563.000000	16.336175
564.000000	16.410324
565.000000	16.479291
566.000000	16.543218
567.000000	16.601996
568.000000	16.654973
569.000000	16.702767
570.000000	16.745425
571.000000	16.782809
572.000000	16.814866
573.000000	16.841716
574.000000	16.863564
575.000000	16.880126
576.000000	16.891277
577.000000	16.897389
578.000000	16.897974
579.000000	16.893900
580.000000	16.885281
581.000000	16.872519
582.000000	16.854975
583.000000	16.832743
584.000000	16.805853
585.000000	16.774020
586.000000	16.737579
587.000000	16.696474
588.000000	16.650472
589.000000	16.599778
590.000000	16.545015
591.000000	16.485507
592.000000	16.421370
593.000000	16.352502
594.000000	16.279461
595.000000	16.214788
596.000000	16.147604
597.000000	16.075996
598.000000	16.000612
599.000000	15.921963
600.000000	15.839931
601.000000	15.754803
602.000000	15.666765
603.000000	15.576872
604.000000	15.484872
605.000000	15.391078
606.000000	15.295746
607.000000	15.200443
608.000000	15.105338
609.000000	15.010485
610.000000	14.917050
611.000000	14.825776
612.000000	14.736830
613.000000	14.651178
614.000000	14.568620
615.000000	14.489694
616.000000	14.414287
617.000000	14.343398
618.000000	14.276980
619.000000	14.214870
620.000000	14.158045
621.000000	14.106299
622.000000	14.059140
623.000000	14.017338
624.000000	13.980756
625.000000	13.949161
626.000000	13.922560
627.000000	13.900716
628.000000	13.883165
629.000000	13.869572
630.000000	13.860986
631.000000	13.855955
632.000000	13.855908
633.000000	13.859792
634.000000	13.867380
635.000000	13.878536
636.000000	13.893186
637.000000	13.911074
638.000000	13.932017
639.000000	13.955631
640.000000	13.981802
641.000000	14.010444
642.000000	14.040652
643.000000	14.072321
644.000000	14.105918
645.000000	14.140180
646.000000	14.175066
647.000000	14.210272
648.000000	14.245236
649.000000	14.279640
650.000000	14.313709
651.000000	14.347372
652.000000	14.380030
653.000000	14.411927
654.000000	14.442101
655.000000	14.470920
656.000000	14.498457
657.000000	14.525378
658.000000	14.551118
659.000000	14.575256
660.000000	14.598507
661.000000	14.621052
662.000000	14.642749
663.000000	14.664370
664.000000	14.686090
665.000000	14.707560
666.000000	14.729198
667.000000	14.750668
668.000000	14.772784
669.000000	14.795002
670.000000	14.817801
671.000000	14.841243
672.000000	14.865609
673.000000	14.891275
674.000000	14.918295
675.000000	14.946344
676.000000	14.975488
677.000000	15.005737
678.000000	15.037452
679.000000	15.070542
680.000000	15.104934
681.000000	15.140414
682.000000	15.177892
683.000000	15.217101
684.000000	15.258215
685.000000	15.301445
686.000000	15.346634
687.000000	15.393675
688.000000	15.442900
689.000000	15.494877
690.000000	15.549434
691.000000	15.606439
692.000000	15.666112
693.000000	15.728409
694.000000	15.793726
695.000000	15.861755
696.000000	15.932161
697.000000	16.005195
698.000000	16.080534
699.000000	16.157860
700.000000	16.237114
701.000000	16.318294
702.000000	16.401597
703.000000	16.486557
704.000000	16.573634
705.000000	16.661948
706.000000	16.751343
707.000000	16.841773
708.000000	16.932325
709.000000	17.023595
710.000000	17.115085
711.000000	17.206727
712.000000	17.298371
713.000000	17.389557
714.000000	17.479824
715.000000	17.569850
716.000000	17.659063
717.000000	17.746293
718.000000	17.831492
719.000000	17.915001
720.000000	17.996385
721.000000	18.075722
722.000000	18.153257
723.000000	18.228592
724.000000	18.301548
725.000000	18.372292
726.000000	18.441500
727.000000	18.508267
728.000000	18.573005
729.000000	18.635786
730.000000	18.696553
731.000000	18.755868
732.000000	18.813487
733.000000	18.869886
734.000000	18.925778
735.000000	18.981105
736.000000	19.036272
737.000000	19.090707
738.000000	19.144542
739.000000	19.197813
740.000000	19.251436
741.000000	19.305943
742.000000	19.361134
743.000000	19.417048
744.000000	19.473415
745.000000	19.530756
746.000000	19.589156
747.000000	19.648459
748.000000	19.707728
749.000000	19.767189
750.000000	19.827506
751.000000	19.888636
752.000000	19.950452
753.000000	20.013127
754.000000	20.076723
755.000000	20.140894
756.000000	20.205038
757.000000	20.269041
758.000000	20.332248
759.000000	20.396030
760.000000	20.459746
761.000000	20.522910
762.000000	20.585456
763.000000	20.647010
764.000000	20.707579
765.000000	20.766447
766.000000	20.824692
767.000000	20.882006
768.000000	20.937587
769.000000	20.991534
770.000000	21.043784
771.000000	21.093544
772.000000	21.142398
773.000000	21.190380
774.000000	21.236644
775.000000	21.281165
776.000000	21.322828
777.000000	21.362306
778.000000	21.400044
779.000000	21.435852
780.000000	21.469439
781.000000	21.501393
782.000000	21.531567
783.000000	21.560849
784.000000	21.589515
785.000000	21.616161
786.000000	21.640808
787.000000	21.664089
788.000000	21.686318
789.000000	21.708463
790.000000	21.729494
791.000000	21.748525
792.000000	21.766475
793.000000	21.784818
794.000000	21.800920
795.000000	21.815991
796.000000	21.830840
797.000000	21.844516
798.000000	21.857292
799.000000	21.869501
800.000000	21.881718
801.000000	21.893442
802.000000	21.903972
803.000000	21.912911
804.000000	21.920622
805.000000	21.928857
806.000000	21.937304
807.000000	21.944192
808.000000	21.950210
809.000000	21.955399
810.000000	21.960613
811.000000	21.965204
812.000000	21.968807
813.000000	21.970782
814.000000	21.971402
815.000000	21.972186
816.000000	21.971416
817.000000	21.969305
818.000000	21.965743
819.000000	21.961379
820.000000	21.956526
821.000000	21.949935
822.000000	21.942013
823.000000	21.934825
824.000000	21.925687
825.000000	21.913613
826.000000	21.902361
827.000000	21.890752
828.000000	21.875295
829.000000	21.859755
830.000000	21.841456
831.000000	21.821527
832.000000	21.801101
833.000000	21.779624
834.000000	21.755059
835.000000	21.728811
836.000000	21.703361
837.000000	21.676258
838.000000	21.647571
839.000000	21.617416
840.000000	21.586969
841.000000	21.553680
842.000000	21.517883
843.000000	21.482145
844.000000	21.444084
845.000000	21.401934
846.000000	21.362532
847.000000	21.319318
848.000000	21.277823
849.000000	21.238225
850.000000	21.192107
851.000000	21.142004
852.000000	21.092867
853.000000	21.041296
854.000000	20.988955
855.000000	20.930387
856.000000	20.870306
857.000000	20.817961
858.000000	20.796299
859.000000	20.755556
860.000000	20.717155
861.000000	20.677922
862.000000	20.638285
863.000000	20.600502
864.000000	20.562364
865.000000	20.525767
866.000000	20.488360
867.000000	20.450675
868.000000	20.413103
869.000000	20.377206
870.000000	20.342012
871.000000	20.304377
872.000000	20.267680
873.000000	20.233311
874.000000	20.200098
875.000000	20.165294
876.000000	20.132048
877.000000	20.100805
878.000000	20.069129
879.000000	20.039586
880.000000	20.013395
881.000000	19.984374
882.000000	19.959470
883.000000	19.933437
884.000000	19.905703
885.000000	19.884421
886.000000	19.867330
887.000000	19.849842
888.000000	19.835341
889.000000	19.821240
890.000000	19.813273
891.000000	19.808232
892.000000	19.797676
893.000000	19.755313
894.000000	19.732519
895.000000	19.710039
896.000000	19.688446
897.000000	19.667787
898.000000	19.647940
899.000000	19.629610
900.000000	19.612728
901.000000	19.597566
902.000000	19.583666
903.000000	19.571661
904.000000	19.562066
905.000000	19.553907
906.000000	19.547583
907.000000	19.542312
908.000000	19.538516
909.000000	19.536120
910.000000	19.534484
911.000000	19.534526
912.000000	19.535788
913.000000	19.537460
914.000000	19.540306
915.000000	19.543528
916.000000	19.547798
917.000000	19.552669
918.000000	19.558198
919.000000	19.564464
920.000000	19.569402
921.000000	19.574863
922.000000	19.580718
923.000000	19.587041
924.000000	19.593872
925.000000	19.600718
926.000000	19.606956
927.000000	19.611695
928.000000	19.616051
929.000000	19.619930
930.000000	19.622123
931.000000	19.623994
932.000000	19.625955
933.000000	19.627125
934.000000	19.627565
935.000000	19.627692
936.000000	19.627110
937.000000	19.625797
938.000000	19.623553
939.000000	19.619886
940.000000	19.615167
941.000000	19.608393
942.000000	19.601226
943.000000	19.593483
944.000000	19.584357
945.000000	19.575403
946.000000	19.565719
947.000000	19.555522
948.000000	19.544842
949.000000	19.533596
950.000000	19.522163
951.000000	19.510778
952.000000	19.498743
953.000000	19.486236
954.000000	19.473209
955.000000	19.461275
956.000000	19.449196
957.000000	19.436272
958.000000	19.423459
959.000000	19.410624
960.000000	19.398000
961.000000	19.385627
962.000000	19.373347
963.000000	19.361209
964.000000	19.348575
965.000000	19.337355
966.000000	19.326001
967.000000	19.313733
968.000000	19.302117
969.000000	19.290321
970.000000	19.278024
971.000000	19.265566
972.000000	19.252911
973.000000	19.240196
974.000000	19.227643
975.000000	19.214986
976.000000	19.203052
977.000000	19.191790
978.000000	19.179857
979.000000	19.168570
980.000000	19.156738
981.000000	19.144712
982.000000	19.132588
983.000000	19.120568
984.000000	19.108197
985.000000	19.095691
986.000000	19.082532
987.000000	19.069233
988.000000	19.055981
989.000000	19.042974
990.000000	19.029530
991.000000	19.016073
992.000000	19.003150
993.000000	18.989840
994.000000	18.976000
995.000000	18.961692
996.000000	18.947907
997.000000	18.934758
998.000000	18.921618
999.000000	18.908770
1000.000000	18.895545
1001.000000	18.882503
1002.000000	18.869914
1003.000000	18.857428
1004.000000	18.845170
1005.000000	18.832829
1006.000000	18.820921
1007.000000	18.809911
1008.000000	18.799033
1009.000000	18.788043
1010.000000	18.777649
1011.000000	18.767444
1012.000000	18.756810
1013.000000	18.746797
1014.000000	18.736970
1015.000000	18.727907
1016.000000	18.719213
1017.000000	18.710632
1018.000000	18.702034
1019.000000	18.693966
1020.000000	18.686321
1021.000000	18.679299
1022.000000	18.672743
1023.000000	18.666641
1024.000000	18.660850
1025.000000	18.655553
1026.000000	18.650921
1027.000000	18.646629
1028.000000	18.642663
1029.000000	18.639321
1030.000000	18.637001
1031.000000	18.635137
1032.000000	18.633230
1033.000000	18.631690
1034.000000	18.630481
1035.000000	18.629692
1036.000000	18.629581
1037.000000	18.630113
1038.000000	18.630838
1039.000000	18.632001
1040.000000	18.633793
1041.000000	18.636303
1042.000000	18.639105
1043.000000	18.642377
1044.000000	18.646137
1045.000000	18.650147
1046.000000	18.654951
1047.000000	18.660589
1048.000000	18.666531
1049.000000	18.672839
1050.000000	18.679064
1051.000000	18.686025
1052.000000	18.693709
1053.000000	18.701826
1054.000000	18.710443
1055.000000	18.719426
1056.000000	18.728650
1057.000000	18.738419
1058.000000	18.748422
1059.000000	18.758881
1060.000000	18.770083
1061.000000	18.781286
1062.000000	18.793042
1063.000000	18.805162
1064.000000	18.817684
1065.000000	18.830481
1066.000000	18.843615
1067.000000	18.857178
1068.000000	18.871090
1069.000000	18.885540
1070.000000	18.900757
1071.000000	18.916300
1072.000000	18.931856
1073.000000	18.948055
1074.000000	18.964629
1075.000000	18.981554
1076.000000	18.998617
1077.000000	19.015632
1078.000000	19.032884
1079.000000	19.050756
1080.000000	19.069235
1081.000000	19.087638
1082.000000	19.106077
1083.000000	19.124437
1084.000000	19.143097
1085.000000	19.162559
1086.000000	19.181870
1087.000000	19.200745
1088.000000	19.219677
1089.000000	19.238573
1090.000000	19.257523
1091.000000	19.276436
1092.000000	19.295435
1093.000000	19.314208
1094.000000	19.332999
1095.000000	19.351435
1096.000000	19.369710
1097.000000	19.387582
1098.000000	19.405473
1099.000000	19.423079
1100.000000	19.440395
1101.000000	19.457486
1102.000000	19.474310
1103.000000	19.491116
1104.000000	19.507367
1105.000000	19.523081
1106.000000	19.538369
1107.000000	19.553223
1108.000000	19.567781
1109.000000	19.582223
1110.000000	19.596261
1111.000000	19.610025
1112.000000	19.623470
1113.000000	19.636544
1114.000000	19.649021
1115.000000	19.660815
1116.000000	19.672588
1117.000000	19.684028
1118.000000	19.695323
1119.000000	19.706481
1120.000000	19.716362
1121.000000	19.725840
1122.000000	19.735684
1123.000000	19.745340
1124.000000	19.754490
1125.000000	19.762776
1126.000000	19.770076
1127.000000	19.776347
1128.000000	19.782291
1129.000000	19.787556
1130.000000	19.791985
1131.000000	19.795101
1132.000000	19.797041
1133.000000	19.797676
1134.000000	19.797771
1135.000000	19.797691
1136.000000	19.797597
1137.000000	19.795372
1138.000000	19.791653
1139.000000	19.786767
1140.000000	19.781303
1141.000000	19.775205
1142.000000	19.768140
1143.000000	19.760320
1144.000000	19.751882
1145.000000	19.742883
1146.000000	19.733558
1147.000000	19.724266
1148.000000	19.713994
1149.000000	19.703122
1150.000000	19.691678
1151.000000	19.679544
1152.000000	19.666851
1153.000000	19.653459
1154.000000	19.638810
1155.000000	19.623591
1156.000000	19.607485
1157.000000	19.589881
1158.000000	19.571350
1159.000000	19.551278
1160.000000	19.530469
1161.000000	19.508883
1162.000000	19.486023
1163.000000	19.462293
1164.000000	19.436716
1165.000000	19.410441
1166.000000	19.383826
1167.000000	19.356554
1168.000000	19.329642
1169.000000	19.301948
1170.000000	19.273002
1171.000000	19.242982
1172.000000	19.214325
1173.000000	19.185743
1174.000000	19.157984
1175.000000	19.129868
1176.000000	19.101892
1177.000000	19.074150
1178.000000	19.046326
1179.000000	19.018752
1180.000000	18.990638
1181.000000	18.962435
1182.000000	18.933854
1183.000000	18.905692
1184.000000	18.877988
1185.000000	18.850846
1186.000000	18.823961
1187.000000	18.797590
1188.000000	18.771435
1189.000000	18.746394
1190.000000	18.723050
1191.000000	18.700940
1192.000000	18.680730
1193.000000	18.661570
1194.000000	18.644826
1195.000000	18.629755
1196.000000	18.617050
1197.000000	18.606814
1198.000000	18.598107
1199.000000	18.591805
1200.000000	18.586908
1201.000000	18.583727
1202.000000	18.582732
1203.000000	18.582800
1204.000000	18.584453
1205.000000	18.587797
1206.000000	18.592370
1207.000000	18.598028
1208.000000	18.604968
1209.000000	18.613010
1210.000000	18.622504
1211.000000	18.632442
1212.000000	18.643490
1213.000000	18.655857
1214.000000	18.669014
1215.000000	18.683562
1216.000000	18.698641
1217.000000	18.714040
1218.000000	18.730448
1219.000000	18.747296
1220.000000	18.764953
1221.000000	18.782846
1222.000000	18.801189
1223.000000	18.819995
1224.000000	18.838778
1225.000000	18.857408
1226.000000	18.875818
1227.000000	18.893667
1228.000000	18.911750
1229.000000	18.929135
1230.000000	18.946423
1231.000000	18.962760
1232.000000	18.978440
1233.000000	18.993779
1234.000000	19.008908
1235.000000	19.024205
1236.000000	19.039054
1237.000000	19.053472
1238.000000	19.067368
1239.000000	19.081192
1240.000000	19.094910
1241.000000	19.108597
1242.000000	19.122234
1243.000000	19.135696
1244.000000	19.148960
1245.000000	19.162454
1246.000000	19.176403
1247.000000	19.190239
1248.000000	19.203656
1249.000000	19.216902
1250.000000	19.230344
1251.000000	19.243901
1252.000000	19.258233
1253.000000	19.272381
1254.000000	19.286308
1255.000000	19.300032
1256.000000	19.314079
1257.000000	19.327863
1258.000000	19.341764
1259.000000	19.355610
1260.000000	19.369066
1261.000000	19.382395
1262.000000	19.395433
1263.000000	19.408081
1264.000000	19.420810
1265.000000	19.432927
1266.000000	19.444983
1267.000000	19.457050
1268.000000	19.469038
1269.000000	19.480610
1270.000000	19.491648
1271.000000	19.502774
1272.000000	19.513409
1273.000000	19.524029
1274.000000	19.534070
1275.000000	19.543512
1276.000000	19.552470
1277.000000	19.560760
1278.000000	19.568960
1279.000000	19.576980
1280.000000	19.584304
1281.000000	19.591262
1282.000000	19.598129
1283.000000	19.604592
1284.000000	19.610511
1285.000000	19.616100
1286.000000	19.621476
1287.000000	19.626429
1288.000000	19.631217
1289.000000	19.636156
1290.000000	19.640844
1291.000000	19.645364
1292.000000	19.649967
1293.000000	19.654599
1294.000000	19.659282
1295.000000	19.663969
1296.000000	19.669128
1297.000000	19.674408
1298.000000	19.679319
1299.000000	19.684099
1300.000000	19.689026
1301.000000	19.694093
1302.000000	19.699178
1303.000000	19.704099
1304.000000	19.709397
1305.000000	19.714873
1306.000000	19.720317
1307.000000	19.726074
1308.000000	19.731675
1309.000000	19.737189
1310.000000	19.742650
1311.000000	19.748150
1312.000000	19.753529
1313.000000	19.758561
1314.000000	19.762979
1315.000000	19.766860
1316.000000	19.769786
1317.000000	19.771771
1318.000000	19.773076
1319.000000	19.773814
1320.000000	19.773793
1321.000000	19.772722
1322.000000	19.770286
1323.000000	19.766821
1324.000000	19.762322
1325.000000	19.756871
1326.000000	19.750329
1327.000000	19.742679
1328.000000	19.733744
1329.000000	19.723599
1330.000000	19.712345
1331.000000	19.699676
1332.000000	19.685871
1333.000000	19.671038
1334.000000	19.655010
1335.000000	19.637792
1336.000000	19.619283
1337.000000	19.599152
1338.000000	19.577823
1339.000000	19.554953
1340.000000	19.530731
1341.000000	19.504947
1342.000000	19.477180
1343.000000	19.448096
1344.000000	19.417803
1345.000000	19.385690
1346.000000	19.351051
1347.000000	19.314767
1348.000000	19.277089
1349.000000	19.237714
1350.000000	19.196406
1351.000000	19.153162
1352.000000	19.108625
1353.000000	19.062646
1354.000000	19.015739
1355.000000	18.969145
1356.000000	18.922129
1357.000000	18.874571
1358.000000	18.826069
1359.000000	18.776476
1360.000000	18.725708
1361.000000	18.676187
1362.000000	18.629043
1363.000000	18.581182
1364.000000	18.532252
1365.000000	18.483556
1366.000000	18.433706
1367.000000	18.382195
1368.000000	18.331256
1369.000000	18.278767
1370.000000	18.224087
1371.000000	18.167781
1372.000000	18.110035
1373.000000	18.048570
1374.000000	17.983115
1375.000000	17.913739
1376.000000	17.840998
1377.000000	17.764466
1378.000000	17.684085
1379.000000	17.599327
1380.000000	17.511711
1381.000000	17.423820
1382.000000	17.337596
1383.000000	17.252066
1384.000000	17.167456
1385.000000	17.082378
1386.000000	16.997683
1387.000000	16.913487
1388.000000	16.832010
1389.000000	16.751138
1390.000000	16.668187
1391.000000	16.584196
1392.000000	16.502272
1393.000000	16.421539
1394.000000	16.341409
1395.000000	16.263081
1396.000000	16.185863
1397.000000	16.105714
1398.000000	16.023571
1399.000000	15.940808
1400.000000	15.859637
1401.000000	15.781095
1402.000000	15.702302
1403.000000	15.619481
1404.000000	15.536063
1405.000000	15.454943
1406.000000	15.374109
1407.000000	15.293570
1408.000000	15.215236
1409.000000	15.140026
1410.000000	15.067327
1411.000000	14.996522
1412.000000	14.927409
1413.000000	14.860510
1414.000000	14.798264
1415.000000	14.738625
1416.000000	14.678477
1417.000000	14.614655
1418.000000	14.550724
1419.000000	14.486213
1420.000000	14.422710
1421.000000	14.358642
1422.000000	14.292796
1423.000000	14.224987
1424.000000	14.156992
1425.000000	14.089034
1426.000000	14.020958
1427.000000	13.950152
1428.000000	13.878716
1429.000000	13.807560
1430.000000	13.734208
1431.000000	13.657687
1432.000000	13.582038
1433.000000	13.508558
1434.000000	13.436646
1435.000000	13.362453
1436.000000	13.286335
1437.000000	13.211778
1438.000000	13.141513
1439.000000	13.073845
1440.000000	13.006043
1441.000000	12.939851
1442.000000	12.875453
1443.000000	12.812918
1444.000000	12.751563
1445.000000	12.692529
1446.000000	12.636593
1447.000000	12.583453
1448.000000	12.532085
1449.000000	12.481121
1450.000000	12.432039
1451.000000	12.386066
1452.000000	12.343238
1453.000000	12.300408
1454.000000	12.258156
1455.000000	12.216726
1456.000000	12.177300
1457.000000	12.140620
1458.000000	12.104551
1459.000000	12.068033
1460.000000	12.033537
1461.000000	12.000220
1462.000000	11.968394
1463.000000	11.937017
1464.000000	11.905590
1465.000000	11.875530
1466.000000	11.846493
1467.000000	11.817322
1468.000000	11.788667
1469.000000	11.760134
1470.000000	11.732708
1471.000000	11.706110
1472.000000	11.680520
1473.000000	11.654564
1474.000000	11.628023
1475.000000	11.601781
1476.000000	11.575987
1477.000000	11.550866
1478.000000	11.526427
1479.000000	11.502271
1480.000000	11.477941
1481.000000	11.453656
1482.000000	11.430499
1483.000000	11.407857
1484.000000	11.386007
1485.000000	11.363883
1486.000000	11.341875
1487.000000	11.320132
1488.000000	11.298995
1489.000000	11.278455
1490.000000	11.258526
1491.000000	11.239233
1492.000000	11.220307
1493.000000	11.201557
1494.000000	11.184359
1495.000000	11.167421
1496.000000	11.151399
1497.000000	11.136048
1498.000000	11.121456
1499.000000	11.108013
1500.000000	11.095919
1501.000000	11.084705
1502.000000	11.074461
1503.000000	11.065831
1504.000000	11.058527
1505.000000	11.051704
1506.000000	11.045744
1507.000000	11.040994
1508.000000	11.037726
1509.000000	11.036487
1510.000000	11.036772
1511.000000	11.037980
1512.000000	11.040268
1513.000000	11.043439
1514.000000	11.047830
1515.000000	11.053378
1516.000000	11.059633
1517.000000	11.066803
1518.000000	11.075279
1519.000000	11.083920
1520.000000	11.093892
1521.000000	11.104719
1522.000000	11.116462
1523.000000	11.129254
1524.000000	11.143030
1525.000000	11.157607
1526.000000	11.172907
1527.000000	11.188808
1528.000000	11.205918
1529.000000	11.223293
1530.000000	11.240784
1531.000000	11.258995
1532.000000	11.277818
1533.000000	11.297223
1534.000000	11.316870
1535.000000	11.336428
1536.000000	11.355975
1537.000000	11.375452
1538.000000	11.394732
1539.000000	11.413802
1540.000000	11.432551
1541.000000	11.451474
1542.000000	11.470188
1543.000000	11.488741
1544.000000	11.507100
1545.000000	11.525302
1546.000000	11.543494
1547.000000	11.561517
1548.000000	11.579774
1549.000000	11.598398
1550.000000	11.617393
1551.000000	11.636324
1552.000000	11.655073
1553.000000	11.674333
1554.000000	11.693844
1555.000000	11.712972
1556.000000	11.732077
1557.000000	11.751306
1558.000000	11.770175
1559.000000	11.788806
1560.000000	11.807018
1561.000000	11.824724
1562.000000	11.841965
1563.000000	11.858282
1564.000000	11.874212
1565.000000	11.889710
1566.000000	11.904513
1567.000000	11.918645
1568.000000	11.931792
1569.000000	11.944198
1570.000000	11.955977
1571.000000	11.967332
1572.000000	11.978276
1573.000000	11.988854
1574.000000	11.999386
1575.000000	12.009937
1576.000000	12.020073
1577.000000	12.029721
1578.000000	12.038971
1579.000000	12.047840
1580.000000	12.056324
1581.000000	12.064525
1582.000000	12.072311
1583.000000	12.079567
1584.000000	12.086582
1585.000000	12.093042
1586.000000	12.099148
1587.000000	12.104953
1588.000000	12.110277
1589.000000	12.115793
1590.000000	12.121360
1591.000000	12.126192
1592.000000	12.130862
1593.000000	12.136041
1594.000000	12.141427
1595.000000	12.147142
1596.000000	12.153155
1597.000000	12.159939
1598.000000	12.167423
1599.000000	12.175684
1600.000000	12.185050
1601.000000	12.194930
1602.000000	12.205414
1603.000000	12.216952
1604.000000	12.229452
1605.000000	12.242799
1606.000000	12.257140
1607.000000	12.272145
1608.000000	12.287287
1609.000000	12.302778
1610.000000	12.318596
1611.000000	12.334676
1612.000000	12.350978
1613.000000	12.367558
1614.000000	12.384510
1615.000000	12.401469
1616.000000	12.418356
1617.000000	12.435153
1618.000000	12.451810
1619.000000	12.468525
1620.000000	12.484904
1621.000000	12.501055
1622.000000	12.517019
1623.000000	12.532794
1624.000000	12.548253
1625.000000	12.563429
1626.000000	12.578797
1627.000000	12.594203
1628.000000	12.609009
1629.000000	12.624050
1630.000000	12.638912
1631.000000	12.653588
1632.000000	12.667710
1633.000000	12.681611
1634.000000	12.695095
1635.000000	12.707863
1636.000000	12.720190
1637.000000	12.732321
1638.000000	12.744161
1639.000000	12.754994
1640.000000	12.765022
1641.000000	12.774331
1642.000000	12.783080
1643.000000	12.791574
1644.000000	12.799483
1645.000000	12.806917
1646.000000	12.814083
1647.000000	12.820934
1648.000000	12.827202
1649.000000	12.832758
1650.000000	12.838107
1651.000000	12.842940
1652.000000	12.847051
1653.000000	12.850453
1654.000000	12.852799
1655.000000	12.854480
1656.000000	12.855343
1657.000000	12.855051
1658.000000	12.853650
1659.000000	12.850537
1660.000000	12.846097
1661.000000	12.840420
1662.000000	12.832649
1663.000000	12.823226
1664.000000	12.811444
1665.000000	12.797729
1666.000000	12.782656
1667.000000	12.765570
1668.000000	12.745165
1669.000000	12.722803
1670.000000	12.698250
1671.000000	12.672448
1672.000000	12.644267
1673.000000	12.613891
1674.000000	12.582367
1675.000000	12.549741
1676.000000	12.515929
1677.000000	12.479931
1678.000000	12.442141
1679.000000	12.403450
1680.000000	12.363288
1681.000000	12.320746
1682.000000	12.275773
1683.000000	12.229001
1684.000000	12.180425
1685.000000	12.129990
1686.000000	12.079018
1687.000000	12.027652
1688.000000	11.976379
1689.000000	11.925394
1690.000000	11.876013
1691.000000	11.827943
1692.000000	11.781827
1693.000000	11.737590
1694.000000	11.695928
1695.000000	11.655927
1696.000000	11.617306
1697.000000	11.580466
1698.000000	11.544810
1699.000000	11.511232
1700.000000	11.478551
1701.000000	11.446672
1702.000000	11.416776
1703.000000	11.389306
1704.000000	11.362319
1705.000000	11.336550
1706.000000	11.311267
1707.000000	11.287407
1708.000000	11.263715
1709.000000	11.240403
1710.000000	11.216390
1711.000000	11.192285
1712.000000	11.168444
1713.000000	11.144801
1714.000000	11.119820
1715.000000	11.094385
1716.000000	11.069132
1717.000000	11.043790
1718.000000	11.018112
1719.000000	10.992459
1720.000000	10.966023
1721.000000	10.939516
1722.000000	10.912710
1723.000000	10.885602
1724.000000	10.858402
1725.000000	10.830152
1726.000000	10.801434
1727.000000	10.772282
1728.000000	10.742278
1729.000000	10.711836
1730.000000	10.681556
1731.000000	10.651345
1732.000000	10.621453
1733.000000	10.593003
1734.000000	10.565157
1735.000000	10.538849
1736.000000	10.513866
1737.000000	10.489793
1738.000000	10.467301
1739.000000	10.446867
1740.000000	10.428295
1741.000000	10.411577
1742.000000	10.396559
1743.000000	10.383750
1744.000000	10.372902
1745.000000	10.364547
1746.000000	10.358122
1747.000000	10.354419
1748.000000	10.352979
1749.000000	10.353819
1750.000000	10.356721
1751.000000	10.362358
1752.000000	10.370450
1753.000000	10.380603
1754.000000	10.392762
1755.000000	10.407619
1756.000000	10.423596
1757.000000	10.440599
1758.000000	10.457947
1759.000000	10.475340
1760.000000	10.492799
1761.000000	10.510481
1762.000000	10.527862
1763.000000	10.545346
1764.000000	10.562542
1765.000000	10.579291
1766.000000	10.596183
1767.000000	10.613314
1768.000000	10.629861
1769.000000	10.645750
1770.000000	10.661264
1771.000000	10.676473
1772.000000	10.691316
1773.000000	10.706026
1774.000000	10.720539
1775.000000	10.734636
1776.000000	10.748229
1777.000000	10.761588
1778.000000	10.775008
1779.000000	10.787959
1780.000000	10.800804
1781.000000	10.813283
1782.000000	10.825310
1783.000000	10.836950
1784.000000	10.848888
1785.000000	10.860975
1786.000000	10.872647
1787.000000	10.884386
1788.000000	10.896203
1789.000000	10.907800
1790.000000	10.919412
1791.000000	10.930928
1792.000000	10.942394
1793.000000	10.954670
1794.000000	10.967622
1795.000000	10.980863
1796.000000	10.993882
1797.000000	11.006606
1798.000000	11.018919
1799.000000	11.030864
1800.000000	11.042916
1801.000000	11.055024
1802.000000	11.067022
1803.000000	11.078459
1804.000000	11.088962
1805.000000	11.099014
1806.000000	11.109053
1807.000000	11.119172
1808.000000	11.128387
1809.000000	11.136191
1810.000000	11.143084
1811.000000	11.150221
1812.000000	11.157266
1813.000000	11.163580
1814.000000	11.169148
1815.000000	11.174313
1816.000000	11.179360
1817.000000	11.183533
1818.000000	11.185800
1819.000000	11.186937
1820.000000	11.189420
1821.000000	11.194349
1822.000000	11.200871
1823.000000	11.205920
1824.000000	11.208404
1825.000000	11.209563
1826.000000	11.210600
1827.000000	11.212696
1828.000000	11.215442
1829.000000	11.217970
1830.000000	11.220694
1831.000000	11.224370
1832.000000	11.227742
1833.000000	11.229542
1834.000000	11.229539
1835.000000	11.229174
1836.000000	11.229435
1837.000000	11.230668
1838.000000	11.232574
1839.000000	11.234796
1840.000000	11.237892
1841.000000	11.242535
1842.000000	11.248831
1843.000000	11.254988
1844.000000	11.259025
1845.000000	11.259706
1846.000000	11.257792
1847.000000	11.257144
1848.000000	11.260761
1849.000000	11.267834
1850.000000	11.273886
1851.000000	11.276380
1852.000000	11.277536
1853.000000	11.280178
1854.000000	11.284006
1855.000000	11.287020
1856.000000	11.286807
1857.000000	11.283330
1858.000000	11.280647
1859.000000	11.281423
1860.000000	11.284314
1861.000000	11.287313
1862.000000	11.288465
1863.000000	11.286572
1864.000000	11.281719
1865.000000	11.273512
1866.000000	11.261791
1867.000000	11.248428
1868.000000	11.235148
1869.000000	11.222182
1870.000000	11.209579
1871.000000	11.196410
1872.000000	11.181208
1873.000000	11.165248
1874.000000	11.148638
1875.000000	11.129155
1876.000000	11.105494
1877.000000	11.076859
1878.000000	11.045836
1879.000000	11.014698
1880.000000	10.983017
1881.000000	10.948966
1882.000000	10.909021
1883.000000	10.861905
1884.000000	10.808594
1885.000000	10.752460
1886.000000	10.695938
1887.000000	10.636771
1888.000000	10.572246
1889.000000	10.501731
1890.000000	10.426522
1891.000000	10.347977
1892.000000	10.266845
1893.000000	10.182281
1894.000000	10.091580
1895.000000	9.994648
1896.000000	9.891567
1897.000000	9.783919
1898.000000	9.673115
1899.000000	9.561126
1900.000000	9.448580
1901.000000	9.334208
1902.000000	9.217283
1903.000000	9.097757
1904.000000	8.975762
1905.000000	8.850772
1906.000000	8.723106
1907.000000	8.592832
1908.000000	8.459745
1909.000000	8.324114
1910.000000	8.186917
1911.000000	8.048499
1912.000000	7.910871
1913.000000	7.774516
1914.000000	7.640310
1915.000000	7.508614
1916.000000	7.379368
1917.000000	7.251756
1918.000000	7.124823
1919.000000	6.999437
1920.000000	6.877420
1921.000000	6.758540
1922.000000	6.643889
1923.000000	6.534018
1924.000000	6.428711
1925.000000	6.326087
1926.000000	6.226878
1927.000000	6.131851
1928.000000	6.040677
1929.000000	5.954678
1930.000000	5.874294
1931.000000	5.799782
1932.000000	5.730448
1933.000000	5.665916
1934.000000	5.604835
1935.000000	5.547187
1936.000000	5.494197
1937.000000	5.445715
1938.000000	5.402017
1939.000000	5.363101
1940.000000	5.327342
1941.000000	5.293904
1942.000000	5.263817
1943.000000	5.236992
1944.000000	5.213740
1945.000000	5.194350
1946.000000	5.178621
1947.000000	5.165763
1948.000000	5.154808
1949.000000	5.144715
1950.000000	5.137245
1951.000000	5.131829
1952.000000	5.129414
1953.000000	5.129793
1954.000000	5.132838
1955.000000	5.137057
1956.000000	5.142770
1957.000000	5.148847
1958.000000	5.156503
1959.000000	5.166135
1960.000000	5.177765
1961.000000	5.190078
1962.000000	5.203758
1963.000000	5.217982
1964.000000	5.232909
1965.000000	5.248386
1966.000000	5.264970
1967.000000	5.282575
1968.000000	5.300721
1969.000000	5.320040
1970.000000	5.339736
1971.000000	5.359624
1972.000000	5.380502
1973.000000	5.400992
1974.000000	5.421112
1975.000000	5.441856
1976.000000	5.462469
1977.000000	5.483585
1978.000000	5.504933
1979.000000	5.526821
1980.000000	5.548996
1981.000000	5.571205
1982.000000	5.593178
1983.000000	5.614903
1984.000000	5.637509
1985.000000	5.659570
1986.000000	5.682129
1987.000000	5.704300
1988.000000	5.726591
1989.000000	5.748425
1990.000000	5.770267
1991.000000	5.791158
1992.000000	5.812805
1993.000000	5.834352
1994.000000	5.855277
1995.000000	5.876065
1996.000000	5.897037
1997.000000	5.916832
1998.000000	5.936907
1999.000000	5.956739
2000.000000	5.975948
2001.000000	5.994336
2002.000000	6.012456
2003.000000	6.030696
2004.000000	6.048311
2005.000000	6.065449
2006.000000	6.081735
2007.000000	6.097390
2008.000000	6.112467
2009.000000	6.126886
2010.000000	6.140072
2011.000000	6.152427
2012.000000	6.163694
2013.000000	6.174130
2014.000000	6.183417
2015.000000	6.191884
2016.000000	6.199330
2017.000000	6.205445
2018.000000	6.210648
2019.000000	6.214298
2020.000000	6.217310
2021.000000	6.218590
2022.000000	6.218452
2023.000000	6.217001
2024.000000	6.214079
2025.000000	6.209870
2026.000000	6.204368
2027.000000	6.197263
2028.000000	6.188748
2029.000000	6.178947
2030.000000	6.167892
2031.000000	6.154902
2032.000000	6.141203
2033.000000	6.125501
2034.000000	6.108167
2035.000000	6.089559
2036.000000	6.069782
2037.000000	6.048651
2038.000000	6.025675
2039.000000	6.001052
2040.000000	5.975168
2041.000000	5.947828
2042.000000	5.919324
2043.000000	5.889825
2044.000000	5.859310
2045.000000	5.827779
2046.000000	5.795748
2047.000000	5.762970
2048.000000	5.729591
2049.000000	5.695601
2050.000000	5.661485
2051.000000	5.627420
2052.000000	5.593288
2053.000000	5.559650
2054.000000	5.526686
2055.000000	5.494245
2056.000000	5.462763
2057.000000	5.432731
2058.000000	5.404305
2059.000000	5.377460
2060.000000	5.351923
2061.000000	5.328418
2062.000000	5.306394
2063.000000	5.285943
2064.000000	5.267445
2065.000000	5.250669
2066.000000	5.236174
2067.000000	5.223099
2068.000000	5.212589
2069.000000	5.204657
2070.000000	5.198591
2071.000000	5.194114
2072.000000	5.191447
2073.000000	5.190905
2074.000000	5.192358
2075.000000	5.195611
2076.000000	5.201146
2077.000000	5.208178
2078.000000	5.217210
2079.000000	5.227595
2080.000000	5.239162
2081.000000	5.251819
2082.000000	5.265877
2083.000000	5.280914
2084.000000	5.297095
2085.000000	5.313352
2086.000000	5.329707
2087.000000	5.346800
2088.000000	5.363757
2089.000000	5.380489
2090.000000	5.396746
2091.000000	5.412348
2092.000000	5.427144
2093.000000	5.441079
2094.000000	5.454117
2095.000000	5.466019
2096.000000	5.476901
2097.000000	5.486619
2098.000000	5.495162
2099.000000	5.502941
2100.000000	5.509846
2101.000000	5.515691
2102.000000	5.520340
2103.000000	5.524127
2104.000000	5.526726
2105.000000	5.528273
2106.000000	5.528866
2107.000000	5.528400
2108.000000	5.527340
2109.000000	5.525707
2110.000000	5.523259
2111.000000	5.519828
2112.000000	5.515408
2113.000000	5.510106
2114.000000	5.504287
2115.000000	5.498213
2116.000000	5.491950
2117.000000	5.484810
2118.000000	5.476790
2119.000000	5.468286
2120.000000	5.459756
2121.000000	5.450992
2122.000000	5.441497
2123.000000	5.431761
2124.000000	5.421315
2125.000000	5.410418
2126.000000	5.399605
2127.000000	5.388372
2128.000000	5.376251
2129.000000	5.363679
2130.000000	5.350965
2131.000000	5.337582
2132.000000	5.323733
2133.000000	5.309527
2134.000000	5.294384
2135.000000	5.278601
2136.000000	5.262381
2137.000000	5.245647
2138.000000	5.228084
2139.000000	5.209606
2140.000000	5.190756
2141.000000	5.171438
2142.000000	5.151669
2143.000000	5.131034
2144.000000	5.109476
2145.000000	5.087312
2146.000000	5.064710
2147.000000	5.041661
2148.000000	5.017876
2149.000000	4.993550
2150.000000	4.968412
2151.000000	4.942564
2152.000000	4.916480
2153.000000	4.890542
2154.000000	4.864216
2155.000000	4.837514
2156.000000	4.810741
2157.000000	4.784309
2158.000000	4.757705
2159.000000	4.731149
2160.000000	4.704829
2161.000000	4.678384
2162.000000	4.652587
2163.000000	4.627364
2164.000000	4.602236
2165.000000	4.577427
2166.000000	4.553177
2167.000000	4.529296
2168.000000	4.505670
2169.000000	4.482543
2170.000000	4.459936
2171.000000	4.437682
2172.000000	4.415624
2173.000000	4.393992
2174.000000	4.373183
2175.000000	4.353118
2176.000000	4.333724
2177.000000	4.314784
2178.000000	4.296330
2179.000000	4.278397
2180.000000	4.260950
2181.000000	4.244278
2182.000000	4.228259
2183.000000	4.212719
2184.000000	4.197386
2185.000000	4.182368
2186.000000	4.167557
2187.000000	4.152725
2188.000000	4.137779
2189.000000	4.122957
2190.000000	4.108203
2191.000000	4.092725
2192.000000	4.076141
2193.000000	4.058538
2194.000000	4.040971
2195.000000	4.022596
2196.000000	4.003247
2197.000000	3.982710
2198.000000	3.961057
2199.000000	3.938806
2200.000000	3.915747
2201.000000	3.891147
2202.000000	3.865751
2203.000000	3.839964
2204.000000	3.813584
2205.000000	3.786377
2206.000000	3.759007
2207.000000	3.731943
2208.000000	3.705135
2209.000000	3.678406
2210.000000	3.651482
2211.000000	3.625330
2212.000000	3.600128
2213.000000	3.575400
2214.000000	3.551669
2215.000000	3.528522
2216.000000	3.506344
2217.000000	3.485436
2218.000000	3.465550
2219.000000	3.447266
2220.000000	3.430578
2221.000000	3.415455
2222.000000	3.401890
2223.000000	3.390466
2224.000000	3.380172
2225.000000	3.371024
2226.000000	3.364478
2227.000000	3.359130
2228.000000	3.355853
2229.000000	3.353683
2230.000000	3.353000
2231.000000	3.354597
2232.000000	3.357364
2233.000000	3.362111
2234.000000	3.367510
2235.000000	3.374188
2236.000000	3.382252
2237.000000	3.391724
2238.000000	3.402123
2239.000000	3.412805
2240.000000	3.423884
2241.000000	3.434979
2242.000000	3.446403
2243.000000	3.457234
2244.000000	3.467613
2245.000000	3.477602
2246.000000	3.486501
2247.000000	3.493976
2248.000000	3.500858
2249.000000	3.506515
2250.000000	3.511281
2251.000000	3.514419
2252.000000	3.516230
2253.000000	3.516758
2254.000000	3.515603
2255.000000	3.512749
2256.000000	3.508750
2257.000000	3.503847
2258.000000	3.497049
2259.000000	3.489110
2260.000000	3.480297
2261.000000	3.470135
2262.000000	3.459730
2263.000000	3.448983
2264.000000	3.437568
2265.000000	3.426118
2266.000000	3.413984
2267.000000	3.402147
2268.000000	3.389724
2269.000000	3.377891
2270.000000	3.365675
2271.000000	3.354206
2272.000000	3.342484
2273.000000	3.331069
2274.000000	3.320457
2275.000000	3.310190
2276.000000	3.300410
2277.000000	3.290928
2278.000000	3.282025
2279.000000	3.273779
2280.000000	3.265974
2281.000000	3.258829
2282.000000	3.252458
2283.000000	3.246232
2284.000000	3.240882
2285.000000	3.236331
2286.000000	3.232633
2287.000000	3.229290
2288.000000	3.226298
2289.000000	3.224077
2290.000000	3.222646
2291.000000	3.221587
2292.000000	3.220314
2293.000000	3.219991
2294.000000	3.220163
2295.000000	3.220370
2296.000000	3.220785
2297.000000	3.221419
2298.000000	3.222281
2299.000000	3.223484
2300.000000	3.224767
2301.000000	3.226204
2302.000000	3.227518
2303.000000	3.229065
2304.000000	3.230517
2305.000000	3.231958
2306.000000	3.233501
2307.000000	3.235864
2308.000000	3.238023
2309.000000	3.240136
2310.000000	3.242438
2311.000000	3.245147
2312.000000	3.247972
2313.000000	3.251203
2314.000000	3.254511
2315.000000	3.257874
2316.000000	3.261717
2317.000000	3.265507
2318.000000	3.269691
2319.000000	3.273905
2320.000000	3.278163
2321.000000	3.282115
2322.000000	3.285710
2323.000000	3.289596
2324.000000	3.293105
2325.000000	3.296565
2326.000000	3.299898
2327.000000	3.303469
2328.000000	3.306208
2329.000000	3.309111
2330.000000	3.312210
2331.000000	3.314888
2332.000000	3.317572
2333.000000	3.319753
2334.000000	3.321948
2335.000000	3.323894
2336.000000	3.325703
2337.000000	3.327292
2338.000000	3.328770
2339.000000	3.330301
2340.000000	3.331955
2341.000000	3.332964
2342.000000	3.333261
2343.000000	3.333681
2344.000000	3.334228
2345.000000	3.334705
2346.000000	3.334576
2347.000000	3.334144
2348.000000	3.333475
2349.000000	3.332517
2350.000000	3.331690
2351.000000	3.330655
2352.000000	3.329795
2353.000000	3.329136
2354.000000	3.328256
2355.000000	3.327196
2356.000000	3.326397
2357.000000	3.325844
2358.000000	3.325656
2359.000000	3.325862
2360.000000	3.326070
2361.000000	3.326405
2362.000000	3.326656
2363.000000	3.327294
2364.000000	3.327754
2365.000000	3.328331
2366.000000	3.329275
2367.000000	3.330152
2368.000000	3.331285
2369.000000	3.332499
2370.000000	3.333528
2371.000000	3.334448
2372.000000	3.335623
2373.000000	3.336785
2374.000000	3.337741
2375.000000	3.338620
2376.000000	3.339920
2377.000000	3.341212
2378.000000	3.341989
2379.000000	3.342637
2380.000000	3.343232
2381.000000	3.343827
2382.000000	3.344206
2383.000000	3.344585
2384.000000	3.344832
2385.000000	3.344663
2386.000000	3.344033
2387.000000	3.343154
2388.000000	3.341753
2389.000000	3.340351
2390.000000	3.338886
2391.000000	3.337093
2392.000000	3.335246
2393.000000	3.333148
2394.000000	3.330586
2395.000000	3.327900
2396.000000	3.324921
2397.000000	3.321815
2398.000000	3.318533
2399.000000	3.315060
2400.000000	3.311133
2401.000000	3.307028
2402.000000	3.303030
2403.000000	3.298923
2404.000000	3.294427
2405.000000	3.289324
2406.000000	3.283847
2407.000000	3.278411
2408.000000	3.272560
2409.000000	3.266090
2410.000000	3.259370
2411.000000	3.252123
2412.000000	3.244810
2413.000000	3.237106
2414.000000	3.228876
2415.000000	3.220210
2416.000000	3.211297
2417.000000	3.202111
2418.000000	3.191993
2419.000000	3.181516
2420.000000	3.170666
2421.000000	3.159890
2422.000000	3.148381
2423.000000	3.136510
2424.000000	3.123604
2425.000000	3.110046
2426.000000	3.096109
2427.000000	3.081615
2428.000000	3.066244
2429.000000	3.050875
2430.000000	3.034876
2431.000000	3.018671
2432.000000	3.002095
2433.000000	2.985147
2434.000000	2.968015
2435.000000	2.950360
2436.000000	2.932528
2437.000000	2.914385
2438.000000	2.895889
2439.000000	2.876887
2440.000000	2.858019
2441.000000	2.838849
2442.000000	2.818626
2443.000000	2.798604
2444.000000	2.778901
2445.000000	2.758592
2446.000000	2.737926
2447.000000	2.717235
2448.000000	2.696468
2449.000000	2.675611
2450.000000	2.654980
2451.000000	2.634206
2452.000000	2.613535
2453.000000	2.593259
2454.000000	2.572806
2455.000000	2.552700
2456.000000	2.532385
2457.000000	2.512438
2458.000000	2.492950
2459.000000	2.473935
2460.000000	2.455022
2461.000000	2.436441
2462.000000	2.418152
2463.000000	2.400300
2464.000000	2.382716
2465.000000	2.366024
2466.000000	2.349446
2467.000000	2.332512
2468.000000	2.316209
2469.000000	2.300573
2470.000000	2.285637
2471.000000	2.271391
2472.000000	2.256638
2473.000000	2.241817
2474.000000	2.228413
2475.000000	2.214959
2476.000000	2.202509
2477.000000	2.191165
2478.000000	2.180154
2479.000000	2.168958
2480.000000	2.158593
2481.000000	2.149736
2482.000000	2.140270
2483.000000	2.132086
2484.000000	2.123897
2485.000000	2.116660
2486.000000	2.109350
2487.000000	2.103177
2488.000000	2.096827
2489.000000	2.092585
2490.000000	2.088649
2491.000000	2.084864
2492.000000	2.082039
2493.000000	2.079894
2494.000000	2.077788
2495.000000	2.077035
2496.000000	2.075643
2497.000000	2.073892
2498.000000	2.075123
2499.000000	2.077211
2500.000000	2.076495
