PE UV       SUBTECH     SPECTRUM    ASCII       PEDS        4.00        
   -1
ANGSOL0004-1.Sample.ASC
24/03/07
11:04:30.00
24/03/07
11:04:30.00
Vinicio Soto Monge

250,000000
1
Lambda 1050
1050L1511233
PerkinElmer UV WinLab 6.3.2.0749 / 2.02.05 Lambda 900 UV/VIS/NIR, Aug  7 2015 09:38:08

0
0
3350/servo 860,8/2
0
0
UV/VIS
1
1
1
DoubleDePol,CommonBeamDepol,RBeamAtt,SBeamAtt,60mm sphere, WB InGaAs Detector
0
0
0
0
Program
Program
3350/servo 860,8/2
3350/0,2 860,8/0,2
3350/0,2 860,8/0,2
0
15.00
 
 
 
0
 
860,8
319,2
860,8
Front
100
on
S:100 R:100
0
0
0
0
 
0
 
 
 
0
 
 
0
0
0
0
0
 
 
 
 
0
0


0
0
#HDR
-1
-1
#GR
nm
%R
1.0
0.0
2500,000000
-1,000000
2251
8
19,015500
1,364900
#DATA
250.000000	nan
251.000000	nan
252.000000	nan
253.000000	nan
254.000000	nan
255.000000	nan
256.000000	nan
257.000000	nan
258.000000	nan
259.000000	nan
260.000000	nan
261.000000	nan
262.000000	nan
263.000000	nan
264.000000	nan
265.000000	nan
266.000000	nan
267.000000	nan
268.000000	nan
269.000000	nan
270.000000	nan
271.000000	nan
272.000000	nan
273.000000	nan
274.000000	nan
275.000000	nan
276.000000	nan
277.000000	nan
278.000000	nan
279.000000	nan
280.000000	nan
281.000000	nan
282.000000	nan
283.000000	nan
284.000000	1.989863
285.000000	1.985112
286.000000	1.980068
287.000000	1.976999
288.000000	1.972955
289.000000	1.970759
290.000000	1.967645
291.000000	1.963548
292.000000	1.960857
293.000000	1.960333
294.000000	1.957441
295.000000	1.955623
296.000000	1.953078
297.000000	1.952234
298.000000	1.950573
299.000000	1.949105
300.000000	1.947229
301.000000	1.945399
302.000000	1.944949
303.000000	1.942584
304.000000	1.942042
305.000000	1.942300
306.000000	1.942765
307.000000	1.942995
308.000000	1.942723
309.000000	1.942927
310.000000	1.942688
311.000000	1.943508
312.000000	1.941415
313.000000	1.941113
314.000000	1.941646
315.000000	1.942427
316.000000	1.943437
317.000000	1.953282
318.000000	1.958350
319.000000	1.974240
320.000000	1.987720
321.000000	2.001482
322.000000	2.016534
323.000000	2.024633
324.000000	2.028342
325.000000	2.034482
326.000000	2.035692
327.000000	2.039638
328.000000	2.041278
329.000000	2.045274
330.000000	2.052764
331.000000	2.053658
332.000000	2.056680
333.000000	2.063050
334.000000	2.066404
335.000000	2.069551
336.000000	2.075003
337.000000	2.076347
338.000000	2.077463
339.000000	2.079751
340.000000	2.079651
341.000000	2.080308
342.000000	2.083212
343.000000	2.086563
344.000000	2.087850
345.000000	2.091290
346.000000	2.092705
347.000000	2.094534
348.000000	2.098190
349.000000	2.100014
350.000000	2.101949
351.000000	2.103773
352.000000	2.095615
353.000000	2.093398
354.000000	2.080518
355.000000	2.068683
356.000000	2.056295
357.000000	2.041959
358.000000	2.036844
359.000000	2.035746
360.000000	2.030953
361.000000	2.032676
362.000000	2.029639
363.000000	2.027475
364.000000	2.026922
365.000000	2.020371
366.000000	2.020658
367.000000	2.017603
368.000000	2.009614
369.000000	2.006591
370.000000	2.003853
371.000000	1.998975
372.000000	1.996657
373.000000	1.995289
374.000000	1.992199
375.000000	1.990894
376.000000	1.989689
377.000000	1.982881
378.000000	1.976608
379.000000	1.971884
380.000000	1.965428
381.000000	1.960576
382.000000	1.957181
383.000000	1.951222
384.000000	1.947519
385.000000	1.943114
386.000000	1.938588
387.000000	1.934743
388.000000	1.929459
389.000000	1.924569
390.000000	1.922103
391.000000	1.921502
392.000000	1.920498
393.000000	1.918083
394.000000	1.915010
395.000000	1.914028
396.000000	1.912059
397.000000	1.911562
398.000000	1.911162
399.000000	1.909365
400.000000	1.910037
401.000000	1.910629
402.000000	1.910727
403.000000	1.914054
404.000000	1.916576
405.000000	1.919424
406.000000	1.922896
407.000000	1.927091
408.000000	1.932259
409.000000	1.937354
410.000000	1.943176
411.000000	1.948605
412.000000	1.957873
413.000000	1.967059
414.000000	1.976682
415.000000	1.986525
416.000000	1.996577
417.000000	2.006497
418.000000	2.016475
419.000000	2.026593
420.000000	2.036986
421.000000	2.047660
422.000000	2.058592
423.000000	2.069417
424.000000	2.080648
425.000000	2.092142
426.000000	2.103450
427.000000	2.114879
428.000000	2.126542
429.000000	2.138487
430.000000	2.150949
431.000000	2.163612
432.000000	2.176160
433.000000	2.188865
434.000000	2.201772
435.000000	2.214897
436.000000	2.228164
437.000000	2.241728
438.000000	2.255489
439.000000	2.269500
440.000000	2.283818
441.000000	2.298148
442.000000	2.312733
443.000000	2.327690
444.000000	2.342817
445.000000	2.358168
446.000000	2.374088
447.000000	2.390220
448.000000	2.406809
449.000000	2.423919
450.000000	2.441614
451.000000	2.459810
452.000000	2.478634
453.000000	2.497910
454.000000	2.517598
455.000000	2.538139
456.000000	2.559132
457.000000	2.580336
458.000000	2.602318
459.000000	2.625075
460.000000	2.648594
461.000000	2.673030
462.000000	2.698372
463.000000	2.724548
464.000000	2.751524
465.000000	2.779426
466.000000	2.808433
467.000000	2.838324
468.000000	2.869012
469.000000	2.900698
470.000000	2.933487
471.000000	2.967319
472.000000	3.001994
473.000000	3.037693
474.000000	3.074535
475.000000	3.112419
476.000000	3.151410
477.000000	3.191188
478.000000	3.232151
479.000000	3.274218
480.000000	3.317157
481.000000	3.360716
482.000000	3.405047
483.000000	3.450574
484.000000	3.497345
485.000000	3.545447
486.000000	3.595328
487.000000	3.646631
488.000000	3.699215
489.000000	3.753208
490.000000	3.808497
491.000000	3.865300
492.000000	3.923893
493.000000	3.984022
494.000000	4.045501
495.000000	4.108405
496.000000	4.172551
497.000000	4.238053
498.000000	4.305213
499.000000	4.373947
500.000000	4.444085
501.000000	4.515312
502.000000	4.587747
503.000000	4.661609
504.000000	4.737223
505.000000	4.814263
506.000000	4.892444
507.000000	4.971844
508.000000	5.052511
509.000000	5.134513
510.000000	5.217702
511.000000	5.301696
512.000000	5.387016
513.000000	5.473381
514.000000	5.561013
515.000000	5.649963
516.000000	5.740090
517.000000	5.831461
518.000000	5.923759
519.000000	6.016488
520.000000	6.109656
521.000000	6.203125
522.000000	6.296968
523.000000	6.390994
524.000000	6.485147
525.000000	6.579055
526.000000	6.672326
527.000000	6.764801
528.000000	6.856356
529.000000	6.946906
530.000000	7.036584
531.000000	7.125092
532.000000	7.212556
533.000000	7.298282
534.000000	7.382516
535.000000	7.465406
536.000000	7.547159
537.000000	7.627145
538.000000	7.705778
539.000000	7.782869
540.000000	7.858291
541.000000	7.932194
542.000000	8.004348
543.000000	8.074592
544.000000	8.143318
545.000000	8.210229
546.000000	8.275512
547.000000	8.338764
548.000000	8.399518
549.000000	8.457510
550.000000	8.512907
551.000000	8.565692
552.000000	8.615733
553.000000	8.662607
554.000000	8.706198
555.000000	8.746415
556.000000	8.783008
557.000000	8.816233
558.000000	8.845879
559.000000	8.871795
560.000000	8.887261
561.000000	8.898670
562.000000	8.906304
563.000000	8.910362
564.000000	8.910848
565.000000	8.907565
566.000000	8.900405
567.000000	8.889384
568.000000	8.874758
569.000000	8.856544
570.000000	8.834482
571.000000	8.808859
572.000000	8.780075
573.000000	8.747270
574.000000	8.710298
575.000000	8.669791
576.000000	8.625691
577.000000	8.578273
578.000000	8.527210
579.000000	8.472258
580.000000	8.414310
581.000000	8.353151
582.000000	8.288874
583.000000	8.222647
584.000000	8.154850
585.000000	8.085074
586.000000	8.014255
587.000000	7.942469
588.000000	7.869978
589.000000	7.796794
590.000000	7.723149
591.000000	7.649044
592.000000	7.573617
593.000000	7.497455
594.000000	7.420992
595.000000	7.351257
596.000000	7.282587
597.000000	7.214400
598.000000	7.147101
599.000000	7.080036
600.000000	7.014019
601.000000	6.949322
602.000000	6.885566
603.000000	6.823217
604.000000	6.761530
605.000000	6.700782
606.000000	6.641038
607.000000	6.582190
608.000000	6.524526
609.000000	6.468642
610.000000	6.413417
611.000000	6.359504
612.000000	6.306816
613.000000	6.255878
614.000000	6.206284
615.000000	6.157598
616.000000	6.110301
617.000000	6.064194
618.000000	6.018818
619.000000	5.974043
620.000000	5.929649
621.000000	5.885333
622.000000	5.841659
623.000000	5.797914
624.000000	5.754950
625.000000	5.712215
626.000000	5.670228
627.000000	5.629100
628.000000	5.589055
629.000000	5.550108
630.000000	5.512029
631.000000	5.474781
632.000000	5.438309
633.000000	5.401938
634.000000	5.366828
635.000000	5.332247
636.000000	5.298336
637.000000	5.264874
638.000000	5.231866
639.000000	5.200210
640.000000	5.169377
641.000000	5.139122
642.000000	5.109893
643.000000	5.081375
644.000000	5.053597
645.000000	5.026731
646.000000	5.000951
647.000000	4.975671
648.000000	4.951013
649.000000	4.926986
650.000000	4.903677
651.000000	4.881296
652.000000	4.859761
653.000000	4.839063
654.000000	4.818396
655.000000	4.798856
656.000000	4.779929
657.000000	4.761111
658.000000	4.743341
659.000000	4.725761
660.000000	4.708752
661.000000	4.692163
662.000000	4.676643
663.000000	4.661623
664.000000	4.646908
665.000000	4.632750
666.000000	4.619133
667.000000	4.605754
668.000000	4.593288
669.000000	4.581087
670.000000	4.569015
671.000000	4.557181
672.000000	4.546178
673.000000	4.535492
674.000000	4.524776
675.000000	4.514682
676.000000	4.504712
677.000000	4.495148
678.000000	4.486161
679.000000	4.477055
680.000000	4.468696
681.000000	4.459922
682.000000	4.451453
683.000000	4.443259
684.000000	4.435471
685.000000	4.428041
686.000000	4.420614
687.000000	4.413161
688.000000	4.405621
689.000000	4.398676
690.000000	4.391525
691.000000	4.384734
692.000000	4.378018
693.000000	4.371058
694.000000	4.364549
695.000000	4.358291
696.000000	4.351859
697.000000	4.345489
698.000000	4.339385
699.000000	4.333026
700.000000	4.326677
701.000000	4.320182
702.000000	4.313922
703.000000	4.307359
704.000000	4.301057
705.000000	4.294876
706.000000	4.288852
707.000000	4.282716
708.000000	4.276713
709.000000	4.270647
710.000000	4.264170
711.000000	4.258025
712.000000	4.252099
713.000000	4.246114
714.000000	4.239882
715.000000	4.233660
716.000000	4.227855
717.000000	4.222181
718.000000	4.216340
719.000000	4.210527
720.000000	4.204574
721.000000	4.198452
722.000000	4.192588
723.000000	4.186994
724.000000	4.181319
725.000000	4.175624
726.000000	4.170026
727.000000	4.165032
728.000000	4.160263
729.000000	4.155344
730.000000	4.150527
731.000000	4.145753
732.000000	4.141307
733.000000	4.137236
734.000000	4.133249
735.000000	4.129066
736.000000	4.125008
737.000000	4.121228
738.000000	4.117584
739.000000	4.114162
740.000000	4.111146
741.000000	4.108529
742.000000	4.106270
743.000000	4.104112
744.000000	4.102188
745.000000	4.101200
746.000000	4.100223
747.000000	4.098500
748.000000	4.097209
749.000000	4.096845
750.000000	4.096671
751.000000	4.096895
752.000000	4.097570
753.000000	4.098760
754.000000	4.100178
755.000000	4.101617
756.000000	4.103615
757.000000	4.105820
758.000000	4.108058
759.000000	4.111303
760.000000	4.115497
761.000000	4.120050
762.000000	4.124813
763.000000	4.130197
764.000000	4.136535
765.000000	4.142556
766.000000	4.148713
767.000000	4.155136
768.000000	4.162105
769.000000	4.170032
770.000000	4.178492
771.000000	4.187736
772.000000	4.197529
773.000000	4.207688
774.000000	4.218063
775.000000	4.228743
776.000000	4.239817
777.000000	4.251471
778.000000	4.263904
779.000000	4.277438
780.000000	4.290613
781.000000	4.303958
782.000000	4.318773
783.000000	4.334056
784.000000	4.349588
785.000000	4.365908
786.000000	4.382431
787.000000	4.398676
788.000000	4.415709
789.000000	4.433008
790.000000	4.451441
791.000000	4.470777
792.000000	4.490536
793.000000	4.510274
794.000000	4.530353
795.000000	4.551387
796.000000	4.573017
797.000000	4.594564
798.000000	4.616614
799.000000	4.638860
800.000000	4.661206
801.000000	4.684310
802.000000	4.708104
803.000000	4.732030
804.000000	4.756265
805.000000	4.781074
806.000000	4.806037
807.000000	4.831604
808.000000	4.857203
809.000000	4.883545
810.000000	4.909518
811.000000	4.936147
812.000000	4.962786
813.000000	4.990309
814.000000	5.018277
815.000000	5.047073
816.000000	5.076313
817.000000	5.104290
818.000000	5.133471
819.000000	5.162581
820.000000	5.191238
821.000000	5.221612
822.000000	5.252421
823.000000	5.282342
824.000000	5.313474
825.000000	5.344497
826.000000	5.374773
827.000000	5.405461
828.000000	5.437676
829.000000	5.469222
830.000000	5.500656
831.000000	5.531924
832.000000	5.563142
833.000000	5.594993
834.000000	5.627700
835.000000	5.659761
836.000000	5.694164
837.000000	5.727457
838.000000	5.759136
839.000000	5.791325
840.000000	5.823247
841.000000	5.859082
842.000000	5.892680
843.000000	5.927642
844.000000	5.958383
845.000000	5.992011
846.000000	6.023459
847.000000	6.057039
848.000000	6.089092
849.000000	6.117376
850.000000	6.144444
851.000000	6.169155
852.000000	6.192016
853.000000	6.221837
854.000000	6.257480
855.000000	6.285687
856.000000	6.306594
857.000000	6.341867
858.000000	6.385663
859.000000	6.422481
860.000000	6.460327
861.000000	6.499003
862.000000	6.538055
863.000000	6.577137
864.000000	6.617667
865.000000	6.658412
866.000000	6.699641
867.000000	6.741977
868.000000	6.783874
869.000000	6.825128
870.000000	6.868747
871.000000	6.911107
872.000000	6.954617
873.000000	7.000762
874.000000	7.046871
875.000000	7.093948
876.000000	7.137454
877.000000	7.183074
878.000000	7.229803
879.000000	7.280109
880.000000	7.328944
881.000000	7.380368
882.000000	7.430285
883.000000	7.481579
884.000000	7.536674
885.000000	7.594437
886.000000	7.654977
887.000000	7.719262
888.000000	7.776183
889.000000	7.828115
890.000000	7.889317
891.000000	7.955804
892.000000	8.008994
893.000000	8.055614
894.000000	8.109257
895.000000	8.163174
896.000000	8.216971
897.000000	8.271563
898.000000	8.325737
899.000000	8.379860
900.000000	8.434269
901.000000	8.488703
902.000000	8.543483
903.000000	8.599060
904.000000	8.654794
905.000000	8.711469
906.000000	8.767666
907.000000	8.824554
908.000000	8.881166
909.000000	8.938397
910.000000	8.996003
911.000000	9.053086
912.000000	9.111251
913.000000	9.167986
914.000000	9.225823
915.000000	9.284006
916.000000	9.341980
917.000000	9.400906
918.000000	9.459603
919.000000	9.518360
920.000000	9.575800
921.000000	9.634146
922.000000	9.692126
923.000000	9.750257
924.000000	9.808757
925.000000	9.866183
926.000000	9.923923
927.000000	9.982077
928.000000	10.039274
929.000000	10.096163
930.000000	10.152606
931.000000	10.209740
932.000000	10.265717
933.000000	10.322280
934.000000	10.378783
935.000000	10.434766
936.000000	10.490457
937.000000	10.546451
938.000000	10.601560
939.000000	10.656246
940.000000	10.709800
941.000000	10.763274
942.000000	10.816594
943.000000	10.869389
944.000000	10.921466
945.000000	10.974117
946.000000	11.026569
947.000000	11.078331
948.000000	11.130734
949.000000	11.182194
950.000000	11.233189
951.000000	11.284731
952.000000	11.334763
953.000000	11.385080
954.000000	11.435517
955.000000	11.485834
956.000000	11.535934
957.000000	11.586257
958.000000	11.636026
959.000000	11.685389
960.000000	11.734486
961.000000	11.784517
962.000000	11.833780
963.000000	11.883094
964.000000	11.931777
965.000000	11.980560
966.000000	12.028886
967.000000	12.077514
968.000000	12.125103
969.000000	12.172926
970.000000	12.220426
971.000000	12.268540
972.000000	12.315320
973.000000	12.361911
974.000000	12.408809
975.000000	12.455834
976.000000	12.503437
977.000000	12.550529
978.000000	12.597491
979.000000	12.644294
980.000000	12.689709
981.000000	12.736089
982.000000	12.782091
983.000000	12.827057
984.000000	12.872489
985.000000	12.917497
986.000000	12.962071
987.000000	13.006857
988.000000	13.051943
989.000000	13.096257
990.000000	13.140709
991.000000	13.184517
992.000000	13.227966
993.000000	13.271580
994.000000	13.314837
995.000000	13.357951
996.000000	13.400549
997.000000	13.442826
998.000000	13.485389
999.000000	13.528643
1000.000000	13.571140
1001.000000	13.613440
1002.000000	13.655869
1003.000000	13.699037
1004.000000	13.740929
1005.000000	13.782680
1006.000000	13.824320
1007.000000	13.866060
1008.000000	13.907831
1009.000000	13.949503
1010.000000	13.991071
1011.000000	14.032100
1012.000000	14.072411
1013.000000	14.112374
1014.000000	14.152566
1015.000000	14.192940
1016.000000	14.233240
1017.000000	14.273554
1018.000000	14.313546
1019.000000	14.353631
1020.000000	14.393514
1021.000000	14.432891
1022.000000	14.472594
1023.000000	14.511723
1024.000000	14.551100
1025.000000	14.590711
1026.000000	14.630874
1027.000000	14.671231
1028.000000	14.711457
1029.000000	14.751331
1030.000000	14.791080
1031.000000	14.830989
1032.000000	14.870734
1033.000000	14.910260
1034.000000	14.950023
1035.000000	14.989711
1036.000000	15.028751
1037.000000	15.067677
1038.000000	15.107194
1039.000000	15.147071
1040.000000	15.186706
1041.000000	15.225689
1042.000000	15.264557
1043.000000	15.303534
1044.000000	15.342163
1045.000000	15.380603
1046.000000	15.418860
1047.000000	15.457274
1048.000000	15.496597
1049.000000	15.535766
1050.000000	15.574169
1051.000000	15.612254
1052.000000	15.650017
1053.000000	15.688206
1054.000000	15.726471
1055.000000	15.764743
1056.000000	15.802980
1057.000000	15.841051
1058.000000	15.878786
1059.000000	15.916309
1060.000000	15.953246
1061.000000	15.989951
1062.000000	16.026420
1063.000000	16.062871
1064.000000	16.099626
1065.000000	16.136491
1066.000000	16.173437
1067.000000	16.210663
1068.000000	16.247031
1069.000000	16.282814
1070.000000	16.319577
1071.000000	16.356697
1072.000000	16.393054
1073.000000	16.428366
1074.000000	16.463409
1075.000000	16.498529
1076.000000	16.533649
1077.000000	16.568691
1078.000000	16.603737
1079.000000	16.638831
1080.000000	16.673877
1081.000000	16.708854
1082.000000	16.743583
1083.000000	16.777846
1084.000000	16.811911
1085.000000	16.846611
1086.000000	16.881060
1087.000000	16.915449
1088.000000	16.948843
1089.000000	16.981943
1090.000000	17.015066
1091.000000	17.047851
1092.000000	17.080346
1093.000000	17.112454
1094.000000	17.144969
1095.000000	17.177046
1096.000000	17.208549
1097.000000	17.240151
1098.000000	17.270743
1099.000000	17.301166
1100.000000	17.331880
1101.000000	17.362163
1102.000000	17.392026
1103.000000	17.422029
1104.000000	17.451577
1105.000000	17.479311
1106.000000	17.506906
1107.000000	17.534680
1108.000000	17.562169
1109.000000	17.589797
1110.000000	17.617274
1111.000000	17.644763
1112.000000	17.671694
1113.000000	17.697546
1114.000000	17.722946
1115.000000	17.748200
1116.000000	17.772851
1117.000000	17.796803
1118.000000	17.820934
1119.000000	17.844229
1120.000000	17.866751
1121.000000	17.888766
1122.000000	17.910529
1123.000000	17.932069
1124.000000	17.953043
1125.000000	17.973737
1126.000000	17.993651
1127.000000	18.012549
1128.000000	18.030883
1129.000000	18.047846
1130.000000	18.064397
1131.000000	18.079511
1132.000000	18.092449
1133.000000	18.104677
1134.000000	18.116077
1135.000000	18.126829
1136.000000	18.136860
1137.000000	18.146291
1138.000000	18.153411
1139.000000	18.159634
1140.000000	18.165191
1141.000000	18.169634
1142.000000	18.173251
1143.000000	18.175757
1144.000000	18.177254
1145.000000	18.177409
1146.000000	18.177026
1147.000000	18.177129
1148.000000	18.176743
1149.000000	18.175511
1150.000000	18.173471
1151.000000	18.171586
1152.000000	18.169317
1153.000000	18.165683
1154.000000	18.161486
1155.000000	18.155780
1156.000000	18.149289
1157.000000	18.140849
1158.000000	18.132034
1159.000000	18.122703
1160.000000	18.111526
1161.000000	18.098866
1162.000000	18.084503
1163.000000	18.069246
1164.000000	18.052654
1165.000000	18.035043
1166.000000	18.017417
1167.000000	17.999120
1168.000000	17.980689
1169.000000	17.961009
1170.000000	17.940643
1171.000000	17.919263
1172.000000	17.897437
1173.000000	17.876857
1174.000000	17.856437
1175.000000	17.836469
1176.000000	17.816343
1177.000000	17.795446
1178.000000	17.775363
1179.000000	17.754649
1180.000000	17.734803
1181.000000	17.714109
1182.000000	17.692751
1183.000000	17.672503
1184.000000	17.652480
1185.000000	17.632337
1186.000000	17.611903
1187.000000	17.592289
1188.000000	17.572623
1189.000000	17.554651
1190.000000	17.538214
1191.000000	17.523086
1192.000000	17.509926
1193.000000	17.498689
1194.000000	17.487726
1195.000000	17.479380
1196.000000	17.473640
1197.000000	17.470331
1198.000000	17.469211
1199.000000	17.470066
1200.000000	17.472714
1201.000000	17.476580
1202.000000	17.482889
1203.000000	17.490746
1204.000000	17.500223
1205.000000	17.511000
1206.000000	17.523006
1207.000000	17.535849
1208.000000	17.550471
1209.000000	17.565897
1210.000000	17.582154
1211.000000	17.599411
1212.000000	17.618303
1213.000000	17.636963
1214.000000	17.656880
1215.000000	17.677931
1216.000000	17.699740
1217.000000	17.720880
1218.000000	17.741740
1219.000000	17.763186
1220.000000	17.785077
1221.000000	17.807180
1222.000000	17.829334
1223.000000	17.851617
1224.000000	17.872294
1225.000000	17.892474
1226.000000	17.912554
1227.000000	17.932334
1228.000000	17.950480
1229.000000	17.968189
1230.000000	17.985314
1231.000000	18.002043
1232.000000	18.017929
1233.000000	18.032674
1234.000000	18.047446
1235.000000	18.061211
1236.000000	18.074497
1237.000000	18.087551
1238.000000	18.100194
1239.000000	18.113083
1240.000000	18.124660
1241.000000	18.136574
1242.000000	18.148177
1243.000000	18.158869
1244.000000	18.169757
1245.000000	18.180600
1246.000000	18.191194
1247.000000	18.201566
1248.000000	18.212980
1249.000000	18.223986
1250.000000	18.234454
1251.000000	18.245346
1252.000000	18.257214
1253.000000	18.269066
1254.000000	18.280797
1255.000000	18.292729
1256.000000	18.305177
1257.000000	18.317791
1258.000000	18.330466
1259.000000	18.343726
1260.000000	18.357551
1261.000000	18.370697
1262.000000	18.383583
1263.000000	18.396914
1264.000000	18.411000
1265.000000	18.424700
1266.000000	18.437749
1267.000000	18.450783
1268.000000	18.463877
1269.000000	18.476657
1270.000000	18.489926
1271.000000	18.503129
1272.000000	18.516011
1273.000000	18.529163
1274.000000	18.541643
1275.000000	18.554809
1276.000000	18.567800
1277.000000	18.580349
1278.000000	18.592460
1279.000000	18.604083
1280.000000	18.615657
1281.000000	18.627383
1282.000000	18.638817
1283.000000	18.649431
1284.000000	18.660220
1285.000000	18.670809
1286.000000	18.681269
1287.000000	18.691474
1288.000000	18.701491
1289.000000	18.711791
1290.000000	18.721997
1291.000000	18.731923
1292.000000	18.741457
1293.000000	18.751154
1294.000000	18.761146
1295.000000	18.770746
1296.000000	18.780446
1297.000000	18.790131
1298.000000	18.799969
1299.000000	18.810031
1300.000000	18.819549
1301.000000	18.828986
1302.000000	18.838926
1303.000000	18.848771
1304.000000	18.858349
1305.000000	18.867560
1306.000000	18.876529
1307.000000	18.885454
1308.000000	18.893589
1309.000000	18.901500
1310.000000	18.908311
1311.000000	18.914220
1312.000000	18.920189
1313.000000	18.926109
1314.000000	18.931291
1315.000000	18.935511
1316.000000	18.938671
1317.000000	18.941171
1318.000000	18.942766
1319.000000	18.943389
1320.000000	18.943111
1321.000000	18.941823
1322.000000	18.939766
1323.000000	18.936706
1324.000000	18.932303
1325.000000	18.926740
1326.000000	18.919800
1327.000000	18.912263
1328.000000	18.903597
1329.000000	18.893274
1330.000000	18.882086
1331.000000	18.869657
1332.000000	18.856323
1333.000000	18.841589
1334.000000	18.824823
1335.000000	18.807037
1336.000000	18.788823
1337.000000	18.768794
1338.000000	18.747080
1339.000000	18.723986
1340.000000	18.699554
1341.000000	18.673423
1342.000000	18.645849
1343.000000	18.616697
1344.000000	18.586069
1345.000000	18.553917
1346.000000	18.519854
1347.000000	18.483980
1348.000000	18.446083
1349.000000	18.406451
1350.000000	18.364969
1351.000000	18.321554
1352.000000	18.275903
1353.000000	18.227926
1354.000000	18.179277
1355.000000	18.130709
1356.000000	18.082109
1357.000000	18.032857
1358.000000	17.982754
1359.000000	17.932097
1360.000000	17.879829
1361.000000	17.828580
1362.000000	17.779806
1363.000000	17.731029
1364.000000	17.681137
1365.000000	17.631354
1366.000000	17.582180
1367.000000	17.530986
1368.000000	17.479146
1369.000000	17.427080
1370.000000	17.373406
1371.000000	17.316891
1372.000000	17.259363
1373.000000	17.199377
1374.000000	17.135714
1375.000000	17.068240
1376.000000	16.997960
1377.000000	16.923531
1378.000000	16.845263
1379.000000	16.763069
1380.000000	16.678346
1381.000000	16.593491
1382.000000	16.510271
1383.000000	16.428054
1384.000000	16.346709
1385.000000	16.264751
1386.000000	16.183540
1387.000000	16.102954
1388.000000	16.024689
1389.000000	15.947369
1390.000000	15.868571
1391.000000	15.787920
1392.000000	15.708197
1393.000000	15.629137
1394.000000	15.550743
1395.000000	15.472771
1396.000000	15.396174
1397.000000	15.316543
1398.000000	15.233446
1399.000000	15.149466
1400.000000	15.066114
1401.000000	14.984106
1402.000000	14.901569
1403.000000	14.816203
1404.000000	14.728166
1405.000000	14.641597
1406.000000	14.555500
1407.000000	14.469131
1408.000000	14.383506
1409.000000	14.299431
1410.000000	14.218346
1411.000000	14.138414
1412.000000	14.059691
1413.000000	13.982854
1414.000000	13.910066
1415.000000	13.840137
1416.000000	13.768454
1417.000000	13.693537
1418.000000	13.617811
1419.000000	13.541623
1420.000000	13.465720
1421.000000	13.388946
1422.000000	13.311574
1423.000000	13.233111
1424.000000	13.153369
1425.000000	13.073397
1426.000000	12.993314
1427.000000	12.911326
1428.000000	12.829243
1429.000000	12.746017
1430.000000	12.662477
1431.000000	12.576203
1432.000000	12.489774
1433.000000	12.405994
1434.000000	12.324131
1435.000000	12.240680
1436.000000	12.154826
1437.000000	12.071271
1438.000000	11.991463
1439.000000	11.914651
1440.000000	11.838660
1441.000000	11.764520
1442.000000	11.691531
1443.000000	11.621023
1444.000000	11.552709
1445.000000	11.485877
1446.000000	11.423186
1447.000000	11.363497
1448.000000	11.305889
1449.000000	11.248671
1450.000000	11.192954
1451.000000	11.141206
1452.000000	11.091560
1453.000000	11.042931
1454.000000	10.995194
1455.000000	10.948823
1456.000000	10.903694
1457.000000	10.860503
1458.000000	10.817957
1459.000000	10.775500
1460.000000	10.734600
1461.000000	10.695409
1462.000000	10.657306
1463.000000	10.619449
1464.000000	10.582409
1465.000000	10.545560
1466.000000	10.509406
1467.000000	10.473074
1468.000000	10.437626
1469.000000	10.402217
1470.000000	10.367783
1471.000000	10.334326
1472.000000	10.301757
1473.000000	10.268991
1474.000000	10.236586
1475.000000	10.203457
1476.000000	10.171026
1477.000000	10.139440
1478.000000	10.108946
1479.000000	10.079034
1480.000000	10.049443
1481.000000	10.019289
1482.000000	9.989434
1483.000000	9.961094
1484.000000	9.934069
1485.000000	9.907149
1486.000000	9.880197
1487.000000	9.854749
1488.000000	9.829811
1489.000000	9.805194
1490.000000	9.782277
1491.000000	9.760274
1492.000000	9.739014
1493.000000	9.718866
1494.000000	9.700371
1495.000000	9.681743
1496.000000	9.664203
1497.000000	9.648389
1498.000000	9.633800
1499.000000	9.620640
1500.000000	9.610260
1501.000000	9.600643
1502.000000	9.592574
1503.000000	9.586029
1504.000000	9.581483
1505.000000	9.578700
1506.000000	9.577331
1507.000000	9.576934
1508.000000	9.578423
1509.000000	9.581866
1510.000000	9.587280
1511.000000	9.594060
1512.000000	9.603311
1513.000000	9.613006
1514.000000	9.624134
1515.000000	9.636894
1516.000000	9.650223
1517.000000	9.665249
1518.000000	9.681437
1519.000000	9.698194
1520.000000	9.715674
1521.000000	9.734320
1522.000000	9.753751
1523.000000	9.774400
1524.000000	9.796620
1525.000000	9.819086
1526.000000	9.843214
1527.000000	9.867666
1528.000000	9.892206
1529.000000	9.917414
1530.000000	9.944126
1531.000000	9.971134
1532.000000	9.997843
1533.000000	10.025009
1534.000000	10.052914
1535.000000	10.080260
1536.000000	10.107737
1537.000000	10.135411
1538.000000	10.162883
1539.000000	10.190091
1540.000000	10.216606
1541.000000	10.242431
1542.000000	10.267951
1543.000000	10.293071
1544.000000	10.317277
1545.000000	10.340994
1546.000000	10.364443
1547.000000	10.387129
1548.000000	10.409611
1549.000000	10.431791
1550.000000	10.453920
1551.000000	10.476617
1552.000000	10.499240
1553.000000	10.521426
1554.000000	10.543537
1555.000000	10.565346
1556.000000	10.587094
1557.000000	10.608700
1558.000000	10.629689
1559.000000	10.649766
1560.000000	10.669151
1561.000000	10.687534
1562.000000	10.705460
1563.000000	10.723197
1564.000000	10.740111
1565.000000	10.756020
1566.000000	10.770997
1567.000000	10.785120
1568.000000	10.797949
1569.000000	10.809003
1570.000000	10.819834
1571.000000	10.830286
1572.000000	10.840306
1573.000000	10.849817
1574.000000	10.858903
1575.000000	10.867649
1576.000000	10.876143
1577.000000	10.884620
1578.000000	10.892760
1579.000000	10.900463
1580.000000	10.908306
1581.000000	10.915977
1582.000000	10.923217
1583.000000	10.930089
1584.000000	10.936826
1585.000000	10.943071
1586.000000	10.948983
1587.000000	10.955249
1588.000000	10.961531
1589.000000	10.967249
1590.000000	10.972309
1591.000000	10.977040
1592.000000	10.982054
1593.000000	10.988040
1594.000000	10.994657
1595.000000	11.001460
1596.000000	11.008763
1597.000000	11.017271
1598.000000	11.026494
1599.000000	11.036420
1600.000000	11.047057
1601.000000	11.058606
1602.000000	11.071471
1603.000000	11.085509
1604.000000	11.101354
1605.000000	11.118354
1606.000000	11.136017
1607.000000	11.154497
1608.000000	11.173557
1609.000000	11.193540
1610.000000	11.214343
1611.000000	11.235857
1612.000000	11.257771
1613.000000	11.279657
1614.000000	11.302091
1615.000000	11.325194
1616.000000	11.348154
1617.000000	11.371023
1618.000000	11.394283
1619.000000	11.417297
1620.000000	11.439880
1621.000000	11.462654
1622.000000	11.485200
1623.000000	11.507340
1624.000000	11.529943
1625.000000	11.553149
1626.000000	11.575826
1627.000000	11.598094
1628.000000	11.620180
1629.000000	11.642060
1630.000000	11.663786
1631.000000	11.685229
1632.000000	11.705971
1633.000000	11.726506
1634.000000	11.746186
1635.000000	11.765646
1636.000000	11.784526
1637.000000	11.803100
1638.000000	11.820760
1639.000000	11.837440
1640.000000	11.852680
1641.000000	11.867929
1642.000000	11.882591
1643.000000	11.896594
1644.000000	11.909763
1645.000000	11.922060
1646.000000	11.933677
1647.000000	11.944691
1648.000000	11.955566
1649.000000	11.965297
1650.000000	11.974817
1651.000000	11.983706
1652.000000	11.991720
1653.000000	11.998520
1654.000000	12.004911
1655.000000	12.010594
1656.000000	12.014640
1657.000000	12.016766
1658.000000	12.017540
1659.000000	12.016894
1660.000000	12.015129
1661.000000	12.011851
1662.000000	12.006357
1663.000000	11.998337
1664.000000	11.988500
1665.000000	11.976303
1666.000000	11.962466
1667.000000	11.946380
1668.000000	11.926120
1669.000000	11.904089
1670.000000	11.880186
1671.000000	11.853800
1672.000000	11.825169
1673.000000	11.794911
1674.000000	11.762300
1675.000000	11.729117
1676.000000	11.693057
1677.000000	11.655134
1678.000000	11.615629
1679.000000	11.573883
1680.000000	11.529960
1681.000000	11.482883
1682.000000	11.433431
1683.000000	11.381337
1684.000000	11.327777
1685.000000	11.271840
1686.000000	11.214049
1687.000000	11.156143
1688.000000	11.098986
1689.000000	11.042506
1690.000000	10.987626
1691.000000	10.935397
1692.000000	10.885480
1693.000000	10.838571
1694.000000	10.794014
1695.000000	10.751589
1696.000000	10.710954
1697.000000	10.673654
1698.000000	10.638494
1699.000000	10.604306
1700.000000	10.572609
1701.000000	10.542254
1702.000000	10.513680
1703.000000	10.488240
1704.000000	10.464803
1705.000000	10.441711
1706.000000	10.419877
1707.000000	10.399623
1708.000000	10.379914
1709.000000	10.360597
1710.000000	10.341080
1711.000000	10.321894
1712.000000	10.303166
1713.000000	10.283349
1714.000000	10.263446
1715.000000	10.243166
1716.000000	10.222914
1717.000000	10.201817
1718.000000	10.180637
1719.000000	10.159206
1720.000000	10.136006
1721.000000	10.113569
1722.000000	10.090374
1723.000000	10.066474
1724.000000	10.041394
1725.000000	10.016303
1726.000000	9.988883
1727.000000	9.961469
1728.000000	9.933563
1729.000000	9.904674
1730.000000	9.875909
1731.000000	9.847786
1732.000000	9.819169
1733.000000	9.790734
1734.000000	9.763074
1735.000000	9.736171
1736.000000	9.710014
1737.000000	9.684937
1738.000000	9.660920
1739.000000	9.638963
1740.000000	9.619297
1741.000000	9.601786
1742.000000	9.585520
1743.000000	9.571966
1744.000000	9.561451
1745.000000	9.552957
1746.000000	9.546940
1747.000000	9.543263
1748.000000	9.542611
1749.000000	9.544940
1750.000000	9.550386
1751.000000	9.559151
1752.000000	9.570943
1753.000000	9.585820
1754.000000	9.603234
1755.000000	9.623629
1756.000000	9.645137
1757.000000	9.667909
1758.000000	9.691400
1759.000000	9.715703
1760.000000	9.739157
1761.000000	9.762594
1762.000000	9.784980
1763.000000	9.806269
1764.000000	9.827186
1765.000000	9.846974
1766.000000	9.865977
1767.000000	9.884371
1768.000000	9.902191
1769.000000	9.919797
1770.000000	9.937097
1771.000000	9.953977
1772.000000	9.970354
1773.000000	9.986394
1774.000000	10.001266
1775.000000	10.015131
1776.000000	10.028671
1777.000000	10.041969
1778.000000	10.054697
1779.000000	10.066966
1780.000000	10.078200
1781.000000	10.088974
1782.000000	10.099429
1783.000000	10.109323
1784.000000	10.118469
1785.000000	10.127060
1786.000000	10.135454
1787.000000	10.144014
1788.000000	10.152060
1789.000000	10.160049
1790.000000	10.168617
1791.000000	10.177343
1792.000000	10.186191
1793.000000	10.195614
1794.000000	10.205074
1795.000000	10.214166
1796.000000	10.223823
1797.000000	10.233617
1798.000000	10.243337
1799.000000	10.252837
1800.000000	10.261951
1801.000000	10.271297
1802.000000	10.280834
1803.000000	10.290700
1804.000000	10.299977
1805.000000	10.308600
1806.000000	10.317549
1807.000000	10.326929
1808.000000	10.336129
1809.000000	10.343723
1810.000000	10.350474
1811.000000	10.356971
1812.000000	10.363880
1813.000000	10.370269
1814.000000	10.375834
1815.000000	10.381654
1816.000000	10.387240
1817.000000	10.391343
1818.000000	10.393949
1819.000000	10.395574
1820.000000	10.398223
1821.000000	10.403120
1822.000000	10.409060
1823.000000	10.414040
1824.000000	10.417197
1825.000000	10.418706
1826.000000	10.419674
1827.000000	10.421246
1828.000000	10.423229
1829.000000	10.425429
1830.000000	10.428669
1831.000000	10.432860
1832.000000	10.436471
1833.000000	10.438877
1834.000000	10.440363
1835.000000	10.441406
1836.000000	10.442729
1837.000000	10.445129
1838.000000	10.447954
1839.000000	10.451300
1840.000000	10.455331
1841.000000	10.460277
1842.000000	10.466414
1843.000000	10.473209
1844.000000	10.479040
1845.000000	10.482314
1846.000000	10.482534
1847.000000	10.482449
1848.000000	10.486014
1849.000000	10.493269
1850.000000	10.500611
1851.000000	10.505226
1852.000000	10.507863
1853.000000	10.511591
1854.000000	10.516549
1855.000000	10.520834
1856.000000	10.522783
1857.000000	10.521974
1858.000000	10.520631
1859.000000	10.521749
1860.000000	10.525369
1861.000000	10.529463
1862.000000	10.532329
1863.000000	10.532280
1864.000000	10.529546
1865.000000	10.523340
1866.000000	10.513020
1867.000000	10.500406
1868.000000	10.487049
1869.000000	10.473014
1870.000000	10.459357
1871.000000	10.445626
1872.000000	10.429429
1873.000000	10.411871
1874.000000	10.392603
1875.000000	10.371040
1876.000000	10.345869
1877.000000	10.315531
1878.000000	10.281334
1879.000000	10.245329
1880.000000	10.208686
1881.000000	10.170314
1882.000000	10.127589
1883.000000	10.077034
1884.000000	10.019369
1885.000000	9.957406
1886.000000	9.894100
1887.000000	9.828134
1888.000000	9.756797
1889.000000	9.679089
1890.000000	9.596337
1891.000000	9.508757
1892.000000	9.418023
1893.000000	9.324171
1894.000000	9.224017
1895.000000	9.117257
1896.000000	9.004129
1897.000000	8.885526
1898.000000	8.763377
1899.000000	8.638886
1900.000000	8.512743
1901.000000	8.385289
1902.000000	8.255603
1903.000000	8.123323
1904.000000	7.988669
1905.000000	7.850817
1906.000000	7.709923
1907.000000	7.566863
1908.000000	7.421629
1909.000000	7.274463
1910.000000	7.125254
1911.000000	6.975197
1912.000000	6.825477
1913.000000	6.677377
1914.000000	6.531871
1915.000000	6.388346
1916.000000	6.247103
1917.000000	6.107269
1918.000000	5.969969
1919.000000	5.833997
1920.000000	5.701374
1921.000000	5.571980
1922.000000	5.447537
1923.000000	5.328466
1924.000000	5.214886
1925.000000	5.104114
1926.000000	4.997531
1927.000000	4.895794
1928.000000	4.798391
1929.000000	4.705874
1930.000000	4.619166
1931.000000	4.538680
1932.000000	4.463974
1933.000000	4.394314
1934.000000	4.329654
1935.000000	4.268757
1936.000000	4.212006
1937.000000	4.160483
1938.000000	4.112931
1939.000000	4.070274
1940.000000	4.031540
1941.000000	3.995894
1942.000000	3.963731
1943.000000	3.934391
1944.000000	3.908709
1945.000000	3.886880
1946.000000	3.868351
1947.000000	3.853449
1948.000000	3.841106
1949.000000	3.830249
1950.000000	3.821523
1951.000000	3.815566
1952.000000	3.811869
1953.000000	3.810303
1954.000000	3.811811
1955.000000	3.814857
1956.000000	3.820154
1957.000000	3.825440
1958.000000	3.832494
1959.000000	3.840906
1960.000000	3.851223
1961.000000	3.862754
1962.000000	3.875620
1963.000000	3.889477
1964.000000	3.905374
1965.000000	3.920640
1966.000000	3.937266
1967.000000	3.955054
1968.000000	3.973660
1969.000000	3.992317
1970.000000	4.012560
1971.000000	4.033463
1972.000000	4.054840
1973.000000	4.077363
1974.000000	4.099526
1975.000000	4.122323
1976.000000	4.145077
1977.000000	4.168103
1978.000000	4.191029
1979.000000	4.214346
1980.000000	4.239029
1981.000000	4.263791
1982.000000	4.287883
1983.000000	4.311831
1984.000000	4.335943
1985.000000	4.360403
1986.000000	4.385131
1987.000000	4.410577
1988.000000	4.435520
1989.000000	4.460494
1990.000000	4.485049
1991.000000	4.509603
1992.000000	4.535049
1993.000000	4.559689
1994.000000	4.583703
1995.000000	4.608137
1996.000000	4.632649
1997.000000	4.657046
1998.000000	4.681309
1999.000000	4.704331
2000.000000	4.727483
2001.000000	4.750397
2002.000000	4.773243
2003.000000	4.795171
2004.000000	4.816746
2005.000000	4.837911
2006.000000	4.858411
2007.000000	4.878191
2008.000000	4.897391
2009.000000	4.916349
2010.000000	4.933357
2011.000000	4.950383
2012.000000	4.965714
2013.000000	4.980743
2014.000000	4.995234
2015.000000	5.007363
2016.000000	5.018857
2017.000000	5.029369
2018.000000	5.038411
2019.000000	5.046177
2020.000000	5.052746
2021.000000	5.057317
2022.000000	5.060289
2023.000000	5.062280
2024.000000	5.062337
2025.000000	5.061360
2026.000000	5.058054
2027.000000	5.052683
2028.000000	5.046723
2029.000000	5.039309
2030.000000	5.030871
2031.000000	5.020460
2032.000000	5.007506
2033.000000	4.993006
2034.000000	4.977671
2035.000000	4.961117
2036.000000	4.941971
2037.000000	4.921134
2038.000000	4.899914
2039.000000	4.876931
2040.000000	4.851866
2041.000000	4.825437
2042.000000	4.797243
2043.000000	4.767440
2044.000000	4.736700
2045.000000	4.705294
2046.000000	4.671654
2047.000000	4.637646
2048.000000	4.603034
2049.000000	4.566977
2050.000000	4.531149
2051.000000	4.494963
2052.000000	4.459060
2053.000000	4.423903
2054.000000	4.389091
2055.000000	4.354574
2056.000000	4.321566
2057.000000	4.289734
2058.000000	4.259060
2059.000000	4.230017
2060.000000	4.201986
2061.000000	4.175471
2062.000000	4.151620
2063.000000	4.129060
2064.000000	4.108337
2065.000000	4.089300
2066.000000	4.072663
2067.000000	4.057851
2068.000000	4.044880
2069.000000	4.033589
2070.000000	4.024203
2071.000000	4.017071
2072.000000	4.011931
2073.000000	4.008051
2074.000000	4.005914
2075.000000	4.006037
2076.000000	4.008191
2077.000000	4.012109
2078.000000	4.017800
2079.000000	4.024529
2080.000000	4.033137
2081.000000	4.043334
2082.000000	4.054600
2083.000000	4.066763
2084.000000	4.080354
2085.000000	4.094443
2086.000000	4.109023
2087.000000	4.123311
2088.000000	4.137103
2089.000000	4.150963
2090.000000	4.164843
2091.000000	4.178440
2092.000000	4.191334
2093.000000	4.203214
2094.000000	4.214160
2095.000000	4.224220
2096.000000	4.233300
2097.000000	4.241026
2098.000000	4.247931
2099.000000	4.254460
2100.000000	4.259637
2101.000000	4.263297
2102.000000	4.266237
2103.000000	4.268797
2104.000000	4.270709
2105.000000	4.271651
2106.000000	4.271606
2107.000000	4.270191
2108.000000	4.267917
2109.000000	4.265826
2110.000000	4.263209
2111.000000	4.260306
2112.000000	4.257237
2113.000000	4.253140
2114.000000	4.248077
2115.000000	4.242386
2116.000000	4.236686
2117.000000	4.230806
2118.000000	4.224166
2119.000000	4.217346
2120.000000	4.210497
2121.000000	4.203077
2122.000000	4.195657
2123.000000	4.188249
2124.000000	4.180666
2125.000000	4.172971
2126.000000	4.164723
2127.000000	4.156040
2128.000000	4.147051
2129.000000	4.137826
2130.000000	4.128423
2131.000000	4.118783
2132.000000	4.108511
2133.000000	4.097360
2134.000000	4.085786
2135.000000	4.073977
2136.000000	4.061680
2137.000000	4.048457
2138.000000	4.034400
2139.000000	4.019466
2140.000000	4.004229
2141.000000	3.988786
2142.000000	3.972894
2143.000000	3.956657
2144.000000	3.939520
2145.000000	3.920954
2146.000000	3.901446
2147.000000	3.881146
2148.000000	3.859980
2149.000000	3.839029
2150.000000	3.817789
2151.000000	3.795709
2152.000000	3.773457
2153.000000	3.750946
2154.000000	3.727640
2155.000000	3.704203
2156.000000	3.680697
2157.000000	3.657751
2158.000000	3.634097
2159.000000	3.610017
2160.000000	3.586171
2161.000000	3.562594
2162.000000	3.539471
2163.000000	3.516286
2164.000000	3.493569
2165.000000	3.471560
2166.000000	3.449491
2167.000000	3.428211
2168.000000	3.407429
2169.000000	3.387231
2170.000000	3.367117
2171.000000	3.347440
2172.000000	3.328523
2173.000000	3.310269
2174.000000	3.292991
2175.000000	3.276486
2176.000000	3.259963
2177.000000	3.243720
2178.000000	3.228289
2179.000000	3.213717
2180.000000	3.200203
2181.000000	3.187386
2182.000000	3.175089
2183.000000	3.163443
2184.000000	3.152280
2185.000000	3.140791
2186.000000	3.131014
2187.000000	3.120849
2188.000000	3.110986
2189.000000	3.101289
2190.000000	3.090731
2191.000000	3.080380
2192.000000	3.068729
2193.000000	3.057777
2194.000000	3.046414
2195.000000	3.034214
2196.000000	3.020771
2197.000000	3.006563
2198.000000	2.992766
2199.000000	2.977851
2200.000000	2.961429
2201.000000	2.945194
2202.000000	2.928694
2203.000000	2.911663
2204.000000	2.892909
2205.000000	2.874429
2206.000000	2.856146
2207.000000	2.837897
2208.000000	2.819111
2209.000000	2.800203
2210.000000	2.781391
2211.000000	2.763451
2212.000000	2.746900
2213.000000	2.730714
2214.000000	2.714843
2215.000000	2.699706
2216.000000	2.685460
2217.000000	2.671646
2218.000000	2.659594
2219.000000	2.647894
2220.000000	2.638477
2221.000000	2.628469
2222.000000	2.620606
2223.000000	2.613626
2224.000000	2.607554
2225.000000	2.603486
2226.000000	2.600517
2227.000000	2.599631
2228.000000	2.599177
2229.000000	2.600674
2230.000000	2.602526
2231.000000	2.606111
2232.000000	2.611340
2233.000000	2.617217
2234.000000	2.624314
2235.000000	2.633009
2236.000000	2.641551
2237.000000	2.649991
2238.000000	2.659923
2239.000000	2.669746
2240.000000	2.679811
2241.000000	2.689203
2242.000000	2.699089
2243.000000	2.707783
2244.000000	2.716720
2245.000000	2.725049
2246.000000	2.731506
2247.000000	2.736543
2248.000000	2.740640
2249.000000	2.743489
2250.000000	2.745520
2251.000000	2.745320
2252.000000	2.744089
2253.000000	2.741257
2254.000000	2.737129
2255.000000	2.730423
2256.000000	2.723403
2257.000000	2.714503
2258.000000	2.704997
2259.000000	2.694749
2260.000000	2.683351
2261.000000	2.670526
2262.000000	2.656997
2263.000000	2.643549
2264.000000	2.628134
2265.000000	2.613920
2266.000000	2.599037
2267.000000	2.583526
2268.000000	2.568220
2269.000000	2.552371
2270.000000	2.536389
2271.000000	2.521846
2272.000000	2.507960
2273.000000	2.492403
2274.000000	2.478777
2275.000000	2.465457
2276.000000	2.453403
2277.000000	2.440986
2278.000000	2.429931
2279.000000	2.418806
2280.000000	2.408114
2281.000000	2.399109
2282.000000	2.390320
2283.000000	2.381929
2284.000000	2.374400
2285.000000	2.367591
2286.000000	2.362089
2287.000000	2.357429
2288.000000	2.353343
2289.000000	2.350311
2290.000000	2.348243
2291.000000	2.346669
2292.000000	2.345751
2293.000000	2.345029
2294.000000	2.344871
2295.000000	2.344731
2296.000000	2.345569
2297.000000	2.346286
2298.000000	2.346606
2299.000000	2.348183
2300.000000	2.349283
2301.000000	2.350611
2302.000000	2.352223
2303.000000	2.353711
2304.000000	2.355814
2305.000000	2.358580
2306.000000	2.360360
2307.000000	2.361931
2308.000000	2.364880
2309.000000	2.367660
2310.000000	2.370194
2311.000000	2.372494
2312.000000	2.375566
2313.000000	2.378257
2314.000000	2.380797
2315.000000	2.383900
2316.000000	2.386937
2317.000000	2.390443
2318.000000	2.393463
2319.000000	2.396420
2320.000000	2.398986
2321.000000	2.401574
2322.000000	2.403660
2323.000000	2.405857
2324.000000	2.408094
2325.000000	2.410046
2326.000000	2.411051
2327.000000	2.412074
2328.000000	2.412777
2329.000000	2.413014
2330.000000	2.413737
2331.000000	2.414120
2332.000000	2.414671
2333.000000	2.415654
2334.000000	2.416206
2335.000000	2.416663
2336.000000	2.417534
2337.000000	2.418171
2338.000000	2.418526
2339.000000	2.418823
2340.000000	2.418506
2341.000000	2.418489
2342.000000	2.418960
2343.000000	2.419209
2344.000000	2.418769
2345.000000	2.418017
2346.000000	2.417757
2347.000000	2.416891
2348.000000	2.416354
2349.000000	2.415883
2350.000000	2.415211
2351.000000	2.414889
2352.000000	2.414531
2353.000000	2.415037
2354.000000	2.415591
2355.000000	2.416337
2356.000000	2.416766
2357.000000	2.417786
2358.000000	2.419131
2359.000000	2.419986
2360.000000	2.421346
2361.000000	2.423349
2362.000000	2.425089
2363.000000	2.427300
2364.000000	2.430183
2365.000000	2.432751
2366.000000	2.435106
2367.000000	2.437597
2368.000000	2.440140
2369.000000	2.443203
2370.000000	2.445991
2371.000000	2.448134
2372.000000	2.450597
2373.000000	2.453083
2374.000000	2.455531
2375.000000	2.458343
2376.000000	2.460889
2377.000000	2.463063
2378.000000	2.464880
2379.000000	2.466706
2380.000000	2.469074
2381.000000	2.470971
2382.000000	2.472857
2383.000000	2.475006
2384.000000	2.476574
2385.000000	2.478029
2386.000000	2.479229
2387.000000	2.479954
2388.000000	2.480529
2389.000000	2.480766
2390.000000	2.480286
2391.000000	2.479986
2392.000000	2.479797
2393.000000	2.479149
2394.000000	2.478317
2395.000000	2.477206
2396.000000	2.476180
2397.000000	2.475320
2398.000000	2.474046
2399.000000	2.472271
2400.000000	2.470217
2401.000000	2.468049
2402.000000	2.465526
2403.000000	2.462589
2404.000000	2.459023
2405.000000	2.455263
2406.000000	2.451763
2407.000000	2.447880
2408.000000	2.443877
2409.000000	2.438957
2410.000000	2.433431
2411.000000	2.427589
2412.000000	2.420760
2413.000000	2.414074
2414.000000	2.407406
2415.000000	2.399903
2416.000000	2.391803
2417.000000	2.383429
2418.000000	2.374106
2419.000000	2.364717
2420.000000	2.354534
2421.000000	2.343586
2422.000000	2.332231
2423.000000	2.320426
2424.000000	2.308137
2425.000000	2.295634
2426.000000	2.282789
2427.000000	2.269583
2428.000000	2.255931
2429.000000	2.242703
2430.000000	2.228677
2431.000000	2.213680
2432.000000	2.198100
2433.000000	2.181811
2434.000000	2.166026
2435.000000	2.150434
2436.000000	2.134271
2437.000000	2.117969
2438.000000	2.100574
2439.000000	2.083471
2440.000000	2.066754
2441.000000	2.049177
2442.000000	2.031383
2443.000000	2.013460
2444.000000	1.996009
2445.000000	1.978234
2446.000000	1.960617
2447.000000	1.942846
2448.000000	1.924871
2449.000000	1.907134
2450.000000	1.888791
2451.000000	1.870803
2452.000000	1.853417
2453.000000	1.835940
2454.000000	1.818094
2455.000000	1.801540
2456.000000	1.785131
2457.000000	1.768357
2458.000000	1.751857
2459.000000	1.736937
2460.000000	1.721674
2461.000000	1.707554
2462.000000	1.692794
2463.000000	1.678351
2464.000000	1.663317
2465.000000	1.650249
2466.000000	1.638091
2467.000000	1.624726
2468.000000	1.612331
2469.000000	1.601140
2470.000000	1.589820
2471.000000	1.578986
2472.000000	1.567889
2473.000000	1.557909
2474.000000	1.548274
2475.000000	1.538389
2476.000000	1.530457
2477.000000	1.522240
2478.000000	1.515083
2479.000000	1.506437
2480.000000	1.497694
2481.000000	1.491457
2482.000000	1.485503
2483.000000	1.480137
2484.000000	1.473197
2485.000000	1.470291
2486.000000	1.466729
2487.000000	1.463397
2488.000000	1.459417
2489.000000	1.457014
2490.000000	1.454811
2491.000000	1.452940
2492.000000	1.452711
2493.000000	1.449003
2494.000000	1.446746
2495.000000	1.445431
2496.000000	1.448514
2497.000000	1.447557
2498.000000	1.451980
2499.000000	1.456406
2500.000000	1.461240
