PE UV       SUBTECH     SPECTRUM    ASCII       PEDS        4.00        
   -1
ANGSOL0008-1.Sample.ASC
24/03/07
16:25:04.00
24/03/07
16:25:04.00
Vinicio Soto Monge
Chrysina auripes. Mexico, Oaxaca, La Esperanza. 1-VII-1992. J. Blackaller col.
250,000000
1
Lambda 1050
1050L1511233
PerkinElmer UV WinLab 6.3.2.0749 / 2.02.05 Lambda 900 UV/VIS/NIR, Aug  7 2015 09:38:08

0
0
3350/servo 860,8/2
0
0
UV/VIS
1
1
1
DoubleDePol,CommonBeamDepol,RBeamAtt,SBeamAtt,60mm sphere, WB InGaAs Detector
0
0
0
0
Program
Program
3350/servo 860,8/2
3350/0,2 860,8/0,2
3350/0,2 860,8/0,2
0
15.00
 
 
 
0
 
860,8
319,2
860,8
Front
100
on
S:100 R:100
0
0
0
0
 
0
 
 
 
0
 
 
0
0
0
0
0
 
 
 
 
0
0


0
0
#HDR
-1
-1
#GR
nm
%R
1.0
0.0
2500,000000
-1,000000
2251
8
21,534400
1,723600
#DATA
250.000000	nan
251.000000	nan
252.000000	nan
253.000000	nan
254.000000	nan
255.000000	nan
256.000000	nan
257.000000	nan
258.000000	nan
259.000000	nan
260.000000	nan
261.000000	nan
262.000000	nan
263.000000	nan
264.000000	nan
265.000000	nan
266.000000	nan
267.000000	nan
268.000000	nan
269.000000	nan
270.000000	nan
271.000000	nan
272.000000	nan
273.000000	nan
274.000000	nan
275.000000	nan
276.000000	nan
277.000000	nan
278.000000	nan
279.000000	nan
280.000000	nan
281.000000	nan
282.000000	nan
283.000000	nan
284.000000	2.046563
285.000000	2.042643
286.000000	2.039680
287.000000	2.035833
288.000000	2.031209
289.000000	2.026308
290.000000	2.022887
291.000000	2.018956
292.000000	2.016234
293.000000	2.011199
294.000000	2.006508
295.000000	2.002733
296.000000	1.999410
297.000000	1.996660
298.000000	1.994378
299.000000	1.990067
300.000000	1.987448
301.000000	1.984849
302.000000	1.982570
303.000000	1.980137
304.000000	1.976867
305.000000	1.974487
306.000000	1.972439
307.000000	1.969975
308.000000	1.968690
309.000000	1.969621
310.000000	1.969125
311.000000	1.968172
312.000000	1.968486
313.000000	1.968705
314.000000	1.970220
315.000000	1.968768
316.000000	1.967978
317.000000	1.980949
318.000000	1.991107
319.000000	1.998466
320.000000	2.001015
321.000000	2.011754
322.000000	2.025305
323.000000	2.030049
324.000000	2.034322
325.000000	2.037790
326.000000	2.049372
327.000000	2.055922
328.000000	2.062954
329.000000	2.067021
330.000000	2.070068
331.000000	2.071344
332.000000	2.074354
333.000000	2.076897
334.000000	2.081061
335.000000	2.081616
336.000000	2.080324
337.000000	2.080017
338.000000	2.080823
339.000000	2.086206
340.000000	2.092615
341.000000	2.092618
342.000000	2.092684
343.000000	2.092991
344.000000	2.090931
345.000000	2.093013
346.000000	2.096054
347.000000	2.098942
348.000000	2.099748
349.000000	2.098227
350.000000	2.099472
351.000000	2.103215
352.000000	2.091358
353.000000	2.078452
354.000000	2.070313
355.000000	2.066297
356.000000	2.055815
357.000000	2.044694
358.000000	2.040781
359.000000	2.037677
360.000000	2.033836
361.000000	2.024411
362.000000	2.019561
363.000000	2.015359
364.000000	2.014892
365.000000	2.012973
366.000000	2.014250
367.000000	2.012851
368.000000	2.013500
369.000000	2.013331
370.000000	2.012892
371.000000	2.016137
372.000000	2.017887
373.000000	2.017071
374.000000	2.011321
375.000000	2.006405
376.000000	2.007377
377.000000	2.004834
378.000000	2.003470
379.000000	2.002893
380.000000	2.000492
381.000000	1.997642
382.000000	1.994559
383.000000	1.994616
384.000000	1.995873
385.000000	1.997557
386.000000	1.997623
387.000000	2.000037
388.000000	2.005982
389.000000	2.011462
390.000000	2.017084
391.000000	2.021364
392.000000	2.025656
393.000000	2.032654
394.000000	2.039662
395.000000	2.047719
396.000000	2.054865
397.000000	2.062870
398.000000	2.072019
399.000000	2.081933
400.000000	2.093690
401.000000	2.105561
402.000000	2.118848
403.000000	2.130474
404.000000	2.143981
405.000000	2.160959
406.000000	2.176733
407.000000	2.193081
408.000000	2.212269
409.000000	2.232571
410.000000	2.253183
411.000000	2.273616
412.000000	2.297498
413.000000	2.321201
414.000000	2.345080
415.000000	2.369404
416.000000	2.393691
417.000000	2.418112
418.000000	2.442493
419.000000	2.467008
420.000000	2.491959
421.000000	2.516782
422.000000	2.540884
423.000000	2.565107
424.000000	2.589657
425.000000	2.613887
426.000000	2.637970
427.000000	2.661375
428.000000	2.684380
429.000000	2.706681
430.000000	2.728607
431.000000	2.750558
432.000000	2.772229
433.000000	2.793358
434.000000	2.813701
435.000000	2.833544
436.000000	2.853209
437.000000	2.872200
438.000000	2.890363
439.000000	2.907843
440.000000	2.924742
441.000000	2.941137
442.000000	2.956802
443.000000	2.971522
444.000000	2.985612
445.000000	2.998834
446.000000	3.011592
447.000000	3.023876
448.000000	3.035449
449.000000	3.046125
450.000000	3.055772
451.000000	3.064507
452.000000	3.072710
453.000000	3.080206
454.000000	3.086950
455.000000	3.092597
456.000000	3.097429
457.000000	3.102119
458.000000	3.106352
459.000000	3.109933
460.000000	3.112811
461.000000	3.114996
462.000000	3.116880
463.000000	3.118530
464.000000	3.119912
465.000000	3.120693
466.000000	3.120941
467.000000	3.121232
468.000000	3.121602
469.000000	3.121963
470.000000	3.122298
471.000000	3.122509
472.000000	3.123132
473.000000	3.124302
474.000000	3.125841
475.000000	3.128080
476.000000	3.131156
477.000000	3.135031
478.000000	3.139784
479.000000	3.145732
480.000000	3.153025
481.000000	3.161004
482.000000	3.169887
483.000000	3.180469
484.000000	3.193089
485.000000	3.208138
486.000000	3.225540
487.000000	3.245148
488.000000	3.267246
489.000000	3.292153
490.000000	3.319892
491.000000	3.350477
492.000000	3.384229
493.000000	3.421089
494.000000	3.461030
495.000000	3.504304
496.000000	3.551024
497.000000	3.601099
498.000000	3.654604
499.000000	3.711596
500.000000	3.772136
501.000000	3.836239
502.000000	3.904132
503.000000	3.975693
504.000000	4.050509
505.000000	4.128865
506.000000	4.210927
507.000000	4.296196
508.000000	4.384739
509.000000	4.476614
510.000000	4.571597
511.000000	4.669646
512.000000	4.770128
513.000000	4.873152
514.000000	4.978889
515.000000	5.086956
516.000000	5.197521
517.000000	5.310121
518.000000	5.424750
519.000000	5.540677
520.000000	5.657842
521.000000	5.776315
522.000000	5.895825
523.000000	6.016311
524.000000	6.137455
525.000000	6.258878
526.000000	6.380668
527.000000	6.502489
528.000000	6.624687
529.000000	6.746991
530.000000	6.869082
531.000000	6.990646
532.000000	7.112076
533.000000	7.233126
534.000000	7.353533
535.000000	7.473112
536.000000	7.591836
537.000000	7.708989
538.000000	7.824235
539.000000	7.938171
540.000000	8.050680
541.000000	8.160913
542.000000	8.269212
543.000000	8.375312
544.000000	8.479036
545.000000	8.580845
546.000000	8.679640
547.000000	8.776206
548.000000	8.870840
549.000000	8.962568
550.000000	9.051274
551.000000	9.137343
552.000000	9.220759
553.000000	9.301068
554.000000	9.378339
555.000000	9.452189
556.000000	9.522600
557.000000	9.589198
558.000000	9.651746
559.000000	9.709935
560.000000	9.757655
561.000000	9.800456
562.000000	9.839153
563.000000	9.872917
564.000000	9.902057
565.000000	9.926316
566.000000	9.945808
567.000000	9.959977
568.000000	9.969160
569.000000	9.973202
570.000000	9.972731
571.000000	9.967210
572.000000	9.956578
573.000000	9.941945
574.000000	9.923190
575.000000	9.899511
576.000000	9.871566
577.000000	9.838754
578.000000	9.801945
579.000000	9.761123
580.000000	9.716366
581.000000	9.667965
582.000000	9.616178
583.000000	9.560613
584.000000	9.502001
585.000000	9.441200
586.000000	9.378085
587.000000	9.313114
588.000000	9.246215
589.000000	9.177579
590.000000	9.107579
591.000000	9.036500
592.000000	8.964444
593.000000	8.891782
594.000000	8.818179
595.000000	8.749687
596.000000	8.681559
597.000000	8.612117
598.000000	8.541866
599.000000	8.471223
600.000000	8.400323
601.000000	8.329712
602.000000	8.259589
603.000000	8.189197
604.000000	8.119185
605.000000	8.049501
606.000000	7.980282
607.000000	7.912245
608.000000	7.844681
609.000000	7.777760
610.000000	7.712215
611.000000	7.648232
612.000000	7.586136
613.000000	7.525921
614.000000	7.468193
615.000000	7.411920
616.000000	7.358167
617.000000	7.306289
618.000000	7.256911
619.000000	7.209454
620.000000	7.163888
621.000000	7.120504
622.000000	7.079380
623.000000	7.040009
624.000000	7.002423
625.000000	6.967062
626.000000	6.933407
627.000000	6.901502
628.000000	6.871452
629.000000	6.843601
630.000000	6.818324
631.000000	6.795166
632.000000	6.775291
633.000000	6.758021
634.000000	6.742868
635.000000	6.730458
636.000000	6.720112
637.000000	6.711957
638.000000	6.706799
639.000000	6.704338
640.000000	6.703999
641.000000	6.706115
642.000000	6.711060
643.000000	6.718205
644.000000	6.727423
645.000000	6.738664
646.000000	6.751936
647.000000	6.767622
648.000000	6.785484
649.000000	6.804798
650.000000	6.825742
651.000000	6.848291
652.000000	6.872917
653.000000	6.898388
654.000000	6.925255
655.000000	6.953154
656.000000	6.981974
657.000000	7.011647
658.000000	7.042725
659.000000	7.074677
660.000000	7.107786
661.000000	7.142191
662.000000	7.177432
663.000000	7.213348
664.000000	7.251110
665.000000	7.290148
666.000000	7.330052
667.000000	7.370207
668.000000	7.412170
669.000000	7.455743
670.000000	7.500381
671.000000	7.546361
672.000000	7.593554
673.000000	7.641914
674.000000	7.690854
675.000000	7.740882
676.000000	7.792135
677.000000	7.843916
678.000000	7.896791
679.000000	7.950493
680.000000	8.005337
681.000000	8.061124
682.000000	8.117235
683.000000	8.173659
684.000000	8.230750
685.000000	8.288519
686.000000	8.346734
687.000000	8.405371
688.000000	8.464645
689.000000	8.524139
690.000000	8.584554
691.000000	8.645251
692.000000	8.706102
693.000000	8.767345
694.000000	8.829557
695.000000	8.891540
696.000000	8.953617
697.000000	9.016892
698.000000	9.080634
699.000000	9.144244
700.000000	9.208465
701.000000	9.272621
702.000000	9.337417
703.000000	9.402096
704.000000	9.466825
705.000000	9.531837
706.000000	9.596849
707.000000	9.661760
708.000000	9.726788
709.000000	9.792254
710.000000	9.857535
711.000000	9.922343
712.000000	9.987035
713.000000	10.051432
714.000000	10.115914
715.000000	10.179985
716.000000	10.243131
717.000000	10.306284
718.000000	10.368602
719.000000	10.430149
720.000000	10.491884
721.000000	10.553297
722.000000	10.613486
723.000000	10.673582
724.000000	10.733539
725.000000	10.792453
726.000000	10.850987
727.000000	10.908505
728.000000	10.965835
729.000000	11.022519
730.000000	11.078294
731.000000	11.132526
732.000000	11.185664
733.000000	11.238827
734.000000	11.291072
735.000000	11.342235
736.000000	11.393175
737.000000	11.442776
738.000000	11.490967
739.000000	11.538326
740.000000	11.584683
741.000000	11.630572
742.000000	11.675897
743.000000	11.720337
744.000000	11.763822
745.000000	11.806867
746.000000	11.849765
747.000000	11.891365
748.000000	11.932112
749.000000	11.971737
750.000000	12.010280
751.000000	12.049409
752.000000	12.087993
753.000000	12.125837
754.000000	12.163473
755.000000	12.200311
756.000000	12.235486
757.000000	12.270706
758.000000	12.305687
759.000000	12.339367
760.000000	12.372636
761.000000	12.405235
762.000000	12.437275
763.000000	12.468155
764.000000	12.498803
765.000000	12.529978
766.000000	12.560993
767.000000	12.591362
768.000000	12.620305
769.000000	12.648924
770.000000	12.677412
771.000000	12.704439
772.000000	12.730971
773.000000	12.759045
774.000000	12.787071
775.000000	12.814067
776.000000	12.839968
777.000000	12.865170
778.000000	12.890592
779.000000	12.916349
780.000000	12.941968
781.000000	12.966010
782.000000	12.991284
783.000000	13.016000
784.000000	13.039854
785.000000	13.063986
786.000000	13.087260
787.000000	13.109455
788.000000	13.131977
789.000000	13.154548
790.000000	13.177117
791.000000	13.200055
792.000000	13.223457
793.000000	13.246988
794.000000	13.269967
795.000000	13.292501
796.000000	13.314950
797.000000	13.338139
798.000000	13.361328
799.000000	13.384000
800.000000	13.404910
801.000000	13.426591
802.000000	13.449639
803.000000	13.472223
804.000000	13.494716
805.000000	13.517002
806.000000	13.539959
807.000000	13.564120
808.000000	13.587046
809.000000	13.611003
810.000000	13.636046
811.000000	13.661533
812.000000	13.687008
813.000000	13.710241
814.000000	13.732715
815.000000	13.755318
816.000000	13.778705
817.000000	13.801890
818.000000	13.825691
819.000000	13.848259
820.000000	13.869928
821.000000	13.891446
822.000000	13.914666
823.000000	13.937260
824.000000	13.958533
825.000000	13.978809
826.000000	13.998960
827.000000	14.019858
828.000000	14.040241
829.000000	14.059495
830.000000	14.078182
831.000000	14.099464
832.000000	14.118176
833.000000	14.137267
834.000000	14.151433
835.000000	14.167317
836.000000	14.181680
837.000000	14.194378
838.000000	14.210484
839.000000	14.226318
840.000000	14.241788
841.000000	14.257671
842.000000	14.270003
843.000000	14.278854
844.000000	14.284193
845.000000	14.290505
846.000000	14.300798
847.000000	14.307514
848.000000	14.314929
849.000000	14.323966
850.000000	14.333174
851.000000	14.335196
852.000000	14.340893
853.000000	14.345292
854.000000	14.345665
855.000000	14.347741
856.000000	14.348308
857.000000	14.351986
858.000000	14.397872
859.000000	14.411000
860.000000	14.424998
861.000000	14.439893
862.000000	14.453456
863.000000	14.466719
864.000000	14.481588
865.000000	14.497282
866.000000	14.510213
867.000000	14.525140
868.000000	14.539466
869.000000	14.558096
870.000000	14.575944
871.000000	14.595195
872.000000	14.614277
873.000000	14.630475
874.000000	14.647029
875.000000	14.664045
876.000000	14.680804
877.000000	14.700860
878.000000	14.724699
879.000000	14.749793
880.000000	14.774011
881.000000	14.793754
882.000000	14.818417
883.000000	14.844014
884.000000	14.868394
885.000000	14.892222
886.000000	14.924142
887.000000	14.951274
888.000000	14.980112
889.000000	15.015501
890.000000	15.049441
891.000000	15.085506
892.000000	15.117807
893.000000	15.109171
894.000000	15.134900
895.000000	15.159797
896.000000	15.185303
897.000000	15.210714
898.000000	15.236623
899.000000	15.264286
900.000000	15.293011
901.000000	15.322486
902.000000	15.352034
903.000000	15.382251
904.000000	15.413517
905.000000	15.445526
906.000000	15.479660
907.000000	15.514754
908.000000	15.550174
909.000000	15.585894
910.000000	15.622049
911.000000	15.658794
912.000000	15.695877
913.000000	15.732309
914.000000	15.771246
915.000000	15.808840
916.000000	15.848797
917.000000	15.887974
918.000000	15.927943
919.000000	15.967831
920.000000	16.008566
921.000000	16.048649
922.000000	16.088934
923.000000	16.129769
924.000000	16.170500
925.000000	16.211591
926.000000	16.252889
927.000000	16.293726
928.000000	16.334777
929.000000	16.374857
930.000000	16.416171
931.000000	16.455811
932.000000	16.495694
933.000000	16.536666
934.000000	16.576346
935.000000	16.615786
936.000000	16.655154
937.000000	16.695363
938.000000	16.735366
939.000000	16.775260
940.000000	16.813963
941.000000	16.850906
942.000000	16.886746
943.000000	16.922989
944.000000	16.959811
945.000000	16.996320
946.000000	17.032391
947.000000	17.068711
948.000000	17.105726
949.000000	17.140703
950.000000	17.176943
951.000000	17.211657
952.000000	17.247037
953.000000	17.281966
954.000000	17.316526
955.000000	17.350146
956.000000	17.383909
957.000000	17.418740
958.000000	17.452486
959.000000	17.486477
960.000000	17.520254
961.000000	17.553660
962.000000	17.587420
963.000000	17.620757
964.000000	17.654360
965.000000	17.687231
966.000000	17.721257
967.000000	17.755443
968.000000	17.787971
969.000000	17.821046
970.000000	17.852780
971.000000	17.883926
972.000000	17.915586
973.000000	17.946609
974.000000	17.977254
975.000000	18.008960
976.000000	18.041106
977.000000	18.073709
978.000000	18.105637
979.000000	18.136726
980.000000	18.167389
981.000000	18.198077
982.000000	18.228340
983.000000	18.257503
984.000000	18.287674
985.000000	18.317740
986.000000	18.346729
987.000000	18.375326
988.000000	18.404326
989.000000	18.433331
990.000000	18.462031
991.000000	18.490931
992.000000	18.518837
993.000000	18.546789
994.000000	18.574737
995.000000	18.602783
996.000000	18.630546
997.000000	18.658100
998.000000	18.684777
999.000000	18.711597
1000.000000	18.738426
1001.000000	18.764817
1002.000000	18.790951
1003.000000	18.817280
1004.000000	18.843386
1005.000000	18.870397
1006.000000	18.897317
1007.000000	18.922903
1008.000000	18.948834
1009.000000	18.974717
1010.000000	19.000149
1011.000000	19.024797
1012.000000	19.049277
1013.000000	19.073803
1014.000000	19.098589
1015.000000	19.123754
1016.000000	19.149091
1017.000000	19.173946
1018.000000	19.199506
1019.000000	19.224737
1020.000000	19.249303
1021.000000	19.274574
1022.000000	19.299789
1023.000000	19.323931
1024.000000	19.348197
1025.000000	19.373251
1026.000000	19.398383
1027.000000	19.423489
1028.000000	19.448214
1029.000000	19.472803
1030.000000	19.497900
1031.000000	19.522837
1032.000000	19.548003
1033.000000	19.573266
1034.000000	19.598200
1035.000000	19.623177
1036.000000	19.648294
1037.000000	19.673243
1038.000000	19.698286
1039.000000	19.723343
1040.000000	19.747911
1041.000000	19.772589
1042.000000	19.797746
1043.000000	19.823126
1044.000000	19.848209
1045.000000	19.873129
1046.000000	19.897871
1047.000000	19.923091
1048.000000	19.948403
1049.000000	19.972954
1050.000000	19.997494
1051.000000	20.021917
1052.000000	20.046120
1053.000000	20.070394
1054.000000	20.094591
1055.000000	20.118971
1056.000000	20.143494
1057.000000	20.167914
1058.000000	20.193069
1059.000000	20.218049
1060.000000	20.242366
1061.000000	20.266029
1062.000000	20.289517
1063.000000	20.313280
1064.000000	20.336094
1065.000000	20.358406
1066.000000	20.380614
1067.000000	20.402397
1068.000000	20.424720
1069.000000	20.447309
1070.000000	20.470043
1071.000000	20.492051
1072.000000	20.514603
1073.000000	20.537683
1074.000000	20.560274
1075.000000	20.582871
1076.000000	20.605426
1077.000000	20.627817
1078.000000	20.650394
1079.000000	20.673051
1080.000000	20.695734
1081.000000	20.718400
1082.000000	20.740480
1083.000000	20.762926
1084.000000	20.785857
1085.000000	20.807969
1086.000000	20.829329
1087.000000	20.850931
1088.000000	20.872103
1089.000000	20.893180
1090.000000	20.914737
1091.000000	20.936117
1092.000000	20.956794
1093.000000	20.976254
1094.000000	20.995757
1095.000000	21.014443
1096.000000	21.033817
1097.000000	21.053411
1098.000000	21.072477
1099.000000	21.091763
1100.000000	21.111060
1101.000000	21.130346
1102.000000	21.149129
1103.000000	21.167517
1104.000000	21.185351
1105.000000	21.202491
1106.000000	21.219914
1107.000000	21.236509
1108.000000	21.251491
1109.000000	21.265937
1110.000000	21.280286
1111.000000	21.294597
1112.000000	21.308411
1113.000000	21.321300
1114.000000	21.333697
1115.000000	21.345646
1116.000000	21.356960
1117.000000	21.368080
1118.000000	21.378437
1119.000000	21.388137
1120.000000	21.397974
1121.000000	21.407486
1122.000000	21.416720
1123.000000	21.425940
1124.000000	21.434466
1125.000000	21.441826
1126.000000	21.448351
1127.000000	21.454657
1128.000000	21.460143
1129.000000	21.465286
1130.000000	21.470431
1131.000000	21.473009
1132.000000	21.473709
1133.000000	21.473240
1134.000000	21.473114
1135.000000	21.471920
1136.000000	21.469629
1137.000000	21.466020
1138.000000	21.461369
1139.000000	21.455329
1140.000000	21.448214
1141.000000	21.440254
1142.000000	21.430754
1143.000000	21.420434
1144.000000	21.410511
1145.000000	21.399877
1146.000000	21.388786
1147.000000	21.377363
1148.000000	21.365231
1149.000000	21.352209
1150.000000	21.339334
1151.000000	21.325446
1152.000000	21.311537
1153.000000	21.296569
1154.000000	21.281126
1155.000000	21.264697
1156.000000	21.247209
1157.000000	21.228117
1158.000000	21.207677
1159.000000	21.185346
1160.000000	21.162000
1161.000000	21.137291
1162.000000	21.110903
1163.000000	21.083871
1164.000000	21.054517
1165.000000	21.024851
1166.000000	20.994877
1167.000000	20.963917
1168.000000	20.933060
1169.000000	20.900529
1170.000000	20.867651
1171.000000	20.834303
1172.000000	20.802131
1173.000000	20.769571
1174.000000	20.737314
1175.000000	20.705740
1176.000000	20.674251
1177.000000	20.643157
1178.000000	20.612266
1179.000000	20.580811
1180.000000	20.550106
1181.000000	20.518374
1182.000000	20.486071
1183.000000	20.454254
1184.000000	20.423226
1185.000000	20.391803
1186.000000	20.361540
1187.000000	20.331526
1188.000000	20.303103
1189.000000	20.275363
1190.000000	20.249811
1191.000000	20.225794
1192.000000	20.204723
1193.000000	20.185069
1194.000000	20.167066
1195.000000	20.151826
1196.000000	20.138829
1197.000000	20.128160
1198.000000	20.119386
1199.000000	20.113589
1200.000000	20.109480
1201.000000	20.107346
1202.000000	20.107346
1203.000000	20.109289
1204.000000	20.112526
1205.000000	20.117980
1206.000000	20.124969
1207.000000	20.132586
1208.000000	20.141523
1209.000000	20.152303
1210.000000	20.163634
1211.000000	20.175574
1212.000000	20.189206
1213.000000	20.204091
1214.000000	20.219971
1215.000000	20.235994
1216.000000	20.253077
1217.000000	20.271060
1218.000000	20.289657
1219.000000	20.308600
1220.000000	20.327891
1221.000000	20.346960
1222.000000	20.365886
1223.000000	20.384546
1224.000000	20.403000
1225.000000	20.420034
1226.000000	20.436429
1227.000000	20.451717
1228.000000	20.466631
1229.000000	20.481849
1230.000000	20.495463
1231.000000	20.508731
1232.000000	20.520931
1233.000000	20.533411
1234.000000	20.545414
1235.000000	20.556503
1236.000000	20.567474
1237.000000	20.577977
1238.000000	20.588097
1239.000000	20.598549
1240.000000	20.608040
1241.000000	20.617531
1242.000000	20.627046
1243.000000	20.636103
1244.000000	20.644597
1245.000000	20.653260
1246.000000	20.662066
1247.000000	20.670263
1248.000000	20.678680
1249.000000	20.687226
1250.000000	20.695274
1251.000000	20.703900
1252.000000	20.712809
1253.000000	20.721611
1254.000000	20.730757
1255.000000	20.739917
1256.000000	20.749731
1257.000000	20.760269
1258.000000	20.770249
1259.000000	20.780486
1260.000000	20.791243
1261.000000	20.802646
1262.000000	20.813386
1263.000000	20.824569
1264.000000	20.835983
1265.000000	20.847486
1266.000000	20.859031
1267.000000	20.870600
1268.000000	20.881291
1269.000000	20.891871
1270.000000	20.902403
1271.000000	20.912866
1272.000000	20.923531
1273.000000	20.933691
1274.000000	20.943374
1275.000000	20.952560
1276.000000	20.961900
1277.000000	20.970980
1278.000000	20.979643
1279.000000	20.988057
1280.000000	20.996403
1281.000000	21.004731
1282.000000	21.012520
1283.000000	21.020206
1284.000000	21.028234
1285.000000	21.036674
1286.000000	21.044580
1287.000000	21.052131
1288.000000	21.059671
1289.000000	21.067240
1290.000000	21.074869
1291.000000	21.081806
1292.000000	21.087860
1293.000000	21.094617
1294.000000	21.101237
1295.000000	21.107109
1296.000000	21.113071
1297.000000	21.119471
1298.000000	21.125640
1299.000000	21.131603
1300.000000	21.137563
1301.000000	21.143763
1302.000000	21.150514
1303.000000	21.157194
1304.000000	21.163300
1305.000000	21.169369
1306.000000	21.175777
1307.000000	21.182291
1308.000000	21.188463
1309.000000	21.194194
1310.000000	21.199834
1311.000000	21.204423
1312.000000	21.207951
1313.000000	21.211683
1314.000000	21.215251
1315.000000	21.218071
1316.000000	21.219931
1317.000000	21.221051
1318.000000	21.220900
1319.000000	21.219057
1320.000000	21.216009
1321.000000	21.211829
1322.000000	21.206534
1323.000000	21.200609
1324.000000	21.193623
1325.000000	21.185169
1326.000000	21.176326
1327.000000	21.166734
1328.000000	21.155546
1329.000000	21.142791
1330.000000	21.129206
1331.000000	21.114403
1332.000000	21.098271
1333.000000	21.080340
1334.000000	21.061109
1335.000000	21.040806
1336.000000	21.018169
1337.000000	20.994037
1338.000000	20.968657
1339.000000	20.941814
1340.000000	20.913609
1341.000000	20.883760
1342.000000	20.852946
1343.000000	20.820480
1344.000000	20.786060
1345.000000	20.748840
1346.000000	20.709449
1347.000000	20.668589
1348.000000	20.626069
1349.000000	20.581280
1350.000000	20.534320
1351.000000	20.485866
1352.000000	20.435760
1353.000000	20.384137
1354.000000	20.331274
1355.000000	20.279017
1356.000000	20.226877
1357.000000	20.174134
1358.000000	20.120691
1359.000000	20.066043
1360.000000	20.010006
1361.000000	19.955186
1362.000000	19.903043
1363.000000	19.850051
1364.000000	19.796580
1365.000000	19.743483
1366.000000	19.688886
1367.000000	19.632269
1368.000000	19.576411
1369.000000	19.519183
1370.000000	19.458609
1371.000000	19.397414
1372.000000	19.334577
1373.000000	19.268046
1374.000000	19.196563
1375.000000	19.121434
1376.000000	19.042249
1377.000000	18.957431
1378.000000	18.869297
1379.000000	18.776709
1380.000000	18.682166
1381.000000	18.587480
1382.000000	18.495066
1383.000000	18.403403
1384.000000	18.312011
1385.000000	18.220251
1386.000000	18.128317
1387.000000	18.037017
1388.000000	17.948146
1389.000000	17.860994
1390.000000	17.771014
1391.000000	17.678649
1392.000000	17.588083
1393.000000	17.497697
1394.000000	17.406377
1395.000000	17.316789
1396.000000	17.228706
1397.000000	17.137149
1398.000000	17.042320
1399.000000	16.945431
1400.000000	16.849140
1401.000000	16.756826
1402.000000	16.662789
1403.000000	16.563063
1404.000000	16.463020
1405.000000	16.365731
1406.000000	16.267671
1407.000000	16.168423
1408.000000	16.071311
1409.000000	15.978109
1410.000000	15.887103
1411.000000	15.797280
1412.000000	15.709117
1413.000000	15.623317
1414.000000	15.542314
1415.000000	15.463403
1416.000000	15.383177
1417.000000	15.298786
1418.000000	15.213280
1419.000000	15.128197
1420.000000	15.044471
1421.000000	14.959046
1422.000000	14.872694
1423.000000	14.783689
1424.000000	14.693583
1425.000000	14.604151
1426.000000	14.515314
1427.000000	14.423991
1428.000000	14.331600
1429.000000	14.240771
1430.000000	14.149303
1431.000000	14.054174
1432.000000	13.959989
1433.000000	13.869506
1434.000000	13.781040
1435.000000	13.691106
1436.000000	13.597351
1437.000000	13.507374
1438.000000	13.423257
1439.000000	13.341077
1440.000000	13.259331
1441.000000	13.179320
1442.000000	13.103046
1443.000000	13.028697
1444.000000	12.956203
1445.000000	12.885754
1446.000000	12.819226
1447.000000	12.756643
1448.000000	12.695491
1449.000000	12.634986
1450.000000	12.576869
1451.000000	12.522923
1452.000000	12.472434
1453.000000	12.422509
1454.000000	12.372703
1455.000000	12.323523
1456.000000	12.277309
1457.000000	12.232097
1458.000000	12.188846
1459.000000	12.146003
1460.000000	12.104720
1461.000000	12.064997
1462.000000	12.026937
1463.000000	11.989574
1464.000000	11.952154
1465.000000	11.915966
1466.000000	11.880449
1467.000000	11.844486
1468.000000	11.808534
1469.000000	11.773469
1470.000000	11.739394
1471.000000	11.707140
1472.000000	11.675083
1473.000000	11.642437
1474.000000	11.610031
1475.000000	11.578057
1476.000000	11.546923
1477.000000	11.515357
1478.000000	11.484700
1479.000000	11.454357
1480.000000	11.424803
1481.000000	11.395083
1482.000000	11.365771
1483.000000	11.337957
1484.000000	11.310726
1485.000000	11.284011
1486.000000	11.256989
1487.000000	11.230649
1488.000000	11.205817
1489.000000	11.182106
1490.000000	11.158740
1491.000000	11.135937
1492.000000	11.114583
1493.000000	11.093680
1494.000000	11.073657
1495.000000	11.054723
1496.000000	11.036911
1497.000000	11.020103
1498.000000	11.004763
1499.000000	10.990674
1500.000000	10.977669
1501.000000	10.966023
1502.000000	10.956474
1503.000000	10.948420
1504.000000	10.942237
1505.000000	10.937954
1506.000000	10.934977
1507.000000	10.933463
1508.000000	10.933803
1509.000000	10.936186
1510.000000	10.940097
1511.000000	10.945500
1512.000000	10.952200
1513.000000	10.960069
1514.000000	10.970183
1515.000000	10.981266
1516.000000	10.993720
1517.000000	11.007571
1518.000000	11.022189
1519.000000	11.038677
1520.000000	11.056060
1521.000000	11.074211
1522.000000	11.092891
1523.000000	11.112934
1524.000000	11.134391
1525.000000	11.156749
1526.000000	11.180306
1527.000000	11.205131
1528.000000	11.230560
1529.000000	11.256620
1530.000000	11.283320
1531.000000	11.310811
1532.000000	11.338329
1533.000000	11.366209
1534.000000	11.394326
1535.000000	11.422371
1536.000000	11.450151
1537.000000	11.477471
1538.000000	11.505286
1539.000000	11.532760
1540.000000	11.559334
1541.000000	11.585129
1542.000000	11.610826
1543.000000	11.635994
1544.000000	11.660180
1545.000000	11.684317
1546.000000	11.708269
1547.000000	11.732420
1548.000000	11.756337
1549.000000	11.779643
1550.000000	11.803360
1551.000000	11.827031
1552.000000	11.850454
1553.000000	11.873714
1554.000000	11.896857
1555.000000	11.919683
1556.000000	11.942143
1557.000000	11.964580
1558.000000	11.986209
1559.000000	12.006940
1560.000000	12.027486
1561.000000	12.047606
1562.000000	12.066880
1563.000000	12.085563
1564.000000	12.103620
1565.000000	12.120389
1566.000000	12.135800
1567.000000	12.150414
1568.000000	12.163909
1569.000000	12.176774
1570.000000	12.189043
1571.000000	12.201111
1572.000000	12.212900
1573.000000	12.223871
1574.000000	12.234374
1575.000000	12.244426
1576.000000	12.254486
1577.000000	12.263934
1578.000000	12.273266
1579.000000	12.283046
1580.000000	12.292423
1581.000000	12.300940
1582.000000	12.309363
1583.000000	12.317597
1584.000000	12.325194
1585.000000	12.332180
1586.000000	12.338914
1587.000000	12.345697
1588.000000	12.352166
1589.000000	12.358251
1590.000000	12.364791
1591.000000	12.371169
1592.000000	12.377157
1593.000000	12.383563
1594.000000	12.390609
1595.000000	12.398409
1596.000000	12.406420
1597.000000	12.414763
1598.000000	12.423923
1599.000000	12.433940
1600.000000	12.444903
1601.000000	12.457511
1602.000000	12.471383
1603.000000	12.486449
1604.000000	12.502549
1605.000000	12.519043
1606.000000	12.536260
1607.000000	12.554411
1608.000000	12.573469
1609.000000	12.593031
1610.000000	12.613300
1611.000000	12.634314
1612.000000	12.655900
1613.000000	12.677883
1614.000000	12.699577
1615.000000	12.720997
1616.000000	12.743006
1617.000000	12.764629
1618.000000	12.786220
1619.000000	12.808163
1620.000000	12.829597
1621.000000	12.850477
1622.000000	12.871437
1623.000000	12.892663
1624.000000	12.913640
1625.000000	12.933863
1626.000000	12.954131
1627.000000	12.974517
1628.000000	12.994989
1629.000000	13.015294
1630.000000	13.035206
1631.000000	13.055280
1632.000000	13.075000
1633.000000	13.094317
1634.000000	13.113006
1635.000000	13.131280
1636.000000	13.148660
1637.000000	13.165217
1638.000000	13.181431
1639.000000	13.197157
1640.000000	13.212514
1641.000000	13.226723
1642.000000	13.240251
1643.000000	13.253540
1644.000000	13.266643
1645.000000	13.279209
1646.000000	13.291423
1647.000000	13.302600
1648.000000	13.313351
1649.000000	13.323317
1650.000000	13.333483
1651.000000	13.342531
1652.000000	13.351240
1653.000000	13.358611
1654.000000	13.364760
1655.000000	13.370329
1656.000000	13.374637
1657.000000	13.376920
1658.000000	13.377354
1659.000000	13.377097
1660.000000	13.374694
1661.000000	13.370443
1662.000000	13.364437
1663.000000	13.355809
1664.000000	13.345003
1665.000000	13.332269
1666.000000	13.317097
1667.000000	13.299903
1668.000000	13.279380
1669.000000	13.256886
1670.000000	13.232043
1671.000000	13.204840
1672.000000	13.175449
1673.000000	13.143697
1674.000000	13.110037
1675.000000	13.074366
1676.000000	13.037177
1677.000000	12.998634
1678.000000	12.957117
1679.000000	12.912737
1680.000000	12.865734
1681.000000	12.815774
1682.000000	12.763920
1683.000000	12.709689
1684.000000	12.652969
1685.000000	12.594634
1686.000000	12.535329
1687.000000	12.475263
1688.000000	12.415594
1689.000000	12.356900
1690.000000	12.299566
1691.000000	12.245251
1692.000000	12.193931
1693.000000	12.144666
1694.000000	12.096777
1695.000000	12.052554
1696.000000	12.010363
1697.000000	11.970717
1698.000000	11.933286
1699.000000	11.896849
1700.000000	11.862174
1701.000000	11.829311
1702.000000	11.798203
1703.000000	11.769671
1704.000000	11.742963
1705.000000	11.717549
1706.000000	11.693314
1707.000000	11.670257
1708.000000	11.647717
1709.000000	11.625389
1710.000000	11.603800
1711.000000	11.581611
1712.000000	11.558611
1713.000000	11.535697
1714.000000	11.513186
1715.000000	11.490566
1716.000000	11.468080
1717.000000	11.445389
1718.000000	11.421360
1719.000000	11.397317
1720.000000	11.372340
1721.000000	11.347269
1722.000000	11.322320
1723.000000	11.297406
1724.000000	11.271586
1725.000000	11.245077
1726.000000	11.217314
1727.000000	11.188811
1728.000000	11.160706
1729.000000	11.132643
1730.000000	11.102960
1731.000000	11.073766
1732.000000	11.044354
1733.000000	11.015614
1734.000000	10.988083
1735.000000	10.961257
1736.000000	10.934951
1737.000000	10.909991
1738.000000	10.886057
1739.000000	10.863323
1740.000000	10.842326
1741.000000	10.823211
1742.000000	10.806183
1743.000000	10.791849
1744.000000	10.780511
1745.000000	10.771049
1746.000000	10.764714
1747.000000	10.761611
1748.000000	10.761449
1749.000000	10.763903
1750.000000	10.769277
1751.000000	10.777254
1752.000000	10.787777
1753.000000	10.802014
1754.000000	10.819360
1755.000000	10.838880
1756.000000	10.860040
1757.000000	10.882311
1758.000000	10.905017
1759.000000	10.928223
1760.000000	10.950971
1761.000000	10.973371
1762.000000	10.994711
1763.000000	11.014803
1764.000000	11.033463
1765.000000	11.052820
1766.000000	11.071837
1767.000000	11.090626
1768.000000	11.108823
1769.000000	11.126300
1770.000000	11.143131
1771.000000	11.159383
1772.000000	11.174889
1773.000000	11.190274
1774.000000	11.205231
1775.000000	11.219989
1776.000000	11.234471
1777.000000	11.248097
1778.000000	11.260643
1779.000000	11.272329
1780.000000	11.284500
1781.000000	11.296260
1782.000000	11.306471
1783.000000	11.316189
1784.000000	11.325131
1785.000000	11.334094
1786.000000	11.343277
1787.000000	11.352420
1788.000000	11.361289
1789.000000	11.369589
1790.000000	11.377686
1791.000000	11.386126
1792.000000	11.394089
1793.000000	11.402226
1794.000000	11.410731
1795.000000	11.420020
1796.000000	11.429360
1797.000000	11.439383
1798.000000	11.449263
1799.000000	11.458823
1800.000000	11.467971
1801.000000	11.477734
1802.000000	11.487354
1803.000000	11.496037
1804.000000	11.503931
1805.000000	11.511737
1806.000000	11.520526
1807.000000	11.529889
1808.000000	11.538649
1809.000000	11.545486
1810.000000	11.551489
1811.000000	11.557954
1812.000000	11.564900
1813.000000	11.571460
1814.000000	11.577037
1815.000000	11.581794
1816.000000	11.586689
1817.000000	11.591200
1818.000000	11.593714
1819.000000	11.595054
1820.000000	11.597614
1821.000000	11.602889
1822.000000	11.610306
1823.000000	11.616191
1824.000000	11.618894
1825.000000	11.620903
1826.000000	11.622480
1827.000000	11.624743
1828.000000	11.628286
1829.000000	11.632069
1830.000000	11.635331
1831.000000	11.639477
1832.000000	11.643603
1833.000000	11.646463
1834.000000	11.647754
1835.000000	11.648194
1836.000000	11.649131
1837.000000	11.652363
1838.000000	11.657189
1839.000000	11.662277
1840.000000	11.667534
1841.000000	11.674209
1842.000000	11.683449
1843.000000	11.693166
1844.000000	11.700360
1845.000000	11.702694
1846.000000	11.701571
1847.000000	11.702177
1848.000000	11.708543
1849.000000	11.718903
1850.000000	11.727823
1851.000000	11.732363
1852.000000	11.734529
1853.000000	11.738754
1854.000000	11.745471
1855.000000	11.751374
1856.000000	11.753126
1857.000000	11.750309
1858.000000	11.748517
1859.000000	11.751397
1860.000000	11.755980
1861.000000	11.760691
1862.000000	11.763520
1863.000000	11.762763
1864.000000	11.757911
1865.000000	11.749389
1866.000000	11.736991
1867.000000	11.721823
1868.000000	11.706446
1869.000000	11.692029
1870.000000	11.678591
1871.000000	11.664274
1872.000000	11.646749
1873.000000	11.627914
1874.000000	11.608831
1875.000000	11.586726
1876.000000	11.559557
1877.000000	11.525766
1878.000000	11.487874
1879.000000	11.449343
1880.000000	11.411406
1881.000000	11.370594
1882.000000	11.323117
1883.000000	11.266014
1884.000000	11.201414
1885.000000	11.133851
1886.000000	11.065677
1887.000000	10.994717
1888.000000	10.917263
1889.000000	10.832609
1890.000000	10.741931
1891.000000	10.647734
1892.000000	10.551411
1893.000000	10.450954
1894.000000	10.342871
1895.000000	10.227209
1896.000000	10.104271
1897.000000	9.975623
1898.000000	9.843717
1899.000000	9.711391
1900.000000	9.579640
1901.000000	9.445946
1902.000000	9.309337
1903.000000	9.169406
1904.000000	9.026586
1905.000000	8.880594
1906.000000	8.731434
1907.000000	8.579360
1908.000000	8.424249
1909.000000	8.266483
1910.000000	8.106934
1911.000000	7.946923
1912.000000	7.787823
1913.000000	7.631611
1914.000000	7.478477
1915.000000	7.328069
1916.000000	7.180786
1917.000000	7.035394
1918.000000	6.891094
1919.000000	6.749466
1920.000000	6.611031
1921.000000	6.477111
1922.000000	6.348303
1923.000000	6.224460
1924.000000	6.105766
1925.000000	5.991223
1926.000000	5.880703
1927.000000	5.774846
1928.000000	5.672820
1929.000000	5.577491
1930.000000	5.488789
1931.000000	5.407426
1932.000000	5.333074
1933.000000	5.262740
1934.000000	5.196811
1935.000000	5.133697
1936.000000	5.075366
1937.000000	5.022317
1938.000000	4.974486
1939.000000	4.931057
1940.000000	4.891334
1941.000000	4.854671
1942.000000	4.821417
1943.000000	4.791929
1944.000000	4.765449
1945.000000	4.744637
1946.000000	4.727057
1947.000000	4.713160
1948.000000	4.700334
1949.000000	4.689054
1950.000000	4.679326
1951.000000	4.673374
1952.000000	4.669383
1953.000000	4.669706
1954.000000	4.672766
1955.000000	4.677294
1956.000000	4.682226
1957.000000	4.688454
1958.000000	4.697397
1959.000000	4.706729
1960.000000	4.718126
1961.000000	4.731314
1962.000000	4.744831
1963.000000	4.760494
1964.000000	4.776951
1965.000000	4.794529
1966.000000	4.811620
1967.000000	4.830066
1968.000000	4.850849
1969.000000	4.871594
1970.000000	4.892729
1971.000000	4.914434
1972.000000	4.937280
1973.000000	4.959937
1974.000000	4.983723
1975.000000	5.007249
1976.000000	5.030426
1977.000000	5.053914
1978.000000	5.078760
1979.000000	5.104029
1980.000000	5.129129
1981.000000	5.155251
1982.000000	5.180214
1983.000000	5.205791
1984.000000	5.231417
1985.000000	5.257611
1986.000000	5.282980
1987.000000	5.309391
1988.000000	5.335160
1989.000000	5.360043
1990.000000	5.385097
1991.000000	5.410403
1992.000000	5.435386
1993.000000	5.460234
1994.000000	5.486823
1995.000000	5.512077
1996.000000	5.536871
1997.000000	5.561483
1998.000000	5.585234
1999.000000	5.608763
2000.000000	5.631563
2001.000000	5.655474
2002.000000	5.678071
2003.000000	5.700349
2004.000000	5.722454
2005.000000	5.744751
2006.000000	5.766554
2007.000000	5.786969
2008.000000	5.807311
2009.000000	5.827054
2010.000000	5.845109
2011.000000	5.863080
2012.000000	5.880417
2013.000000	5.895671
2014.000000	5.910863
2015.000000	5.924717
2016.000000	5.936814
2017.000000	5.948149
2018.000000	5.957877
2019.000000	5.966980
2020.000000	5.975086
2021.000000	5.981511
2022.000000	5.986537
2023.000000	5.990200
2024.000000	5.992534
2025.000000	5.993314
2026.000000	5.992643
2027.000000	5.990500
2028.000000	5.986329
2029.000000	5.980506
2030.000000	5.973446
2031.000000	5.963909
2032.000000	5.953389
2033.000000	5.941437
2034.000000	5.927600
2035.000000	5.912654
2036.000000	5.895823
2037.000000	5.877306
2038.000000	5.856849
2039.000000	5.835026
2040.000000	5.811274
2041.000000	5.785677
2042.000000	5.759097
2043.000000	5.731583
2044.000000	5.701469
2045.000000	5.671051
2046.000000	5.639306
2047.000000	5.607211
2048.000000	5.574034
2049.000000	5.540111
2050.000000	5.506051
2051.000000	5.471857
2052.000000	5.437446
2053.000000	5.403831
2054.000000	5.370589
2055.000000	5.337711
2056.000000	5.305949
2057.000000	5.275851
2058.000000	5.246926
2059.000000	5.218994
2060.000000	5.192346
2061.000000	5.167066
2062.000000	5.143774
2063.000000	5.122620
2064.000000	5.102706
2065.000000	5.085114
2066.000000	5.070020
2067.000000	5.056780
2068.000000	5.045769
2069.000000	5.036326
2070.000000	5.028677
2071.000000	5.022994
2072.000000	5.020049
2073.000000	5.019220
2074.000000	5.019820
2075.000000	5.022591
2076.000000	5.027191
2077.000000	5.033289
2078.000000	5.041383
2079.000000	5.051543
2080.000000	5.063149
2081.000000	5.076117
2082.000000	5.089377
2083.000000	5.103951
2084.000000	5.119651
2085.000000	5.135437
2086.000000	5.151580
2087.000000	5.168491
2088.000000	5.185297
2089.000000	5.201640
2090.000000	5.218197
2091.000000	5.234097
2092.000000	5.248503
2093.000000	5.262140
2094.000000	5.275260
2095.000000	5.287629
2096.000000	5.299394
2097.000000	5.309703
2098.000000	5.318783
2099.000000	5.327400
2100.000000	5.334706
2101.000000	5.341211
2102.000000	5.347206
2103.000000	5.351997
2104.000000	5.356180
2105.000000	5.359277
2106.000000	5.361114
2107.000000	5.362026
2108.000000	5.361914
2109.000000	5.361183
2110.000000	5.359757
2111.000000	5.358006
2112.000000	5.355749
2113.000000	5.351851
2114.000000	5.347274
2115.000000	5.342469
2116.000000	5.337094
2117.000000	5.331614
2118.000000	5.325820
2119.000000	5.319231
2120.000000	5.312677
2121.000000	5.305757
2122.000000	5.298174
2123.000000	5.290843
2124.000000	5.283286
2125.000000	5.274840
2126.000000	5.266331
2127.000000	5.257929
2128.000000	5.249040
2129.000000	5.239571
2130.000000	5.229711
2131.000000	5.219043
2132.000000	5.208094
2133.000000	5.196737
2134.000000	5.184300
2135.000000	5.171751
2136.000000	5.158214
2137.000000	5.143314
2138.000000	5.127669
2139.000000	5.111257
2140.000000	5.094577
2141.000000	5.077657
2142.000000	5.059466
2143.000000	5.040520
2144.000000	5.021257
2145.000000	5.000946
2146.000000	4.979991
2147.000000	4.958060
2148.000000	4.935666
2149.000000	4.913043
2150.000000	4.889417
2151.000000	4.865091
2152.000000	4.840180
2153.000000	4.814649
2154.000000	4.789109
2155.000000	4.763309
2156.000000	4.738086
2157.000000	4.712834
2158.000000	4.686871
2159.000000	4.660571
2160.000000	4.634397
2161.000000	4.608057
2162.000000	4.581686
2163.000000	4.556071
2164.000000	4.531163
2165.000000	4.506651
2166.000000	4.482531
2167.000000	4.458434
2168.000000	4.434723
2169.000000	4.411889
2170.000000	4.388846
2171.000000	4.366817
2172.000000	4.344943
2173.000000	4.323740
2174.000000	4.303354
2175.000000	4.283223
2176.000000	4.263991
2177.000000	4.245294
2178.000000	4.227469
2179.000000	4.210123
2180.000000	4.194066
2181.000000	4.178563
2182.000000	4.163649
2183.000000	4.149117
2184.000000	4.134526
2185.000000	4.120400
2186.000000	4.106811
2187.000000	4.093631
2188.000000	4.080434
2189.000000	4.066843
2190.000000	4.052774
2191.000000	4.037137
2192.000000	4.021463
2193.000000	4.004969
2194.000000	3.988054
2195.000000	3.970757
2196.000000	3.952646
2197.000000	3.933486
2198.000000	3.913297
2199.000000	3.891434
2200.000000	3.868197
2201.000000	3.843914
2202.000000	3.819631
2203.000000	3.794823
2204.000000	3.769057
2205.000000	3.743706
2206.000000	3.717266
2207.000000	3.691220
2208.000000	3.665609
2209.000000	3.639617
2210.000000	3.614294
2211.000000	3.589169
2212.000000	3.565386
2213.000000	3.542289
2214.000000	3.519974
2215.000000	3.497677
2216.000000	3.476531
2217.000000	3.456797
2218.000000	3.439163
2219.000000	3.422869
2220.000000	3.407409
2221.000000	3.393323
2222.000000	3.380900
2223.000000	3.370169
2224.000000	3.362026
2225.000000	3.355009
2226.000000	3.349803
2227.000000	3.346271
2228.000000	3.344666
2229.000000	3.344640
2230.000000	3.346383
2231.000000	3.349743
2232.000000	3.354926
2233.000000	3.360706
2234.000000	3.368600
2235.000000	3.377840
2236.000000	3.388740
2237.000000	3.399731
2238.000000	3.411291
2239.000000	3.423257
2240.000000	3.436020
2241.000000	3.449200
2242.000000	3.462409
2243.000000	3.474460
2244.000000	3.486000
2245.000000	3.496331
2246.000000	3.505343
2247.000000	3.513391
2248.000000	3.520109
2249.000000	3.525454
2250.000000	3.530014
2251.000000	3.532171
2252.000000	3.533231
2253.000000	3.532069
2254.000000	3.529811
2255.000000	3.527103
2256.000000	3.522437
2257.000000	3.516357
2258.000000	3.508654
2259.000000	3.498783
2260.000000	3.487977
2261.000000	3.477231
2262.000000	3.465657
2263.000000	3.452594
2264.000000	3.439289
2265.000000	3.425203
2266.000000	3.410846
2267.000000	3.397026
2268.000000	3.383343
2269.000000	3.369431
2270.000000	3.355454
2271.000000	3.341989
2272.000000	3.329226
2273.000000	3.316497
2274.000000	3.304769
2275.000000	3.292963
2276.000000	3.281517
2277.000000	3.270337
2278.000000	3.260083
2279.000000	3.251209
2280.000000	3.242803
2281.000000	3.235629
2282.000000	3.228429
2283.000000	3.222114
2284.000000	3.216269
2285.000000	3.211080
2286.000000	3.207309
2287.000000	3.203874
2288.000000	3.201143
2289.000000	3.199434
2290.000000	3.197846
2291.000000	3.197760
2292.000000	3.197989
2293.000000	3.199231
2294.000000	3.200494
2295.000000	3.202411
2296.000000	3.204611
2297.000000	3.206943
2298.000000	3.209831
2299.000000	3.212814
2300.000000	3.216029
2301.000000	3.219297
2302.000000	3.221957
2303.000000	3.225603
2304.000000	3.229249
2305.000000	3.233489
2306.000000	3.237409
2307.000000	3.241546
2308.000000	3.246291
2309.000000	3.250963
2310.000000	3.255800
2311.000000	3.261106
2312.000000	3.266120
2313.000000	3.271977
2314.000000	3.277380
2315.000000	3.283366
2316.000000	3.289106
2317.000000	3.295400
2318.000000	3.301546
2319.000000	3.308034
2320.000000	3.314383
2321.000000	3.320531
2322.000000	3.326414
2323.000000	3.332320
2324.000000	3.337257
2325.000000	3.342343
2326.000000	3.347126
2327.000000	3.351694
2328.000000	3.355580
2329.000000	3.359846
2330.000000	3.364326
2331.000000	3.368274
2332.000000	3.372417
2333.000000	3.376597
2334.000000	3.380117
2335.000000	3.383737
2336.000000	3.387894
2337.000000	3.392077
2338.000000	3.395386
2339.000000	3.398346
2340.000000	3.401134
2341.000000	3.404186
2342.000000	3.407380
2343.000000	3.409823
2344.000000	3.412260
2345.000000	3.414611
2346.000000	3.416894
2347.000000	3.419829
2348.000000	3.422383
2349.000000	3.424869
2350.000000	3.427223
2351.000000	3.429517
2352.000000	3.431614
2353.000000	3.434420
2354.000000	3.437054
2355.000000	3.439714
2356.000000	3.442814
2357.000000	3.446134
2358.000000	3.449331
2359.000000	3.452749
2360.000000	3.456480
2361.000000	3.460334
2362.000000	3.464546
2363.000000	3.469237
2364.000000	3.473731
2365.000000	3.478100
2366.000000	3.483134
2367.000000	3.487791
2368.000000	3.492623
2369.000000	3.498054
2370.000000	3.503503
2371.000000	3.508529
2372.000000	3.513286
2373.000000	3.518297
2374.000000	3.523497
2375.000000	3.528451
2376.000000	3.532671
2377.000000	3.536737
2378.000000	3.541191
2379.000000	3.545254
2380.000000	3.549254
2381.000000	3.553323
2382.000000	3.557134
2383.000000	3.560243
2384.000000	3.563223
2385.000000	3.566351
2386.000000	3.569189
2387.000000	3.571577
2388.000000	3.573197
2389.000000	3.574937
2390.000000	3.576646
2391.000000	3.578366
2392.000000	3.579803
2393.000000	3.581280
2394.000000	3.582914
2395.000000	3.583631
2396.000000	3.583754
2397.000000	3.583574
2398.000000	3.583071
2399.000000	3.582511
2400.000000	3.581906
2401.000000	3.580763
2402.000000	3.578806
2403.000000	3.576563
2404.000000	3.574143
2405.000000	3.571600
2406.000000	3.568420
2407.000000	3.564791
2408.000000	3.560737
2409.000000	3.556220
2410.000000	3.551369
2411.000000	3.546314
2412.000000	3.540709
2413.000000	3.533831
2414.000000	3.526080
2415.000000	3.517640
2416.000000	3.509340
2417.000000	3.500220
2418.000000	3.490571
2419.000000	3.480874
2420.000000	3.469971
2421.000000	3.458583
2422.000000	3.446554
2423.000000	3.434431
2424.000000	3.421257
2425.000000	3.407006
2426.000000	3.391597
2427.000000	3.376103
2428.000000	3.359666
2429.000000	3.342554
2430.000000	3.325486
2431.000000	3.308031
2432.000000	3.289637
2433.000000	3.270686
2434.000000	3.251423
2435.000000	3.231789
2436.000000	3.210914
2437.000000	3.189831
2438.000000	3.168797
2439.000000	3.146877
2440.000000	3.124989
2441.000000	3.102400
2442.000000	3.078777
2443.000000	3.054511
2444.000000	3.030374
2445.000000	3.005529
2446.000000	2.980920
2447.000000	2.955677
2448.000000	2.930691
2449.000000	2.905666
2450.000000	2.880240
2451.000000	2.853974
2452.000000	2.827969
2453.000000	2.802280
2454.000000	2.776751
2455.000000	2.751466
2456.000000	2.726869
2457.000000	2.701931
2458.000000	2.676686
2459.000000	2.652626
2460.000000	2.629383
2461.000000	2.606037
2462.000000	2.581689
2463.000000	2.559506
2464.000000	2.537657
2465.000000	2.516317
2466.000000	2.494734
2467.000000	2.473697
2468.000000	2.454029
2469.000000	2.432963
2470.000000	2.414229
2471.000000	2.395511
2472.000000	2.377440
2473.000000	2.360171
2474.000000	2.342986
2475.000000	2.325946
2476.000000	2.308686
2477.000000	2.293526
2478.000000	2.280740
2479.000000	2.267894
2480.000000	2.254966
2481.000000	2.243540
2482.000000	2.231649
2483.000000	2.219877
2484.000000	2.208797
2485.000000	2.200491
2486.000000	2.191646
2487.000000	2.182271
2488.000000	2.176280
2489.000000	2.167949
2490.000000	2.159966
2491.000000	2.153886
2492.000000	2.148071
2493.000000	2.144477
2494.000000	2.142163
2495.000000	2.135009
2496.000000	2.130360
2497.000000	2.130880
2498.000000	2.131160
2499.000000	2.131443
2500.000000	2.129594
