PE UV       SUBTECH     SPECTRUM    ASCII       PEDS        4.00        
   -1
3-C. CHRYSARGYREA #84 MV23.ASC
23/11/21
13:13:22.00
23/11/21
13:13:22.00
Vinicio Soto Monge

250,000000
1
Lambda 1050
1050L1511233
PerkinElmer UV WinLab 6.3.2.0749 / 2.02.05 Lambda 900 UV/VIS/NIR, Aug  7 2015 09:38:08

0
0
3350/servo 860,8/2
0
0
UV/VIS
1
1
1
DoubleDePol,CommonBeamDepol,RBeamAtt,SBeamAtt,60mm sphere, WB InGaAs Detector
0
0
0
0
Program
Program
3350/servo 860,8/2
3350/0,4 860,8/0,4
3350/0,4 860,8/0,4
0
20.00
 
 
 
0
 
860,8
319,2
860,8
Front
100
on
S:100 R:100
0
0
0
0
 
0
 
 
 
0
 
 
0
0
0
0
0
 
 
 
 
0
0


0
0
#HDR
-1
-1
#GR
nm
%R
1.0
0.0
2200,000000
-1,000000
1951
8
104,914775
5,852143
#DATA
284.000000	5.670755
285.000000	5.664310
286.000000	5.657178
287.000000	5.651574
288.000000	5.646143
289.000000	5.640994
290.000000	5.637132
291.000000	5.634476
292.000000	5.631279
293.000000	5.627928
294.000000	5.626721
295.000000	5.627104
296.000000	5.627569
297.000000	5.627912
298.000000	5.628526
299.000000	5.629307
300.000000	5.629896
301.000000	5.631266
302.000000	5.633159
303.000000	5.634826
304.000000	5.635910
305.000000	5.636917
306.000000	5.639070
307.000000	5.642761
308.000000	5.644882
309.000000	5.646238
310.000000	5.647773
311.000000	5.649654
312.000000	5.653276
313.000000	5.656075
314.000000	5.657344
315.000000	5.660613
316.000000	5.662210
317.000000	5.661151
318.000000	5.661903
319.000000	5.659959
320.000000	5.660146
321.000000	5.663435
322.000000	5.665973
323.000000	5.668955
324.000000	5.674696
325.000000	5.679762
326.000000	5.682934
327.000000	5.689897
328.000000	5.700533
329.000000	5.708746
330.000000	5.718918
331.000000	5.732450
332.000000	5.745312
333.000000	5.761048
334.000000	5.780278
335.000000	5.798980
336.000000	5.820120
337.000000	5.843345
338.000000	5.869201
339.000000	5.895828
340.000000	5.924829
341.000000	5.957103
342.000000	5.992807
343.000000	6.032156
344.000000	6.075773
345.000000	6.122623
346.000000	6.173325
347.000000	6.226948
348.000000	6.282766
349.000000	6.345692
350.000000	6.410830
351.000000	6.481658
352.000000	6.562432
353.000000	6.648106
354.000000	6.741387
355.000000	6.841192
356.000000	6.948547
357.000000	7.062940
358.000000	7.187486
359.000000	7.320631
360.000000	7.463590
361.000000	7.617842
362.000000	7.784156
363.000000	7.958985
364.000000	8.150215
365.000000	8.355454
366.000000	8.575745
367.000000	8.813298
368.000000	9.065256
369.000000	9.334296
370.000000	9.623402
371.000000	9.931410
372.000000	10.256648
373.000000	10.601231
374.000000	10.964648
375.000000	11.348832
376.000000	11.753563
377.000000	12.186452
378.000000	12.637078
379.000000	13.107446
380.000000	13.596927
381.000000	14.103140
382.000000	14.625882
383.000000	15.166851
384.000000	15.720977
385.000000	16.290580
386.000000	16.871767
387.000000	17.461869
388.000000	18.061025
389.000000	18.669461
390.000000	19.282279
391.000000	19.898564
392.000000	20.519081
393.000000	21.139684
394.000000	21.760420
395.000000	22.380487
396.000000	22.996901
397.000000	23.606092
398.000000	24.210382
399.000000	24.805278
400.000000	25.389734
401.000000	25.961248
402.000000	26.519278
403.000000	27.063671
404.000000	27.590935
405.000000	28.101564
406.000000	28.592422
407.000000	29.065864
408.000000	29.518728
409.000000	29.953626
410.000000	30.367203
411.000000	30.756431
412.000000	31.113117
413.000000	31.448933
414.000000	31.761433
415.000000	32.049811
416.000000	32.315546
417.000000	32.559196
418.000000	32.780515
419.000000	32.980882
420.000000	33.160241
421.000000	33.319903
422.000000	33.460136
423.000000	33.582167
424.000000	33.685998
425.000000	33.772001
426.000000	33.842851
427.000000	33.899267
428.000000	33.941276
429.000000	33.969564
430.000000	33.986580
431.000000	33.994565
432.000000	33.994372
433.000000	33.988076
434.000000	33.977577
435.000000	33.963674
436.000000	33.948900
437.000000	33.935334
438.000000	33.923678
439.000000	33.914529
440.000000	33.908700
441.000000	33.907997
442.000000	33.911391
443.000000	33.918132
444.000000	33.928945
445.000000	33.943676
446.000000	33.962665
447.000000	33.984771
448.000000	34.009170
449.000000	34.035800
450.000000	34.063700
451.000000	34.092417
452.000000	34.121108
453.000000	34.149609
454.000000	34.176087
455.000000	34.200386
456.000000	34.221503
457.000000	34.240200
458.000000	34.256065
459.000000	34.268762
460.000000	34.278049
461.000000	34.283791
462.000000	34.287086
463.000000	34.289425
464.000000	34.290856
465.000000	34.291876
466.000000	34.293290
467.000000	34.295688
468.000000	34.298907
469.000000	34.304088
470.000000	34.309892
471.000000	34.316160
472.000000	34.323742
473.000000	34.330601
474.000000	34.335529
475.000000	34.338204
476.000000	34.337064
477.000000	34.332371
478.000000	34.323693
479.000000	34.308432
480.000000	34.285540
481.000000	34.254718
482.000000	34.215260
483.000000	34.168040
484.000000	34.114164
485.000000	34.053687
486.000000	33.986994
487.000000	33.915199
488.000000	33.839155
489.000000	33.760562
490.000000	33.681249
491.000000	33.603444
492.000000	33.527734
493.000000	33.455260
494.000000	33.388056
495.000000	33.328094
496.000000	33.274920
497.000000	33.229003
498.000000	33.191145
499.000000	33.161157
500.000000	33.138134
501.000000	33.119891
502.000000	33.104831
503.000000	33.092235
504.000000	33.079772
505.000000	33.066628
506.000000	33.050929
507.000000	33.031503
508.000000	33.008768
509.000000	32.983151
510.000000	32.954434
511.000000	32.923559
512.000000	32.890617
513.000000	32.857691
514.000000	32.827651
515.000000	32.802272
516.000000	32.781219
517.000000	32.767494
518.000000	32.760860
519.000000	32.762786
520.000000	32.776104
521.000000	32.801364
522.000000	32.839651
523.000000	32.891560
524.000000	32.958032
525.000000	33.039230
526.000000	33.135587
527.000000	33.248024
528.000000	33.377038
529.000000	33.522152
530.000000	33.683003
531.000000	33.861194
532.000000	34.055345
533.000000	34.265262
534.000000	34.490626
535.000000	34.732106
536.000000	34.989395
537.000000	35.261683
538.000000	35.549300
539.000000	35.851694
540.000000	36.168628
541.000000	36.499236
542.000000	36.841450
543.000000	37.195339
544.000000	37.559541
545.000000	37.933282
546.000000	38.315895
547.000000	38.706215
548.000000	39.101748
549.000000	39.500852
550.000000	39.902055
551.000000	40.306764
552.000000	40.713192
553.000000	41.121409
554.000000	41.529516
555.000000	41.936020
556.000000	42.341134
557.000000	42.743632
558.000000	43.141519
559.000000	43.535028
560.000000	43.924975
561.000000	44.307988
562.000000	44.682160
563.000000	45.047758
564.000000	45.404078
565.000000	45.749420
566.000000	46.082295
567.000000	46.403242
568.000000	46.709246
569.000000	46.999587
570.000000	47.273224
571.000000	47.529437
572.000000	47.770953
573.000000	47.996832
574.000000	48.207709
575.000000	48.404787
576.000000	48.588497
577.000000	48.761284
578.000000	48.923787
579.000000	49.078579
580.000000	49.225913
581.000000	49.366625
582.000000	49.502325
583.000000	49.635789
584.000000	49.768815
585.000000	49.902952
586.000000	50.038820
587.000000	50.175908
588.000000	50.314569
589.000000	50.455927
590.000000	50.598300
591.000000	50.741657
592.000000	50.885368
593.000000	51.029971
594.000000	51.175603
595.000000	51.318562
596.000000	51.461407
597.000000	51.602840
598.000000	51.741256
599.000000	51.876539
600.000000	52.007171
601.000000	52.133228
602.000000	52.254902
603.000000	52.372609
604.000000	52.487421
605.000000	52.598825
606.000000	52.709081
607.000000	52.816265
608.000000	52.920675
609.000000	53.020326
610.000000	53.117414
611.000000	53.209684
612.000000	53.298705
613.000000	53.381843
614.000000	53.457739
615.000000	53.525765
616.000000	53.585871
617.000000	53.637931
618.000000	53.680922
619.000000	53.714914
620.000000	53.742305
621.000000	53.763888
622.000000	53.782210
623.000000	53.797240
624.000000	53.811039
625.000000	53.826542
626.000000	53.843433
627.000000	53.860847
628.000000	53.878318
629.000000	53.894094
630.000000	53.908850
631.000000	53.921785
632.000000	53.932994
633.000000	53.943080
634.000000	53.950632
635.000000	53.959627
636.000000	53.970955
637.000000	53.982350
638.000000	53.995001
639.000000	54.008620
640.000000	54.024137
641.000000	54.040791
642.000000	54.056451
643.000000	54.073180
644.000000	54.092217
645.000000	54.111045
646.000000	54.133130
647.000000	54.156232
648.000000	54.185441
649.000000	54.220940
650.000000	54.266553
651.000000	54.322046
652.000000	54.388485
653.000000	54.467995
654.000000	54.559965
655.000000	54.660311
656.000000	54.769035
657.000000	54.882218
658.000000	54.997671
659.000000	55.113553
660.000000	55.227673
661.000000	55.339342
662.000000	55.448448
663.000000	55.556007
664.000000	55.663084
665.000000	55.770558
666.000000	55.878755
667.000000	55.991902
668.000000	56.109941
669.000000	56.234269
670.000000	56.362185
671.000000	56.493736
672.000000	56.629998
673.000000	56.771434
674.000000	56.916926
675.000000	57.065895
676.000000	57.217573
677.000000	57.373851
678.000000	57.533109
679.000000	57.695805
680.000000	57.863318
681.000000	58.034635
682.000000	58.210880
683.000000	58.389904
684.000000	58.573487
685.000000	58.760167
686.000000	58.948461
687.000000	59.137344
688.000000	59.325045
689.000000	59.513944
690.000000	59.702060
691.000000	59.888469
692.000000	60.076461
693.000000	60.266476
694.000000	60.457455
695.000000	60.649142
696.000000	60.844614
697.000000	61.042594
698.000000	61.244400
699.000000	61.449823
700.000000	61.659251
701.000000	61.872198
702.000000	62.085689
703.000000	62.300119
704.000000	62.515773
705.000000	62.733710
706.000000	62.953515
707.000000	63.173324
708.000000	63.392424
709.000000	63.611531
710.000000	63.831410
711.000000	64.054706
712.000000	64.277123
713.000000	64.497953
714.000000	64.722294
715.000000	64.947830
716.000000	65.174741
717.000000	65.402218
718.000000	65.628704
719.000000	65.854717
720.000000	66.080783
721.000000	66.307692
722.000000	66.533897
723.000000	66.758897
724.000000	66.981403
725.000000	67.203452
726.000000	67.424635
727.000000	67.643798
728.000000	67.862742
729.000000	68.080804
730.000000	68.300265
731.000000	68.517290
732.000000	68.734094
733.000000	68.949942
734.000000	69.164519
735.000000	69.376632
736.000000	69.587999
737.000000	69.800003
738.000000	70.010232
739.000000	70.217880
740.000000	70.423976
741.000000	70.626690
742.000000	70.828019
743.000000	71.028593
744.000000	71.229270
745.000000	71.427988
746.000000	71.621993
747.000000	71.814418
748.000000	72.008882
749.000000	72.200118
750.000000	72.387878
751.000000	72.572567
752.000000	72.756356
753.000000	72.941483
754.000000	73.122782
755.000000	73.300208
756.000000	73.475661
757.000000	73.646561
758.000000	73.815722
759.000000	73.982024
760.000000	74.146292
761.000000	74.308829
762.000000	74.470053
763.000000	74.628871
764.000000	74.785605
765.000000	74.940317
766.000000	75.094516
767.000000	75.246046
768.000000	75.394046
769.000000	75.540675
770.000000	75.685523
771.000000	75.829481
772.000000	75.971683
773.000000	76.112886
774.000000	76.251799
775.000000	76.387102
776.000000	76.520024
777.000000	76.651101
778.000000	76.782627
779.000000	76.912860
780.000000	77.041023
781.000000	77.167938
782.000000	77.296826
783.000000	77.423879
784.000000	77.549637
785.000000	77.673828
786.000000	77.798251
787.000000	77.920967
788.000000	78.038661
789.000000	78.154600
790.000000	78.270782
791.000000	78.385907
792.000000	78.499895
793.000000	78.611176
794.000000	78.720314
795.000000	78.826629
796.000000	78.932729
797.000000	79.042365
798.000000	79.150635
799.000000	79.258433
800.000000	79.368814
801.000000	79.477899
802.000000	79.586989
803.000000	79.692789
804.000000	79.798980
805.000000	79.902398
806.000000	80.002522
807.000000	80.100401
808.000000	80.199298
809.000000	80.296644
810.000000	80.395182
811.000000	80.495677
812.000000	80.592272
813.000000	80.683626
814.000000	80.771420
815.000000	80.858897
816.000000	80.946844
817.000000	81.034976
818.000000	81.120505
819.000000	81.204879
820.000000	81.292300
821.000000	81.379739
822.000000	81.468713
823.000000	81.559064
824.000000	81.646847
825.000000	81.733080
826.000000	81.813311
827.000000	81.901720
828.000000	81.987873
829.000000	82.074397
830.000000	82.162909
831.000000	82.244251
832.000000	82.328762
833.000000	82.409065
834.000000	82.490115
835.000000	82.562372
836.000000	82.634124
837.000000	82.711603
838.000000	82.798818
839.000000	82.879074
840.000000	82.960880
841.000000	83.037074
842.000000	83.110421
843.000000	83.182059
844.000000	83.261335
845.000000	83.344351
846.000000	83.416264
847.000000	83.495165
848.000000	83.577864
849.000000	83.650299
850.000000	83.725805
851.000000	83.811289
852.000000	83.891818
853.000000	83.967621
854.000000	84.044441
855.000000	84.123247
856.000000	84.205430
857.000000	84.265699
858.000000	84.351689
859.000000	84.442189
860.000000	84.560148
861.000000	84.674628
862.000000	84.771847
863.000000	84.861239
864.000000	84.973470
865.000000	85.061343
866.000000	85.156293
867.000000	85.258729
868.000000	85.395768
869.000000	85.509531
870.000000	85.633865
871.000000	85.760005
872.000000	85.852188
873.000000	85.949859
874.000000	86.056439
875.000000	86.155092
876.000000	86.256639
877.000000	86.367370
878.000000	86.480059
879.000000	86.596267
880.000000	86.702385
881.000000	86.788211
882.000000	86.876495
883.000000	86.982681
884.000000	87.072817
885.000000	87.168043
886.000000	87.284390
887.000000	87.375848
888.000000	87.468577
889.000000	87.559927
890.000000	87.673444
891.000000	87.780973
892.000000	87.886421
893.000000	87.966999
894.000000	88.085823
895.000000	88.143005
896.000000	88.206086
897.000000	88.280846
898.000000	88.387388
899.000000	88.445841
900.000000	88.526545
901.000000	88.582734
902.000000	88.626996
903.000000	88.651312
904.000000	88.691118
905.000000	88.736469
906.000000	88.768355
907.000000	88.844161
908.000000	88.911145
909.000000	88.972267
910.000000	89.024711
911.000000	89.080763
912.000000	89.121691
913.000000	89.183641
914.000000	89.241416
915.000000	89.281597
916.000000	89.344557
917.000000	89.403205
918.000000	89.438684
919.000000	89.475664
920.000000	89.514326
921.000000	89.561900
922.000000	89.603855
923.000000	89.653154
924.000000	89.706533
925.000000	89.725384
926.000000	89.762047
927.000000	89.798909
928.000000	89.833587
929.000000	89.836760
930.000000	89.862718
931.000000	89.904785
932.000000	89.938841
933.000000	89.950676
934.000000	89.978571
935.000000	90.024534
936.000000	90.096705
937.000000	90.138817
938.000000	90.156673
939.000000	90.199362
940.000000	90.239316
941.000000	90.268550
942.000000	90.301907
943.000000	90.327365
944.000000	90.363007
945.000000	90.392271
946.000000	90.406735
947.000000	90.464272
948.000000	90.487825
949.000000	90.481477
950.000000	90.515352
951.000000	90.526382
952.000000	90.526867
953.000000	90.554683
954.000000	90.645114
955.000000	90.681100
956.000000	90.691549
957.000000	90.744680
958.000000	90.793065
959.000000	90.825092
960.000000	90.846450
961.000000	90.842946
962.000000	90.893102
963.000000	90.952847
964.000000	90.983261
965.000000	91.027647
966.000000	91.055074
967.000000	91.071753
968.000000	91.085219
969.000000	91.115288
970.000000	91.134373
971.000000	91.128740
972.000000	91.175506
973.000000	91.211017
974.000000	91.232265
975.000000	91.250919
976.000000	91.293418
977.000000	91.320723
978.000000	91.342526
979.000000	91.365680
980.000000	91.411739
981.000000	91.458131
982.000000	91.455612
983.000000	91.473018
984.000000	91.512044
985.000000	91.549262
986.000000	91.588501
987.000000	91.630308
988.000000	91.653272
989.000000	91.662878
990.000000	91.701640
991.000000	91.733614
992.000000	91.773624
993.000000	91.796641
994.000000	91.824084
995.000000	91.875978
996.000000	91.915635
997.000000	91.916247
998.000000	91.963264
999.000000	92.014289
1000.000000	92.041282
1001.000000	92.069758
1002.000000	92.098365
1003.000000	92.131311
1004.000000	92.183493
1005.000000	92.224901
1006.000000	92.273782
1007.000000	92.287289
1008.000000	92.349055
1009.000000	92.390301
1010.000000	92.411561
1011.000000	92.418478
1012.000000	92.435081
1013.000000	92.475381
1014.000000	92.484521
1015.000000	92.489859
1016.000000	92.536407
1017.000000	92.618844
1018.000000	92.692868
1019.000000	92.733697
1020.000000	92.748054
1021.000000	92.817353
1022.000000	92.882435
1023.000000	92.915400
1024.000000	92.921908
1025.000000	92.952743
1026.000000	92.985186
1027.000000	93.013555
1028.000000	93.053936
1029.000000	93.096005
1030.000000	93.115912
1031.000000	93.150166
1032.000000	93.179650
1033.000000	93.159658
1034.000000	93.172009
1035.000000	93.224635
1036.000000	93.289009
1037.000000	93.354268
1038.000000	93.412477
1039.000000	93.410337
1040.000000	93.416338
1041.000000	93.449688
1042.000000	93.514972
1043.000000	93.575096
1044.000000	93.640796
1045.000000	93.682491
1046.000000	93.737339
1047.000000	93.779543
1048.000000	93.802680
1049.000000	93.835784
1050.000000	93.884013
1051.000000	93.933061
1052.000000	93.930181
1053.000000	93.902517
1054.000000	93.941231
1055.000000	93.997289
1056.000000	93.998381
1057.000000	94.007225
1058.000000	94.032776
1059.000000	94.082775
1060.000000	94.128414
1061.000000	94.148787
1062.000000	94.147719
1063.000000	94.163494
1064.000000	94.179252
1065.000000	94.221085
1066.000000	94.275384
1067.000000	94.353816
1068.000000	94.414648
1069.000000	94.444595
1070.000000	94.466557
1071.000000	94.474088
1072.000000	94.476182
1073.000000	94.476916
1074.000000	94.511069
1075.000000	94.557619
1076.000000	94.581495
1077.000000	94.582704
1078.000000	94.569185
1079.000000	94.553499
1080.000000	94.585682
1081.000000	94.640904
1082.000000	94.664057
1083.000000	94.724029
1084.000000	94.789597
1085.000000	94.807991
1086.000000	94.809522
1087.000000	94.847174
1088.000000	94.905646
1089.000000	94.911786
1090.000000	94.908263
1091.000000	94.929375
1092.000000	94.938620
1093.000000	94.957306
1094.000000	94.990388
1095.000000	95.014939
1096.000000	95.031349
1097.000000	95.092484
1098.000000	95.124686
1099.000000	95.173692
1100.000000	95.195044
1101.000000	95.214756
1102.000000	95.214734
1103.000000	95.210493
1104.000000	95.231566
1105.000000	95.241060
1106.000000	95.246884
1107.000000	95.274413
1108.000000	95.309058
1109.000000	95.351156
1110.000000	95.381585
1111.000000	95.418018
1112.000000	95.449076
1113.000000	95.470370
1114.000000	95.500457
1115.000000	95.491880
1116.000000	95.448324
1117.000000	95.487391
1118.000000	95.502131
1119.000000	95.486729
1120.000000	95.496992
1121.000000	95.504517
1122.000000	95.525851
1123.000000	95.586154
1124.000000	95.636403
1125.000000	95.651122
1126.000000	95.662311
1127.000000	95.727587
1128.000000	95.800875
1129.000000	95.870754
1130.000000	95.863344
1131.000000	95.882070
1132.000000	95.871577
1133.000000	95.896471
1134.000000	95.960980
1135.000000	95.966640
1136.000000	95.987732
1137.000000	96.021063
1138.000000	96.030355
1139.000000	96.049749
1140.000000	96.070961
1141.000000	96.072930
1142.000000	96.093127
1143.000000	96.122704
1144.000000	96.106733
1145.000000	96.109431
1146.000000	96.146450
1147.000000	96.140666
1148.000000	96.163725
1149.000000	96.182698
1150.000000	96.194578
1151.000000	96.227128
1152.000000	96.242542
1153.000000	96.249559
1154.000000	96.247226
1155.000000	96.290220
1156.000000	96.301597
1157.000000	96.307221
1158.000000	96.273267
1159.000000	96.265309
1160.000000	96.268298
1161.000000	96.304194
1162.000000	96.275279
1163.000000	96.250268
1164.000000	96.183747
1165.000000	96.212997
1166.000000	96.229576
1167.000000	96.219490
1168.000000	96.210282
1169.000000	96.117967
1170.000000	96.081243
1171.000000	96.041784
1172.000000	95.991819
1173.000000	96.026526
1174.000000	96.015902
1175.000000	95.958173
1176.000000	95.942571
1177.000000	95.917751
1178.000000	95.885612
1179.000000	95.901442
1180.000000	95.886284
1181.000000	95.839620
1182.000000	95.836717
1183.000000	95.847829
1184.000000	95.850166
1185.000000	95.842876
1186.000000	95.832413
1187.000000	95.797690
1188.000000	95.792239
1189.000000	95.789536
1190.000000	95.753029
1191.000000	95.755756
1192.000000	95.762700
1193.000000	95.762845
1194.000000	95.738045
1195.000000	95.754629
1196.000000	95.754669
1197.000000	95.768540
1198.000000	95.757177
1199.000000	95.761565
1200.000000	95.751366
1201.000000	95.766730
1202.000000	95.787070
1203.000000	95.759811
1204.000000	95.759758
1205.000000	95.811671
1206.000000	95.876610
1207.000000	95.909618
1208.000000	95.901384
1209.000000	95.920376
1210.000000	95.955702
1211.000000	95.998825
1212.000000	96.058667
1213.000000	96.112318
1214.000000	96.118468
1215.000000	96.132899
1216.000000	96.155099
1217.000000	96.184210
1218.000000	96.177007
1219.000000	96.185952
1220.000000	96.200950
1221.000000	96.204766
1222.000000	96.215914
1223.000000	96.215365
1224.000000	96.241961
1225.000000	96.263924
1226.000000	96.272098
1227.000000	96.281752
1228.000000	96.285916
1229.000000	96.310030
1230.000000	96.309636
1231.000000	96.314674
1232.000000	96.342702
1233.000000	96.374554
1234.000000	96.381792
1235.000000	96.388324
1236.000000	96.413883
1237.000000	96.440032
1238.000000	96.485670
1239.000000	96.499767
1240.000000	96.529360
1241.000000	96.531321
1242.000000	96.526433
1243.000000	96.513299
1244.000000	96.511086
1245.000000	96.541009
1246.000000	96.552429
1247.000000	96.529338
1248.000000	96.512832
1249.000000	96.553827
1250.000000	96.593994
1251.000000	96.595443
1252.000000	96.584028
1253.000000	96.571110
1254.000000	96.573293
1255.000000	96.628307
1256.000000	96.693593
1257.000000	96.713244
1258.000000	96.694363
1259.000000	96.702108
1260.000000	96.735799
1261.000000	96.759913
1262.000000	96.753701
1263.000000	96.761132
1264.000000	96.764060
1265.000000	96.779708
1266.000000	96.776412
1267.000000	96.758795
1268.000000	96.769183
1269.000000	96.801994
1270.000000	96.829366
1271.000000	96.797425
1272.000000	96.783525
1273.000000	96.800654
1274.000000	96.847831
1275.000000	96.835160
1276.000000	96.805829
1277.000000	96.843190
1278.000000	96.883432
1279.000000	96.901732
1280.000000	96.911778
1281.000000	96.893536
1282.000000	96.867550
1283.000000	96.879258
1284.000000	96.863851
1285.000000	96.848489
1286.000000	96.866002
1287.000000	96.891309
1288.000000	96.928211
1289.000000	96.944366
1290.000000	96.935689
1291.000000	96.912478
1292.000000	96.897420
1293.000000	96.924382
1294.000000	96.919471
1295.000000	96.890560
1296.000000	96.873306
1297.000000	96.882922
1298.000000	96.891983
1299.000000	96.921712
1300.000000	96.945926
1301.000000	96.956832
1302.000000	96.960864
1303.000000	96.937800
1304.000000	96.933925
1305.000000	96.903986
1306.000000	96.902441
1307.000000	96.912140
1308.000000	96.896636
1309.000000	96.881508
1310.000000	96.879540
1311.000000	96.908902
1312.000000	96.913741
1313.000000	96.905936
1314.000000	96.924509
1315.000000	96.964711
1316.000000	96.997668
1317.000000	97.032325
1318.000000	97.037012
1319.000000	97.020492
1320.000000	97.016877
1321.000000	97.034248
1322.000000	97.027194
1323.000000	96.990434
1324.000000	96.988963
1325.000000	97.017516
1326.000000	97.019519
1327.000000	97.033478
1328.000000	97.032910
1329.000000	97.058350
1330.000000	97.074095
1331.000000	97.092507
1332.000000	97.081532
1333.000000	97.066690
1334.000000	97.059348
1335.000000	97.038781
1336.000000	97.025901
1337.000000	97.022734
1338.000000	97.033850
1339.000000	97.027405
1340.000000	97.025790
1341.000000	97.024306
1342.000000	96.989382
1343.000000	96.953618
1344.000000	96.925661
1345.000000	96.903680
1346.000000	96.845794
1347.000000	96.789922
1348.000000	96.760215
1349.000000	96.749298
1350.000000	96.648250
1351.000000	96.504296
1352.000000	96.442202
1353.000000	96.367229
1354.000000	96.419834
1355.000000	96.391951
1356.000000	96.455430
1357.000000	96.412065
1358.000000	96.332864
1359.000000	96.215739
1360.000000	96.285767
1361.000000	96.265901
1362.000000	96.124558
1363.000000	96.052044
1364.000000	95.861244
1365.000000	95.665745
1366.000000	95.674450
1367.000000	95.743713
1368.000000	95.661731
1369.000000	95.717969
1370.000000	95.908493
1371.000000	95.918567
1372.000000	95.837519
1373.000000	95.714977
1374.000000	95.717242
1375.000000	95.708429
1376.000000	95.725033
1377.000000	95.664246
1378.000000	95.579603
1379.000000	95.412228
1380.000000	94.933373
1381.000000	94.768717
1382.000000	94.706948
1383.000000	94.725446
1384.000000	94.828317
1385.000000	94.857663
1386.000000	94.908704
1387.000000	95.155888
1388.000000	95.192763
1389.000000	95.207184
1390.000000	95.233449
1391.000000	95.010804
1392.000000	94.741804
1393.000000	94.749358
1394.000000	94.901473
1395.000000	94.650990
1396.000000	94.302365
1397.000000	94.294297
1398.000000	94.225458
1399.000000	94.353829
1400.000000	94.503667
1401.000000	94.281950
1402.000000	94.141520
1403.000000	94.089271
1404.000000	94.068196
1405.000000	93.733071
1406.000000	93.686375
1407.000000	93.571960
1408.000000	93.546965
1409.000000	93.367248
1410.000000	93.239218
1411.000000	93.046985
1412.000000	92.960941
1413.000000	92.904594
1414.000000	92.968583
1415.000000	93.320004
1416.000000	93.376327
1417.000000	93.314918
1418.000000	93.301726
1419.000000	93.067978
1420.000000	92.942074
1421.000000	92.846355
1422.000000	92.507463
1423.000000	92.428724
1424.000000	92.231155
1425.000000	92.085483
1426.000000	92.046522
1427.000000	92.175090
1428.000000	92.104962
1429.000000	91.907985
1430.000000	91.877922
1431.000000	92.079736
1432.000000	92.019326
1433.000000	91.958559
1434.000000	91.786898
1435.000000	91.627081
1436.000000	91.615733
1437.000000	91.566720
1438.000000	91.528586
1439.000000	91.305421
1440.000000	91.264033
1441.000000	91.129965
1442.000000	91.180038
1443.000000	91.146531
1444.000000	91.129041
1445.000000	91.206675
1446.000000	91.201954
1447.000000	91.173306
1448.000000	91.141676
1449.000000	91.083373
1450.000000	91.085514
1451.000000	91.010727
1452.000000	90.943680
1453.000000	90.777279
1454.000000	90.675481
1455.000000	90.603873
1456.000000	90.565865
1457.000000	90.502998
1458.000000	90.374062
1459.000000	90.273653
1460.000000	90.190129
1461.000000	90.132213
1462.000000	90.070752
1463.000000	89.981676
1464.000000	89.907196
1465.000000	89.842040
1466.000000	89.780227
1467.000000	89.749520
1468.000000	89.724442
1469.000000	89.769415
1470.000000	89.781991
1471.000000	89.751055
1472.000000	89.631790
1473.000000	89.553666
1474.000000	89.479959
1475.000000	89.455615
1476.000000	89.395276
1477.000000	89.314850
1478.000000	89.232279
1479.000000	89.191796
1480.000000	89.048115
1481.000000	89.018691
1482.000000	88.979012
1483.000000	88.953003
1484.000000	88.900113
1485.000000	88.836067
1486.000000	88.838282
1487.000000	88.831650
1488.000000	88.770090
1489.000000	88.763909
1490.000000	88.756528
1491.000000	88.728861
1492.000000	88.704516
1493.000000	88.686934
1494.000000	88.700353
1495.000000	88.699785
1496.000000	88.695817
1497.000000	88.691636
1498.000000	88.679234
1499.000000	88.653133
1500.000000	88.656558
1501.000000	88.649754
1502.000000	88.654727
1503.000000	88.656004
1504.000000	88.626444
1505.000000	88.600238
1506.000000	88.648738
1507.000000	88.673609
1508.000000	88.721925
1509.000000	88.768072
1510.000000	88.782444
1511.000000	88.814990
1512.000000	88.820283
1513.000000	88.852012
1514.000000	88.854709
1515.000000	88.864356
1516.000000	88.896472
1517.000000	88.946354
1518.000000	88.970014
1519.000000	88.986215
1520.000000	88.979736
1521.000000	89.010462
1522.000000	89.067345
1523.000000	89.134821
1524.000000	89.174563
1525.000000	89.196537
1526.000000	89.216480
1527.000000	89.264695
1528.000000	89.338147
1529.000000	89.372804
1530.000000	89.400669
1531.000000	89.429463
1532.000000	89.486119
1533.000000	89.577410
1534.000000	89.666460
1535.000000	89.712377
1536.000000	89.758395
1537.000000	89.817856
1538.000000	89.856734
1539.000000	89.873524
1540.000000	89.913254
1541.000000	89.932474
1542.000000	89.980585
1543.000000	90.010831
1544.000000	90.044196
1545.000000	90.069985
1546.000000	90.090079
1547.000000	90.122028
1548.000000	90.163996
1549.000000	90.227685
1550.000000	90.270964
1551.000000	90.281564
1552.000000	90.293110
1553.000000	90.315944
1554.000000	90.369396
1555.000000	90.398936
1556.000000	90.395857
1557.000000	90.404307
1558.000000	90.417929
1559.000000	90.426494
1560.000000	90.453205
1561.000000	90.495987
1562.000000	90.502900
1563.000000	90.519555
1564.000000	90.568338
1565.000000	90.585470
1566.000000	90.586901
1567.000000	90.600075
1568.000000	90.581077
1569.000000	90.549164
1570.000000	90.550484
1571.000000	90.548334
1572.000000	90.546073
1573.000000	90.556634
1574.000000	90.575941
1575.000000	90.593044
1576.000000	90.614319
1577.000000	90.608658
1578.000000	90.606972
1579.000000	90.613985
1580.000000	90.617789
1581.000000	90.615596
1582.000000	90.626624
1583.000000	90.644798
1584.000000	90.640207
1585.000000	90.662188
1586.000000	90.692593
1587.000000	90.718731
1588.000000	90.739227
1589.000000	90.749577
1590.000000	90.777240
1591.000000	90.798323
1592.000000	90.802377
1593.000000	90.789699
1594.000000	90.777879
1595.000000	90.780223
1596.000000	90.791124
1597.000000	90.820236
1598.000000	90.835686
1599.000000	90.825957
1600.000000	90.860638
1601.000000	90.894215
1602.000000	90.895923
1603.000000	90.917249
1604.000000	90.976264
1605.000000	91.014642
1606.000000	91.039648
1607.000000	91.080639
1608.000000	91.127033
1609.000000	91.160635
1610.000000	91.166184
1611.000000	91.158164
1612.000000	91.177408
1613.000000	91.208424
1614.000000	91.221028
1615.000000	91.232005
1616.000000	91.281543
1617.000000	91.320330
1618.000000	91.346150
1619.000000	91.360215
1620.000000	91.353711
1621.000000	91.371119
1622.000000	91.396721
1623.000000	91.401930
1624.000000	91.401105
1625.000000	91.432406
1626.000000	91.458519
1627.000000	91.509250
1628.000000	91.530711
1629.000000	91.585467
1630.000000	91.606412
1631.000000	91.620670
1632.000000	91.633808
1633.000000	91.647070
1634.000000	91.668453
1635.000000	91.677035
1636.000000	91.718032
1637.000000	91.742004
1638.000000	91.809495
1639.000000	91.787288
1640.000000	91.792864
1641.000000	91.812433
1642.000000	91.837551
1643.000000	91.809111
1644.000000	91.804591
1645.000000	91.820465
1646.000000	91.864996
1647.000000	91.897138
1648.000000	91.916723
1649.000000	91.949138
1650.000000	91.955472
1651.000000	91.965943
1652.000000	91.942060
1653.000000	91.975545
1654.000000	92.000615
1655.000000	92.029973
1656.000000	92.030992
1657.000000	92.059359
1658.000000	92.080603
1659.000000	92.137246
1660.000000	92.119695
1661.000000	92.122112
1662.000000	92.099766
1663.000000	92.145241
1664.000000	92.147165
1665.000000	92.159275
1666.000000	92.176495
1667.000000	92.195776
1668.000000	92.180854
1669.000000	92.149439
1670.000000	92.141608
1671.000000	92.114849
1672.000000	92.107974
1673.000000	92.043487
1674.000000	92.051206
1675.000000	92.012306
1676.000000	91.972848
1677.000000	91.903830
1678.000000	91.890855
1679.000000	91.879951
1680.000000	91.845112
1681.000000	91.770766
1682.000000	91.671581
1683.000000	91.600854
1684.000000	91.545467
1685.000000	91.522442
1686.000000	91.458731
1687.000000	91.453647
1688.000000	91.381093
1689.000000	91.327238
1690.000000	91.282159
1691.000000	91.217167
1692.000000	91.089158
1693.000000	91.060591
1694.000000	90.970802
1695.000000	90.923845
1696.000000	90.861927
1697.000000	90.800220
1698.000000	90.747983
1699.000000	90.700962
1700.000000	90.672062
1701.000000	90.630039
1702.000000	90.568009
1703.000000	90.528930
1704.000000	90.514466
1705.000000	90.489743
1706.000000	90.480448
1707.000000	90.460990
1708.000000	90.438265
1709.000000	90.376674
1710.000000	90.338944
1711.000000	90.319564
1712.000000	90.296350
1713.000000	90.274347
1714.000000	90.200919
1715.000000	90.198766
1716.000000	90.193901
1717.000000	90.192064
1718.000000	90.177165
1719.000000	90.129312
1720.000000	90.066157
1721.000000	90.050142
1722.000000	90.005494
1723.000000	89.989646
1724.000000	89.985301
1725.000000	89.926597
1726.000000	89.901891
1727.000000	89.907920
1728.000000	89.837132
1729.000000	89.810720
1730.000000	89.766833
1731.000000	89.758234
1732.000000	89.721645
1733.000000	89.667687
1734.000000	89.627790
1735.000000	89.600465
1736.000000	89.585090
1737.000000	89.538397
1738.000000	89.491951
1739.000000	89.487280
1740.000000	89.465298
1741.000000	89.415041
1742.000000	89.379922
1743.000000	89.356138
1744.000000	89.346410
1745.000000	89.366569
1746.000000	89.352447
1747.000000	89.367708
1748.000000	89.355130
1749.000000	89.352602
1750.000000	89.297000
1751.000000	89.283559
1752.000000	89.297047
1753.000000	89.317868
1754.000000	89.336503
1755.000000	89.368174
1756.000000	89.377661
1757.000000	89.383584
1758.000000	89.404495
1759.000000	89.389395
1760.000000	89.404125
1761.000000	89.410860
1762.000000	89.433687
1763.000000	89.449259
1764.000000	89.467932
1765.000000	89.492907
1766.000000	89.494270
1767.000000	89.526204
1768.000000	89.535396
1769.000000	89.518589
1770.000000	89.505167
1771.000000	89.517154
1772.000000	89.552498
1773.000000	89.567616
1774.000000	89.559001
1775.000000	89.545738
1776.000000	89.547156
1777.000000	89.567349
1778.000000	89.583161
1779.000000	89.585220
1780.000000	89.572294
1781.000000	89.599705
1782.000000	89.600547
1783.000000	89.603999
1784.000000	89.627707
1785.000000	89.655501
1786.000000	89.673941
1787.000000	89.698630
1788.000000	89.702551
1789.000000	89.708392
1790.000000	89.731047
1791.000000	89.731390
1792.000000	89.752827
1793.000000	89.718824
1794.000000	89.695535
1795.000000	89.694769
1796.000000	89.702999
1797.000000	89.684273
1798.000000	89.704415
1799.000000	89.712540
1800.000000	89.720861
1801.000000	89.724368
1802.000000	89.745327
1803.000000	89.764690
1804.000000	89.829480
1805.000000	89.889061
1806.000000	89.916863
1807.000000	89.936809
1808.000000	89.933603
1809.000000	89.912891
1810.000000	89.933301
1811.000000	89.934251
1812.000000	89.886976
1813.000000	89.842547
1814.000000	89.883385
1815.000000	89.926840
1816.000000	89.895497
1817.000000	89.990860
1818.000000	90.144199
1819.000000	90.308284
1820.000000	90.455111
1821.000000	90.438591
1822.000000	90.392486
1823.000000	90.365523
1824.000000	90.354816
1825.000000	90.498647
1826.000000	90.619646
1827.000000	90.615377
1828.000000	90.612946
1829.000000	90.620548
1830.000000	90.704065
1831.000000	90.746059
1832.000000	90.737347
1833.000000	90.681381
1834.000000	90.697460
1835.000000	90.887122
1836.000000	91.011202
1837.000000	90.945352
1838.000000	90.830480
1839.000000	90.622216
1840.000000	90.438955
1841.000000	90.393347
1842.000000	90.361733
1843.000000	90.306393
1844.000000	90.233525
1845.000000	90.164407
1846.000000	90.213557
1847.000000	90.391632
1848.000000	90.448369
1849.000000	90.404383
1850.000000	90.344726
1851.000000	90.300546
1852.000000	90.159467
1853.000000	90.008800
1854.000000	89.831311
1855.000000	89.717881
1856.000000	89.720816
1857.000000	89.711725
1858.000000	89.710487
1859.000000	89.744137
1860.000000	89.574827
1861.000000	89.455379
1862.000000	89.460758
1863.000000	89.667491
1864.000000	89.756770
1865.000000	89.674274
1866.000000	89.627428
1867.000000	89.631769
1868.000000	89.655342
1869.000000	89.578297
1870.000000	89.424494
1871.000000	89.203416
1872.000000	89.412243
1873.000000	89.547731
1874.000000	89.686731
1875.000000	89.745036
1876.000000	89.810664
1877.000000	89.808427
1878.000000	89.831433
1879.000000	89.852143
1880.000000	89.881557
1881.000000	89.769459
1882.000000	89.532323
1883.000000	89.531335
1884.000000	89.505868
1885.000000	89.430172
1886.000000	89.399601
1887.000000	89.328738
1888.000000	89.188575
1889.000000	89.173255
1890.000000	88.993265
1891.000000	88.904630
1892.000000	88.784142
1893.000000	88.596919
1894.000000	88.396580
1895.000000	88.230721
1896.000000	88.037201
1897.000000	87.854688
1898.000000	87.493043
1899.000000	87.171631
1900.000000	86.905944
1901.000000	86.664891
1902.000000	86.699978
1903.000000	86.493779
1904.000000	86.323398
1905.000000	86.009703
1906.000000	85.782330
1907.000000	85.263904
1908.000000	84.909297
1909.000000	84.593600
1910.000000	84.306865
1911.000000	83.821649
1912.000000	83.459489
1913.000000	83.137985
1914.000000	82.791507
1915.000000	82.437942
1916.000000	82.070565
1917.000000	81.724619
1918.000000	81.236819
1919.000000	80.883204
1920.000000	80.562514
1921.000000	80.161141
1922.000000	79.815389
1923.000000	79.555094
1924.000000	79.068793
1925.000000	78.747764
1926.000000	78.380268
1927.000000	78.051167
1928.000000	77.788847
1929.000000	77.492953
1930.000000	77.206545
1931.000000	76.908810
1932.000000	76.561344
1933.000000	76.279958
1934.000000	76.002477
1935.000000	75.815069
1936.000000	75.553095
1937.000000	75.047570
1938.000000	74.824081
1939.000000	74.551365
1940.000000	74.343691
1941.000000	74.181015
1942.000000	74.065710
1943.000000	73.920319
1944.000000	73.842692
1945.000000	73.752801
1946.000000	73.719332
1947.000000	73.639450
1948.000000	73.557531
1949.000000	73.520530
1950.000000	73.433556
1951.000000	73.408784
1952.000000	73.418807
1953.000000	73.416719
1954.000000	73.354757
1955.000000	73.318326
1956.000000	73.378821
1957.000000	73.388364
1958.000000	73.367477
1959.000000	73.470503
1960.000000	73.533031
1961.000000	73.587067
1962.000000	73.661751
1963.000000	73.700489
1964.000000	73.776894
1965.000000	73.840126
1966.000000	73.927657
1967.000000	74.088365
1968.000000	74.175292
1969.000000	74.318334
1970.000000	74.396583
1971.000000	74.519784
1972.000000	74.605457
1973.000000	74.673538
1974.000000	74.794054
1975.000000	74.920513
1976.000000	75.041905
1977.000000	75.132229
1978.000000	75.224345
1979.000000	75.294855
1980.000000	75.394964
1981.000000	75.492671
1982.000000	75.589790
1983.000000	75.712691
1984.000000	75.797478
1985.000000	75.907775
1986.000000	76.028713
1987.000000	76.122203
1988.000000	76.265262
1989.000000	76.403832
1990.000000	76.520953
1991.000000	76.611418
1992.000000	76.737539
1993.000000	76.815873
1994.000000	76.907392
1995.000000	77.024179
1996.000000	77.108762
1997.000000	77.202468
1998.000000	77.346964
1999.000000	77.405405
2000.000000	77.493086
