PE UV       SUBTECH     SPECTRUM    ASCII       PEDS        4.00        
   -1
4-C. OPTIMA #8172.ASC
23/11/21
16:29:28.00
23/11/21
16:29:28.00
Vinicio Soto Monge

250,000000
1
Lambda 1050
1050L1511233
PerkinElmer UV WinLab 6.3.2.0749 / 2.02.05 Lambda 900 UV/VIS/NIR, Aug  7 2015 09:38:08

0
0
3350/servo 860,8/2
0
0
UV/VIS
1
1
1
DoubleDePol,CommonBeamDepol,RBeamAtt,SBeamAtt,60mm sphere, WB InGaAs Detector
0
0
0
0
Program
Program
3350/servo 860,8/2
3350/0,4 860,8/0,4
3350/0,4 860,8/0,4
0
20.00
 
 
 
0
 
860,8
319,2
860,8
Front
100
on
S:100 R:100
0
0
0
0
 
0
 
 
 
0
 
 
0
0
0
0
0
 
 
 
 
0
0


0
0
#HDR
-1
-1
#GR
nm
%R
1.0
0.0
2200,000000
-1,000000
1951
8
103,081603
5,696163
#DATA
284.000000	5.932551
285.000000	5.919278
286.000000	5.907002
287.000000	5.897725
288.000000	5.888200
289.000000	5.878915
290.000000	5.872027
291.000000	5.865536
292.000000	5.858678
293.000000	5.851477
294.000000	5.846718
295.000000	5.842964
296.000000	5.838543
297.000000	5.832501
298.000000	5.828133
299.000000	5.823777
300.000000	5.820736
301.000000	5.818640
302.000000	5.815748
303.000000	5.812194
304.000000	5.810154
305.000000	5.806987
306.000000	5.803722
307.000000	5.800995
308.000000	5.796963
309.000000	5.793764
310.000000	5.789758
311.000000	5.786820
312.000000	5.784142
313.000000	5.779403
314.000000	5.774681
315.000000	5.770065
316.000000	5.765998
317.000000	5.754876
318.000000	5.745968
319.000000	5.736882
320.000000	5.731041
321.000000	5.722700
322.000000	5.716056
323.000000	5.708044
324.000000	5.699870
325.000000	5.693096
326.000000	5.685224
327.000000	5.680470
328.000000	5.676625
329.000000	5.670067
330.000000	5.663983
331.000000	5.659393
332.000000	5.657792
333.000000	5.653550
334.000000	5.651989
335.000000	5.651051
336.000000	5.650494
337.000000	5.652465
338.000000	5.655265
339.000000	5.659248
340.000000	5.664059
341.000000	5.672020
342.000000	5.681961
343.000000	5.694813
344.000000	5.707382
345.000000	5.722940
346.000000	5.743315
347.000000	5.764941
348.000000	5.790763
349.000000	5.819497
350.000000	5.852579
351.000000	5.891713
352.000000	5.940241
353.000000	5.992283
354.000000	6.049717
355.000000	6.111032
356.000000	6.182327
357.000000	6.259072
358.000000	6.346990
359.000000	6.444367
360.000000	6.549472
361.000000	6.665927
362.000000	6.793035
363.000000	6.931550
364.000000	7.085907
365.000000	7.254067
366.000000	7.436219
367.000000	7.629845
368.000000	7.841047
369.000000	8.068524
370.000000	8.311181
371.000000	8.571881
372.000000	8.849625
373.000000	9.146623
374.000000	9.459575
375.000000	9.789809
376.000000	10.140170
377.000000	10.519394
378.000000	10.916712
379.000000	11.333563
380.000000	11.767917
381.000000	12.217849
382.000000	12.686968
383.000000	13.172432
384.000000	13.673772
385.000000	14.188827
386.000000	14.716182
387.000000	15.255343
388.000000	15.806849
389.000000	16.367887
390.000000	16.935902
391.000000	17.509549
392.000000	18.088083
393.000000	18.668602
394.000000	19.250905
395.000000	19.832952
396.000000	20.411989
397.000000	20.985638
398.000000	21.555225
399.000000	22.117600
400.000000	22.672109
401.000000	23.216793
402.000000	23.751799
403.000000	24.275546
404.000000	24.786831
405.000000	25.283198
406.000000	25.764144
407.000000	26.228238
408.000000	26.674125
409.000000	27.103491
410.000000	27.515146
411.000000	27.903990
412.000000	28.260989
413.000000	28.596343
414.000000	28.910034
415.000000	29.200540
416.000000	29.467212
417.000000	29.710332
418.000000	29.929798
419.000000	30.125156
420.000000	30.297500
421.000000	30.446506
422.000000	30.571515
423.000000	30.673294
424.000000	30.752117
425.000000	30.808665
426.000000	30.843430
427.000000	30.856182
428.000000	30.847972
429.000000	30.819780
430.000000	30.773072
431.000000	30.709573
432.000000	30.629798
433.000000	30.535232
434.000000	30.426931
435.000000	30.307263
436.000000	30.179577
437.000000	30.045699
438.000000	29.907058
439.000000	29.765402
440.000000	29.625092
441.000000	29.488146
442.000000	29.355780
443.000000	29.229291
444.000000	29.110510
445.000000	29.002105
446.000000	28.904016
447.000000	28.817188
448.000000	28.741266
449.000000	28.676528
450.000000	28.623491
451.000000	28.582407
452.000000	28.553102
453.000000	28.535425
454.000000	28.528983
455.000000	28.533152
456.000000	28.548001
457.000000	28.574495
458.000000	28.612050
459.000000	28.660050
460.000000	28.718839
461.000000	28.788161
462.000000	28.868021
463.000000	28.957866
464.000000	29.056388
465.000000	29.163050
466.000000	29.276608
467.000000	29.396299
468.000000	29.520780
469.000000	29.648789
470.000000	29.778509
471.000000	29.907370
472.000000	30.034190
473.000000	30.157473
474.000000	30.276233
475.000000	30.388897
476.000000	30.494351
477.000000	30.592321
478.000000	30.683291
479.000000	30.766466
480.000000	30.840140
481.000000	30.905669
482.000000	30.963952
483.000000	31.016416
484.000000	31.064087
485.000000	31.107071
486.000000	31.146537
487.000000	31.183365
488.000000	31.217757
489.000000	31.251061
490.000000	31.283792
491.000000	31.315805
492.000000	31.346635
493.000000	31.376580
494.000000	31.406947
495.000000	31.436388
496.000000	31.464328
497.000000	31.490991
498.000000	31.517793
499.000000	31.545263
500.000000	31.573041
501.000000	31.601601
502.000000	31.632030
503.000000	31.664814
504.000000	31.701152
505.000000	31.742236
506.000000	31.788507
507.000000	31.840944
508.000000	31.900765
509.000000	31.969225
510.000000	32.046165
511.000000	32.131713
512.000000	32.227099
513.000000	32.331713
514.000000	32.446255
515.000000	32.572167
516.000000	32.708109
517.000000	32.854317
518.000000	33.009683
519.000000	33.174918
520.000000	33.350720
521.000000	33.536975
522.000000	33.733308
523.000000	33.940825
524.000000	34.158604
525.000000	34.386666
526.000000	34.625310
527.000000	34.875178
528.000000	35.136980
529.000000	35.409179
530.000000	35.692881
531.000000	35.988227
532.000000	36.294720
533.000000	36.610678
534.000000	36.935962
535.000000	37.270126
536.000000	37.613545
537.000000	37.963348
538.000000	38.319184
539.000000	38.679779
540.000000	39.044134
541.000000	39.411274
542.000000	39.779025
543.000000	40.146876
544.000000	40.512821
545.000000	40.876810
546.000000	41.237730
547.000000	41.594212
548.000000	41.944821
549.000000	42.288087
550.000000	42.622556
551.000000	42.950400
552.000000	43.268833
553.000000	43.579284
554.000000	43.880383
555.000000	44.171424
556.000000	44.451822
557.000000	44.721471
558.000000	44.979661
559.000000	45.226696
560.000000	45.465298
561.000000	45.692440
562.000000	45.907765
563.000000	46.112796
564.000000	46.307991
565.000000	46.492613
566.000000	46.668683
567.000000	46.836427
568.000000	46.995970
569.000000	47.148321
570.000000	47.294028
571.000000	47.433648
572.000000	47.569750
573.000000	47.701853
574.000000	47.832654
575.000000	47.960759
576.000000	48.087184
577.000000	48.213421
578.000000	48.338750
579.000000	48.464067
580.000000	48.589132
581.000000	48.711494
582.000000	48.832949
583.000000	48.953302
584.000000	49.073356
585.000000	49.193482
586.000000	49.312582
587.000000	49.428790
588.000000	49.541655
589.000000	49.650331
590.000000	49.754587
591.000000	49.854649
592.000000	49.948812
593.000000	50.036872
594.000000	50.119598
595.000000	50.193201
596.000000	50.260874
597.000000	50.323987
598.000000	50.380031
599.000000	50.429861
600.000000	50.472082
601.000000	50.508054
602.000000	50.536642
603.000000	50.559705
604.000000	50.576871
605.000000	50.587817
606.000000	50.592388
607.000000	50.590585
608.000000	50.583622
609.000000	50.568739
610.000000	50.547369
611.000000	50.518822
612.000000	50.484411
613.000000	50.442879
614.000000	50.394807
615.000000	50.339419
616.000000	50.280570
617.000000	50.216353
618.000000	50.147406
619.000000	50.073667
620.000000	49.996370
621.000000	49.915475
622.000000	49.832827
623.000000	49.748744
624.000000	49.663883
625.000000	49.579325
626.000000	49.495177
627.000000	49.413241
628.000000	49.334161
629.000000	49.258343
630.000000	49.186572
631.000000	49.120002
632.000000	49.056678
633.000000	48.998427
634.000000	48.943925
635.000000	48.896083
636.000000	48.853807
637.000000	48.818447
638.000000	48.788403
639.000000	48.765256
640.000000	48.749348
641.000000	48.741802
642.000000	48.741603
643.000000	48.749152
644.000000	48.764493
645.000000	48.787821
646.000000	48.819764
647.000000	48.858350
648.000000	48.905088
649.000000	48.958731
650.000000	49.020888
651.000000	49.089142
652.000000	49.163493
653.000000	49.244739
654.000000	49.332615
655.000000	49.426273
656.000000	49.524271
657.000000	49.628245
658.000000	49.738220
659.000000	49.854573
660.000000	49.977059
661.000000	50.105017
662.000000	50.238022
663.000000	50.377160
664.000000	50.521164
665.000000	50.669842
666.000000	50.823358
667.000000	50.983349
668.000000	51.148674
669.000000	51.321758
670.000000	51.502339
671.000000	51.688429
672.000000	51.880625
673.000000	52.081245
674.000000	52.287675
675.000000	52.501399
676.000000	52.720013
677.000000	52.944179
678.000000	53.173135
679.000000	53.407715
680.000000	53.648328
681.000000	53.893684
682.000000	54.145067
683.000000	54.401691
684.000000	54.664284
685.000000	54.931424
686.000000	55.203164
687.000000	55.479585
688.000000	55.758932
689.000000	56.043288
690.000000	56.330455
691.000000	56.621938
692.000000	56.916764
693.000000	57.212207
694.000000	57.507916
695.000000	57.803186
696.000000	58.098995
697.000000	58.393610
698.000000	58.686509
699.000000	58.979441
700.000000	59.272391
701.000000	59.563667
702.000000	59.852526
703.000000	60.139029
704.000000	60.423459
705.000000	60.706632
706.000000	60.987661
707.000000	61.266066
708.000000	61.541397
709.000000	61.813046
710.000000	62.080885
711.000000	62.347808
712.000000	62.610990
713.000000	62.869111
714.000000	63.123408
715.000000	63.372585
716.000000	63.617830
717.000000	63.857645
718.000000	64.091979
719.000000	64.319690
720.000000	64.543412
721.000000	64.762778
722.000000	64.976483
723.000000	65.186688
724.000000	65.390350
725.000000	65.590300
726.000000	65.785677
727.000000	65.978252
728.000000	66.168230
729.000000	66.354209
730.000000	66.539054
731.000000	66.720953
732.000000	66.902710
733.000000	67.083388
734.000000	67.260844
735.000000	67.435958
736.000000	67.609489
737.000000	67.782763
738.000000	67.953568
739.000000	68.120108
740.000000	68.282864
741.000000	68.443549
742.000000	68.601321
743.000000	68.755832
744.000000	68.908985
745.000000	69.059652
746.000000	69.205608
747.000000	69.349063
748.000000	69.492946
749.000000	69.635893
750.000000	69.776318
751.000000	69.915402
752.000000	70.055743
753.000000	70.198488
754.000000	70.340644
755.000000	70.481387
756.000000	70.622858
757.000000	70.763170
758.000000	70.901874
759.000000	71.038956
760.000000	71.174053
761.000000	71.309263
762.000000	71.444052
763.000000	71.578463
764.000000	71.714030
765.000000	71.848263
766.000000	71.984382
767.000000	72.117643
768.000000	72.246606
769.000000	72.375265
770.000000	72.504091
771.000000	72.634762
772.000000	72.765068
773.000000	72.893769
774.000000	73.023282
775.000000	73.154717
776.000000	73.284292
777.000000	73.415563
778.000000	73.545888
779.000000	73.674466
780.000000	73.803553
781.000000	73.934632
782.000000	74.065843
783.000000	74.195799
784.000000	74.323780
785.000000	74.452672
786.000000	74.585931
787.000000	74.713792
788.000000	74.835911
789.000000	74.957158
790.000000	75.082361
791.000000	75.208348
792.000000	75.332869
793.000000	75.458648
794.000000	75.583717
795.000000	75.709710
796.000000	75.834339
797.000000	75.959718
798.000000	76.084869
799.000000	76.212265
800.000000	76.339618
801.000000	76.464283
802.000000	76.590566
803.000000	76.718645
804.000000	76.847689
805.000000	76.974842
806.000000	77.099911
807.000000	77.225073
808.000000	77.352480
809.000000	77.480029
810.000000	77.604925
811.000000	77.731804
812.000000	77.855403
813.000000	77.978937
814.000000	78.103145
815.000000	78.225951
816.000000	78.351199
817.000000	78.476419
818.000000	78.601189
819.000000	78.725274
820.000000	78.849630
821.000000	78.972765
822.000000	79.098801
823.000000	79.227737
824.000000	79.354057
825.000000	79.475655
826.000000	79.592651
827.000000	79.716529
828.000000	79.840974
829.000000	79.966446
830.000000	80.088823
831.000000	80.206244
832.000000	80.324461
833.000000	80.444645
834.000000	80.560107
835.000000	80.674831
836.000000	80.783625
837.000000	80.897955
838.000000	81.019503
839.000000	81.135396
840.000000	81.246873
841.000000	81.359723
842.000000	81.470692
843.000000	81.581541
844.000000	81.695726
845.000000	81.805573
846.000000	81.911463
847.000000	82.027053
848.000000	82.132486
849.000000	82.239860
850.000000	82.338754
851.000000	82.447183
852.000000	82.550784
853.000000	82.652432
854.000000	82.752623
855.000000	82.863046
856.000000	82.968340
857.000000	83.060150
858.000000	83.157232
859.000000	83.282010
860.000000	83.425627
861.000000	83.559463
862.000000	83.681012
863.000000	83.790457
864.000000	83.914871
865.000000	84.054494
866.000000	84.153410
867.000000	84.280692
868.000000	84.401313
869.000000	84.513065
870.000000	84.638632
871.000000	84.749790
872.000000	84.860757
873.000000	84.979021
874.000000	85.103674
875.000000	85.206066
876.000000	85.300150
877.000000	85.430569
878.000000	85.565064
879.000000	85.698825
880.000000	85.817657
881.000000	85.941886
882.000000	86.060302
883.000000	86.176859
884.000000	86.293335
885.000000	86.417528
886.000000	86.531427
887.000000	86.640104
888.000000	86.785443
889.000000	86.898010
890.000000	87.016709
891.000000	87.133810
892.000000	87.239874
893.000000	87.342609
894.000000	87.437080
895.000000	87.496733
896.000000	87.580884
897.000000	87.650364
898.000000	87.738734
899.000000	87.829433
900.000000	87.874515
901.000000	87.980866
902.000000	88.052434
903.000000	88.112041
904.000000	88.207612
905.000000	88.288417
906.000000	88.354763
907.000000	88.432997
908.000000	88.492278
909.000000	88.576976
910.000000	88.680722
911.000000	88.769172
912.000000	88.779078
913.000000	88.804806
914.000000	88.859468
915.000000	88.918078
916.000000	88.961109
917.000000	89.032119
918.000000	89.079387
919.000000	89.121557
920.000000	89.169741
921.000000	89.210604
922.000000	89.252281
923.000000	89.281424
924.000000	89.339559
925.000000	89.396764
926.000000	89.439337
927.000000	89.514519
928.000000	89.585350
929.000000	89.618931
930.000000	89.659281
931.000000	89.703131
932.000000	89.757100
933.000000	89.831179
934.000000	89.894328
935.000000	89.952079
936.000000	89.997754
937.000000	90.029591
938.000000	90.085698
939.000000	90.133699
940.000000	90.195313
941.000000	90.267353
942.000000	90.315519
943.000000	90.377369
944.000000	90.424196
945.000000	90.454429
946.000000	90.504866
947.000000	90.625312
948.000000	90.691296
949.000000	90.706690
950.000000	90.757729
951.000000	90.804796
952.000000	90.843352
953.000000	90.916585
954.000000	90.997901
955.000000	91.069023
956.000000	91.155065
957.000000	91.232434
958.000000	91.296544
959.000000	91.347163
960.000000	91.375560
961.000000	91.392613
962.000000	91.440716
963.000000	91.477937
964.000000	91.543663
965.000000	91.624964
966.000000	91.678106
967.000000	91.746861
968.000000	91.783535
969.000000	91.813524
970.000000	91.875366
971.000000	91.931484
972.000000	92.020943
973.000000	92.079675
974.000000	92.130225
975.000000	92.148251
976.000000	92.186110
977.000000	92.248243
978.000000	92.283590
979.000000	92.299046
980.000000	92.368921
981.000000	92.422255
982.000000	92.455304
983.000000	92.513405
984.000000	92.584691
985.000000	92.658791
986.000000	92.731846
987.000000	92.780547
988.000000	92.819408
989.000000	92.865235
990.000000	92.898817
991.000000	92.915243
992.000000	92.984924
993.000000	93.032509
994.000000	93.082997
995.000000	93.146415
996.000000	93.224995
997.000000	93.257439
998.000000	93.326508
999.000000	93.398276
1000.000000	93.452811
1001.000000	93.495181
1002.000000	93.519111
1003.000000	93.551864
1004.000000	93.578875
1005.000000	93.612225
1006.000000	93.642025
1007.000000	93.665556
1008.000000	93.731829
1009.000000	93.765943
1010.000000	93.815349
1011.000000	93.865734
1012.000000	93.889771
1013.000000	93.932298
1014.000000	93.975021
1015.000000	94.001679
1016.000000	94.055680
1017.000000	94.088806
1018.000000	94.128491
1019.000000	94.174898
1020.000000	94.195269
1021.000000	94.252415
1022.000000	94.282157
1023.000000	94.311945
1024.000000	94.339109
1025.000000	94.367444
1026.000000	94.392929
1027.000000	94.419357
1028.000000	94.456830
1029.000000	94.490375
1030.000000	94.515679
1031.000000	94.557027
1032.000000	94.598263
1033.000000	94.613705
1034.000000	94.618755
1035.000000	94.647780
1036.000000	94.711946
1037.000000	94.755552
1038.000000	94.798092
1039.000000	94.850148
1040.000000	94.897186
1041.000000	94.950876
1042.000000	94.995492
1043.000000	95.040281
1044.000000	95.096794
1045.000000	95.127891
1046.000000	95.162173
1047.000000	95.229285
1048.000000	95.274624
1049.000000	95.312086
1050.000000	95.338415
1051.000000	95.355382
1052.000000	95.376790
1053.000000	95.397765
1054.000000	95.414429
1055.000000	95.461020
1056.000000	95.477791
1057.000000	95.506991
1058.000000	95.553877
1059.000000	95.611162
1060.000000	95.693178
1061.000000	95.760490
1062.000000	95.760240
1063.000000	95.777088
1064.000000	95.817907
1065.000000	95.860783
1066.000000	95.906208
1067.000000	95.954648
1068.000000	95.997677
1069.000000	96.050687
1070.000000	96.101256
1071.000000	96.100811
1072.000000	96.140693
1073.000000	96.155006
1074.000000	96.178229
1075.000000	96.188745
1076.000000	96.208645
1077.000000	96.226782
1078.000000	96.204961
1079.000000	96.194351
1080.000000	96.223488
1081.000000	96.274923
1082.000000	96.268917
1083.000000	96.313825
1084.000000	96.353070
1085.000000	96.375712
1086.000000	96.409292
1087.000000	96.463297
1088.000000	96.486816
1089.000000	96.505300
1090.000000	96.506429
1091.000000	96.516094
1092.000000	96.529114
1093.000000	96.543373
1094.000000	96.544433
1095.000000	96.545472
1096.000000	96.556340
1097.000000	96.600512
1098.000000	96.620990
1099.000000	96.642434
1100.000000	96.634317
1101.000000	96.618307
1102.000000	96.632322
1103.000000	96.635169
1104.000000	96.627161
1105.000000	96.597787
1106.000000	96.612166
1107.000000	96.630218
1108.000000	96.651345
1109.000000	96.664290
1110.000000	96.706233
1111.000000	96.736100
1112.000000	96.766017
1113.000000	96.834687
1114.000000	96.869862
1115.000000	96.880934
1116.000000	96.858757
1117.000000	96.921311
1118.000000	96.910716
1119.000000	96.921836
1120.000000	96.930625
1121.000000	96.922737
1122.000000	96.941188
1123.000000	97.003923
1124.000000	97.047369
1125.000000	97.078435
1126.000000	97.074741
1127.000000	97.110499
1128.000000	97.128264
1129.000000	97.158941
1130.000000	97.142305
1131.000000	97.148992
1132.000000	97.159089
1133.000000	97.179723
1134.000000	97.251965
1135.000000	97.264476
1136.000000	97.279284
1137.000000	97.286847
1138.000000	97.305271
1139.000000	97.320054
1140.000000	97.335760
1141.000000	97.320625
1142.000000	97.329713
1143.000000	97.330192
1144.000000	97.315431
1145.000000	97.290587
1146.000000	97.263683
1147.000000	97.251688
1148.000000	97.185207
1149.000000	97.215280
1150.000000	97.194730
1151.000000	97.192376
1152.000000	97.165036
1153.000000	97.175511
1154.000000	97.146613
1155.000000	97.134835
1156.000000	97.135784
1157.000000	97.085601
1158.000000	97.027544
1159.000000	96.977833
1160.000000	96.939643
1161.000000	96.926291
1162.000000	96.882712
1163.000000	96.862160
1164.000000	96.802929
1165.000000	96.793641
1166.000000	96.744895
1167.000000	96.717985
1168.000000	96.682321
1169.000000	96.560601
1170.000000	96.501786
1171.000000	96.467284
1172.000000	96.429143
1173.000000	96.393043
1174.000000	96.362501
1175.000000	96.300371
1176.000000	96.265641
1177.000000	96.224499
1178.000000	96.188398
1179.000000	96.203194
1180.000000	96.188461
1181.000000	96.181740
1182.000000	96.155981
1183.000000	96.164656
1184.000000	96.080160
1185.000000	96.028824
1186.000000	95.998065
1187.000000	95.932768
1188.000000	95.894286
1189.000000	95.898181
1190.000000	95.885606
1191.000000	95.849954
1192.000000	95.854740
1193.000000	95.849984
1194.000000	95.842785
1195.000000	95.818798
1196.000000	95.797786
1197.000000	95.771129
1198.000000	95.751048
1199.000000	95.765774
1200.000000	95.758110
1201.000000	95.787089
1202.000000	95.796830
1203.000000	95.783871
1204.000000	95.796281
1205.000000	95.829946
1206.000000	95.861434
1207.000000	95.854638
1208.000000	95.840848
1209.000000	95.833051
1210.000000	95.879086
1211.000000	95.930025
1212.000000	95.949012
1213.000000	95.983849
1214.000000	95.962525
1215.000000	95.986279
1216.000000	95.988476
1217.000000	95.992364
1218.000000	95.984676
1219.000000	96.019131
1220.000000	96.050801
1221.000000	96.055175
1222.000000	96.099478
1223.000000	96.097749
1224.000000	96.089082
1225.000000	96.084389
1226.000000	96.107676
1227.000000	96.113178
1228.000000	96.142084
1229.000000	96.165462
1230.000000	96.167147
1231.000000	96.194887
1232.000000	96.250227
1233.000000	96.279828
1234.000000	96.291732
1235.000000	96.306511
1236.000000	96.307290
1237.000000	96.300445
1238.000000	96.299189
1239.000000	96.288723
1240.000000	96.307252
1241.000000	96.316166
1242.000000	96.342528
1243.000000	96.389648
1244.000000	96.432237
1245.000000	96.432697
1246.000000	96.456425
1247.000000	96.468595
1248.000000	96.479447
1249.000000	96.523237
1250.000000	96.535602
1251.000000	96.537071
1252.000000	96.531213
1253.000000	96.542543
1254.000000	96.559480
1255.000000	96.619221
1256.000000	96.675720
1257.000000	96.661013
1258.000000	96.672705
1259.000000	96.709252
1260.000000	96.752704
1261.000000	96.775866
1262.000000	96.780439
1263.000000	96.755326
1264.000000	96.754665
1265.000000	96.768692
1266.000000	96.773397
1267.000000	96.756405
1268.000000	96.737166
1269.000000	96.732852
1270.000000	96.744224
1271.000000	96.749994
1272.000000	96.740276
1273.000000	96.767161
1274.000000	96.814416
1275.000000	96.820173
1276.000000	96.800560
1277.000000	96.797216
1278.000000	96.776270
1279.000000	96.762663
1280.000000	96.780295
1281.000000	96.778053
1282.000000	96.780534
1283.000000	96.784196
1284.000000	96.753311
1285.000000	96.751094
1286.000000	96.781263
1287.000000	96.801839
1288.000000	96.828628
1289.000000	96.841859
1290.000000	96.837678
1291.000000	96.821732
1292.000000	96.841522
1293.000000	96.876305
1294.000000	96.880247
1295.000000	96.887701
1296.000000	96.880678
1297.000000	96.873638
1298.000000	96.899440
1299.000000	96.933950
1300.000000	96.975583
1301.000000	96.998099
1302.000000	97.007200
1303.000000	97.008879
1304.000000	97.033970
1305.000000	97.036794
1306.000000	97.052741
1307.000000	97.064052
1308.000000	97.066061
1309.000000	97.058301
1310.000000	97.076087
1311.000000	97.100571
1312.000000	97.116500
1313.000000	97.139258
1314.000000	97.144734
1315.000000	97.142702
1316.000000	97.121387
1317.000000	97.108277
1318.000000	97.105260
1319.000000	97.126243
1320.000000	97.134089
1321.000000	97.131692
1322.000000	97.152897
1323.000000	97.127982
1324.000000	97.098201
1325.000000	97.099866
1326.000000	97.089716
1327.000000	97.084688
1328.000000	97.063184
1329.000000	97.044885
1330.000000	97.010902
1331.000000	97.003245
1332.000000	96.993827
1333.000000	96.961986
1334.000000	96.938488
1335.000000	96.914120
1336.000000	96.881457
1337.000000	96.860651
1338.000000	96.857011
1339.000000	96.812495
1340.000000	96.765484
1341.000000	96.722075
1342.000000	96.695310
1343.000000	96.676764
1344.000000	96.627567
1345.000000	96.569161
1346.000000	96.524272
1347.000000	96.459730
1348.000000	96.399068
1349.000000	96.335463
1350.000000	96.243030
1351.000000	96.124643
1352.000000	96.062270
1353.000000	95.957455
1354.000000	95.941442
1355.000000	95.916329
1356.000000	95.983702
1357.000000	95.944117
1358.000000	95.903109
1359.000000	95.844124
1360.000000	95.881100
1361.000000	95.862647
1362.000000	95.689285
1363.000000	95.575448
1364.000000	95.509808
1365.000000	95.366800
1366.000000	95.407539
1367.000000	95.511330
1368.000000	95.454617
1369.000000	95.486710
1370.000000	95.637955
1371.000000	95.584233
1372.000000	95.447900
1373.000000	95.321131
1374.000000	95.314065
1375.000000	95.283799
1376.000000	95.298409
1377.000000	95.185847
1378.000000	95.148113
1379.000000	94.998261
1380.000000	94.775050
1381.000000	94.599394
1382.000000	94.724640
1383.000000	94.755847
1384.000000	94.912449
1385.000000	94.967992
1386.000000	94.993189
1387.000000	95.173321
1388.000000	95.127884
1389.000000	95.121871
1390.000000	95.072629
1391.000000	94.821857
1392.000000	94.488714
1393.000000	94.357396
1394.000000	94.389041
1395.000000	94.172989
1396.000000	93.865966
1397.000000	93.772756
1398.000000	93.649110
1399.000000	93.623453
1400.000000	93.753410
1401.000000	93.515887
1402.000000	93.240358
1403.000000	93.082922
1404.000000	92.969780
1405.000000	92.547878
1406.000000	92.461481
1407.000000	92.338511
1408.000000	92.219604
1409.000000	92.016750
1410.000000	91.816527
1411.000000	91.550973
1412.000000	91.420162
1413.000000	91.216888
1414.000000	91.175046
1415.000000	91.174899
1416.000000	91.125611
1417.000000	90.757449
1418.000000	90.570597
1419.000000	90.163105
1420.000000	89.908999
1421.000000	89.685831
1422.000000	89.279282
1423.000000	89.155613
1424.000000	88.825312
1425.000000	88.552255
1426.000000	88.368122
1427.000000	88.362953
1428.000000	88.226099
1429.000000	87.953059
1430.000000	87.777164
1431.000000	87.785130
1432.000000	87.710247
1433.000000	87.601488
1434.000000	87.322650
1435.000000	87.009929
1436.000000	86.848612
1437.000000	86.716825
1438.000000	86.582725
1439.000000	86.330857
1440.000000	86.245235
1441.000000	86.032726
1442.000000	85.938877
1443.000000	85.805538
1444.000000	85.666056
1445.000000	85.632713
1446.000000	85.481429
1447.000000	85.390223
1448.000000	85.259804
1449.000000	85.104590
1450.000000	85.016104
1451.000000	84.858712
1452.000000	84.747902
1453.000000	84.565360
1454.000000	84.463812
1455.000000	84.312023
1456.000000	84.228231
1457.000000	84.109288
1458.000000	83.967164
1459.000000	83.875325
1460.000000	83.775668
1461.000000	83.706639
1462.000000	83.631777
1463.000000	83.509091
1464.000000	83.382133
1465.000000	83.270515
1466.000000	83.160756
1467.000000	83.067832
1468.000000	82.976617
1469.000000	82.958890
1470.000000	82.891563
1471.000000	82.827260
1472.000000	82.701669
1473.000000	82.611641
1474.000000	82.481805
1475.000000	82.396927
1476.000000	82.299412
1477.000000	82.183765
1478.000000	82.106478
1479.000000	82.014499
1480.000000	81.860257
1481.000000	81.832106
1482.000000	81.727402
1483.000000	81.671884
1484.000000	81.594503
1485.000000	81.479979
1486.000000	81.445860
1487.000000	81.377793
1488.000000	81.287806
1489.000000	81.233552
1490.000000	81.213331
1491.000000	81.158116
1492.000000	81.095369
1493.000000	81.024015
1494.000000	80.983821
1495.000000	80.958427
1496.000000	80.931401
1497.000000	80.918789
1498.000000	80.916553
1499.000000	80.888567
1500.000000	80.872731
1501.000000	80.847676
1502.000000	80.809768
1503.000000	80.793979
1504.000000	80.750530
1505.000000	80.723045
1506.000000	80.729170
1507.000000	80.747767
1508.000000	80.790047
1509.000000	80.836524
1510.000000	80.857755
1511.000000	80.909997
1512.000000	80.978264
1513.000000	81.029667
1514.000000	81.069513
1515.000000	81.111237
1516.000000	81.178609
1517.000000	81.244164
1518.000000	81.280860
1519.000000	81.346389
1520.000000	81.413418
1521.000000	81.477960
1522.000000	81.578332
1523.000000	81.674328
1524.000000	81.751668
1525.000000	81.811996
1526.000000	81.876032
1527.000000	81.960435
1528.000000	82.053290
1529.000000	82.126960
1530.000000	82.208686
1531.000000	82.279902
1532.000000	82.334645
1533.000000	82.391217
1534.000000	82.474044
1535.000000	82.566165
1536.000000	82.638539
1537.000000	82.732615
1538.000000	82.817635
1539.000000	82.886347
1540.000000	82.964876
1541.000000	83.029003
1542.000000	83.084393
1543.000000	83.110759
1544.000000	83.168559
1545.000000	83.236169
1546.000000	83.299714
1547.000000	83.366606
1548.000000	83.436371
1549.000000	83.526134
1550.000000	83.602883
1551.000000	83.648905
1552.000000	83.707301
1553.000000	83.764984
1554.000000	83.836348
1555.000000	83.910732
1556.000000	83.949993
1557.000000	83.981096
1558.000000	84.029135
1559.000000	84.069330
1560.000000	84.111128
1561.000000	84.158637
1562.000000	84.196533
1563.000000	84.234027
1564.000000	84.303027
1565.000000	84.334596
1566.000000	84.342300
1567.000000	84.379897
1568.000000	84.438909
1569.000000	84.478782
1570.000000	84.507118
1571.000000	84.548007
1572.000000	84.598593
1573.000000	84.630057
1574.000000	84.653691
1575.000000	84.656228
1576.000000	84.660756
1577.000000	84.697297
1578.000000	84.736207
1579.000000	84.753381
1580.000000	84.746117
1581.000000	84.735722
1582.000000	84.744296
1583.000000	84.743415
1584.000000	84.715838
1585.000000	84.715155
1586.000000	84.725154
1587.000000	84.742477
1588.000000	84.751844
1589.000000	84.759373
1590.000000	84.746242
1591.000000	84.753346
1592.000000	84.768688
1593.000000	84.777111
1594.000000	84.784903
1595.000000	84.802415
1596.000000	84.813928
1597.000000	84.845761
1598.000000	84.893398
1599.000000	84.915995
1600.000000	84.949733
1601.000000	85.010024
1602.000000	85.036548
1603.000000	85.051862
1604.000000	85.090586
1605.000000	85.141214
1606.000000	85.180478
1607.000000	85.213243
1608.000000	85.267666
1609.000000	85.313350
1610.000000	85.371781
1611.000000	85.419820
1612.000000	85.465533
1613.000000	85.526066
1614.000000	85.569266
1615.000000	85.652310
1616.000000	85.729477
1617.000000	85.792367
1618.000000	85.866614
1619.000000	85.948737
1620.000000	86.003238
1621.000000	86.059754
1622.000000	86.108174
1623.000000	86.147991
1624.000000	86.162390
1625.000000	86.220376
1626.000000	86.275030
1627.000000	86.318391
1628.000000	86.337202
1629.000000	86.367531
1630.000000	86.419170
1631.000000	86.486239
1632.000000	86.535837
1633.000000	86.552710
1634.000000	86.585585
1635.000000	86.629340
1636.000000	86.692660
1637.000000	86.749223
1638.000000	86.800601
1639.000000	86.826294
1640.000000	86.841173
1641.000000	86.859725
1642.000000	86.888803
1643.000000	86.909010
1644.000000	86.928006
1645.000000	86.968347
1646.000000	87.018541
1647.000000	87.070701
1648.000000	87.083563
1649.000000	87.110249
1650.000000	87.107702
1651.000000	87.143423
1652.000000	87.140047
1653.000000	87.158392
1654.000000	87.137803
1655.000000	87.126515
1656.000000	87.141562
1657.000000	87.138230
1658.000000	87.165794
1659.000000	87.189302
1660.000000	87.187412
1661.000000	87.198511
1662.000000	87.192932
1663.000000	87.197919
1664.000000	87.225341
1665.000000	87.218043
1666.000000	87.193079
1667.000000	87.158766
1668.000000	87.138489
1669.000000	87.076828
1670.000000	87.019254
1671.000000	86.946382
1672.000000	86.935794
1673.000000	86.879160
1674.000000	86.837998
1675.000000	86.765299
1676.000000	86.698089
1677.000000	86.632359
1678.000000	86.548528
1679.000000	86.487206
1680.000000	86.386102
1681.000000	86.282576
1682.000000	86.157140
1683.000000	86.046574
1684.000000	85.964175
1685.000000	85.883447
1686.000000	85.747588
1687.000000	85.665916
1688.000000	85.551391
1689.000000	85.468107
1690.000000	85.395471
1691.000000	85.287223
1692.000000	85.201455
1693.000000	85.142024
1694.000000	85.047925
1695.000000	84.962313
1696.000000	84.861687
1697.000000	84.791971
1698.000000	84.775995
1699.000000	84.733478
1700.000000	84.688804
1701.000000	84.638993
1702.000000	84.591768
1703.000000	84.555505
1704.000000	84.569881
1705.000000	84.541228
1706.000000	84.504729
1707.000000	84.424802
1708.000000	84.378324
1709.000000	84.330485
1710.000000	84.303950
1711.000000	84.310991
1712.000000	84.269906
1713.000000	84.243548
1714.000000	84.186334
1715.000000	84.174100
1716.000000	84.115763
1717.000000	84.065050
1718.000000	84.047847
1719.000000	83.972953
1720.000000	83.900718
1721.000000	83.864158
1722.000000	83.803821
1723.000000	83.747570
1724.000000	83.708902
1725.000000	83.638953
1726.000000	83.575835
1727.000000	83.536310
1728.000000	83.436180
1729.000000	83.387571
1730.000000	83.346021
1731.000000	83.305333
1732.000000	83.241313
1733.000000	83.137981
1734.000000	83.047967
1735.000000	82.977057
1736.000000	82.921814
1737.000000	82.837201
1738.000000	82.760965
1739.000000	82.680267
1740.000000	82.632360
1741.000000	82.574593
1742.000000	82.538638
1743.000000	82.521525
1744.000000	82.486494
1745.000000	82.498025
1746.000000	82.464081
1747.000000	82.468148
1748.000000	82.453029
1749.000000	82.466041
1750.000000	82.449217
1751.000000	82.514384
1752.000000	82.561068
1753.000000	82.578261
1754.000000	82.624525
1755.000000	82.660694
1756.000000	82.700518
1757.000000	82.738089
1758.000000	82.789305
1759.000000	82.806643
1760.000000	82.854682
1761.000000	82.896453
1762.000000	82.895356
1763.000000	82.922641
1764.000000	82.981176
1765.000000	83.012332
1766.000000	83.035971
1767.000000	83.051987
1768.000000	83.081982
1769.000000	83.092875
1770.000000	83.118151
1771.000000	83.120588
1772.000000	83.158286
1773.000000	83.177506
1774.000000	83.203237
1775.000000	83.211573
1776.000000	83.228014
1777.000000	83.241978
1778.000000	83.235079
1779.000000	83.234263
1780.000000	83.215491
1781.000000	83.222045
1782.000000	83.219116
1783.000000	83.244327
1784.000000	83.254976
1785.000000	83.278871
1786.000000	83.257725
1787.000000	83.247164
1788.000000	83.277968
1789.000000	83.296903
1790.000000	83.331001
1791.000000	83.342262
1792.000000	83.370189
1793.000000	83.364685
1794.000000	83.387433
1795.000000	83.399009
1796.000000	83.426046
1797.000000	83.479280
1798.000000	83.520400
1799.000000	83.522593
1800.000000	83.551613
1801.000000	83.603090
1802.000000	83.645789
1803.000000	83.666243
1804.000000	83.713175
1805.000000	83.775079
1806.000000	83.855319
1807.000000	83.882945
1808.000000	83.895792
1809.000000	83.899571
1810.000000	83.943952
1811.000000	83.970784
1812.000000	83.962918
1813.000000	83.981634
1814.000000	84.032898
1815.000000	84.058888
1816.000000	84.086632
1817.000000	84.232746
1818.000000	84.377316
1819.000000	84.526195
1820.000000	84.602925
1821.000000	84.568579
1822.000000	84.544391
1823.000000	84.518595
1824.000000	84.510410
1825.000000	84.675994
1826.000000	84.785024
1827.000000	84.776496
1828.000000	84.784817
1829.000000	84.812720
1830.000000	84.930750
1831.000000	84.959449
1832.000000	84.926192
1833.000000	84.894492
1834.000000	84.884271
1835.000000	85.008423
1836.000000	85.052108
1837.000000	84.984832
1838.000000	84.892987
1839.000000	84.775944
1840.000000	84.614224
1841.000000	84.604693
1842.000000	84.629475
1843.000000	84.615885
1844.000000	84.555600
1845.000000	84.476280
1846.000000	84.564152
1847.000000	84.733213
1848.000000	84.742569
1849.000000	84.695934
1850.000000	84.637285
1851.000000	84.533996
1852.000000	84.376091
1853.000000	84.257727
1854.000000	84.105613
1855.000000	84.055645
1856.000000	84.017410
1857.000000	83.949576
1858.000000	83.907951
1859.000000	83.896547
1860.000000	83.680057
1861.000000	83.547228
1862.000000	83.574369
1863.000000	83.734902
1864.000000	83.756967
1865.000000	83.631206
1866.000000	83.596429
1867.000000	83.635190
1868.000000	83.639815
1869.000000	83.623179
1870.000000	83.586557
1871.000000	83.413553
1872.000000	83.593357
1873.000000	83.652788
1874.000000	83.698669
1875.000000	83.730152
1876.000000	83.769094
1877.000000	83.703678
1878.000000	83.648068
1879.000000	83.604636
1880.000000	83.612412
1881.000000	83.409694
1882.000000	83.124646
1883.000000	83.069524
1884.000000	82.954102
1885.000000	82.848781
1886.000000	82.795527
1887.000000	82.634156
1888.000000	82.391237
1889.000000	82.278172
1890.000000	81.996358
1891.000000	81.882186
1892.000000	81.720630
1893.000000	81.481996
1894.000000	81.183659
1895.000000	80.917877
1896.000000	80.612160
1897.000000	80.263051
1898.000000	79.777812
1899.000000	79.337506
1900.000000	78.917131
1901.000000	78.524253
1902.000000	78.389849
1903.000000	78.019291
1904.000000	77.619318
1905.000000	77.009965
1906.000000	76.617106
1907.000000	75.935743
1908.000000	75.430112
1909.000000	74.926233
1910.000000	74.430728
1911.000000	73.711745
1912.000000	73.147342
1913.000000	72.651458
1914.000000	72.125370
1915.000000	71.574215
1916.000000	70.992949
1917.000000	70.424435
1918.000000	69.776589
1919.000000	69.299822
1920.000000	68.794021
1921.000000	68.180311
1922.000000	67.652873
1923.000000	67.214458
1924.000000	66.606504
1925.000000	66.137044
1926.000000	65.653375
1927.000000	65.166952
1928.000000	64.739336
1929.000000	64.367921
1930.000000	63.946882
1931.000000	63.553157
1932.000000	63.164318
1933.000000	62.830987
1934.000000	62.471656
1935.000000	62.190972
1936.000000	61.847390
1937.000000	61.260126
1938.000000	60.949952
1939.000000	60.632554
1940.000000	60.431727
1941.000000	60.206406
1942.000000	60.038088
1943.000000	59.862883
1944.000000	59.713012
1945.000000	59.583430
1946.000000	59.539075
1947.000000	59.450827
1948.000000	59.329163
1949.000000	59.267399
1950.000000	59.178826
1951.000000	59.223124
1952.000000	59.290875
1953.000000	59.305069
1954.000000	59.257914
1955.000000	59.274425
1956.000000	59.378024
1957.000000	59.428333
1958.000000	59.444260
1959.000000	59.551004
1960.000000	59.622258
1961.000000	59.679787
1962.000000	59.819042
1963.000000	59.917191
1964.000000	60.005303
1965.000000	60.128018
1966.000000	60.251632
1967.000000	60.384640
1968.000000	60.458203
1969.000000	60.642116
1970.000000	60.763151
1971.000000	60.913204
1972.000000	61.020011
1973.000000	61.128180
1974.000000	61.309190
1975.000000	61.412879
1976.000000	61.580907
1977.000000	61.777944
1978.000000	61.922112
1979.000000	62.092932
1980.000000	62.278343
1981.000000	62.432861
1982.000000	62.589015
1983.000000	62.759210
1984.000000	62.919482
1985.000000	63.066538
1986.000000	63.203661
1987.000000	63.328316
1988.000000	63.491267
1989.000000	63.640567
1990.000000	63.764548
1991.000000	63.891143
1992.000000	64.049749
1993.000000	64.176191
1994.000000	64.301430
1995.000000	64.464715
1996.000000	64.596849
1997.000000	64.720980
1998.000000	64.869480
1999.000000	64.971376
2000.000000	65.115763
