PE UV       SUBTECH     SPECTRUM    ASCII       PEDS        4.00        
   -1
CICIMAUCR0021-2.Sample.ASC
24/04/17
13:39:35.00
24/04/17
13:39:35.00
Vinicio Soto Monge
C. resplendens. 
250,000000
1
Lambda 1050
1050L1511233
PerkinElmer UV WinLab 6.3.2.0749 / 2.02.05 Lambda 900 UV/VIS/NIR, Aug  7 2015 09:38:08

0
0
3350/servo 860,8/2
0
0
UV/VIS
1
1
1
DoubleDePol,CommonBeamDepol,RBeamAtt,SBeamAtt,60mm sphere, WB InGaAs Detector
0
0
0
0
Program
Program
3350/servo 860,8/2
3350/0,2 860,8/0,2
3350/0,2 860,8/0,2
0
15.00
 
 
 
0
 
860,8
319,2
860,8
Front
100
on
S:100 R:100
0
0
0
0
 
0
 
 
 
0
 
 
0
0
0
0
0
 
 
 
 
0
0


0
0
#HDR
-1
-1
#GR
nm
%R
1.0
0.0
2500,000000
-1,000000
2251
8
60,763900
4,261100
#DATA
2482.000000	7.743300
2481.000000	7.722508
2480.000000	7.794533
2479.000000	7.768227
2478.000000	7.736178
2477.000000	7.737212
2476.000000	7.736178
2475.000000	7.649679
2474.000000	7.739969
2473.000000	7.702635
2472.000000	7.723772
2471.000000	7.697581
2470.000000	7.652206
2469.000000	7.664383
2468.000000	7.682533
2467.000000	7.701027
2466.000000	7.725035
2465.000000	7.743070
2464.000000	7.755476
2463.000000	7.761794
2462.000000	7.815784
2461.000000	7.834394
2460.000000	7.865064
2459.000000	7.857253
2458.000000	7.920088
2457.000000	7.959030
2456.000000	7.996823
2455.000000	8.055752
2454.000000	8.148454
2453.000000	8.182111
2452.000000	8.244832
2451.000000	8.271137
2450.000000	8.349940
2449.000000	8.429776
2448.000000	8.454703
2447.000000	8.485718
2446.000000	8.522248
2445.000000	8.602428
2444.000000	8.650445
2443.000000	8.733498
2442.000000	8.788521
2441.000000	8.825510
2440.000000	8.872033
2439.000000	8.918671
2438.000000	8.965424
2437.000000	8.993568
2436.000000	9.048247
2435.000000	9.088452
2434.000000	9.137733
2433.000000	9.174262
2432.000000	9.226184
2431.000000	9.254213
2430.000000	9.281667
2429.000000	9.326467
2428.000000	9.335313
2427.000000	9.361618
2426.000000	9.375288
2425.000000	9.407452
2424.000000	9.436745
2423.000000	9.458341
2422.000000	9.477524
2421.000000	9.505553
2420.000000	9.493606
2419.000000	9.478099
2418.000000	9.473274
2417.000000	9.480856
2416.000000	9.511986
2415.000000	9.532203
2414.000000	9.560002
2413.000000	9.565631
2412.000000	9.571605
2411.000000	9.575510
2410.000000	9.596187
2409.000000	9.606411
2408.000000	9.646157
2407.000000	9.651096
2406.000000	9.655002
2405.000000	9.692565
2404.000000	9.713587
2403.000000	9.708188
2402.000000	9.729669
2401.000000	9.742075
2400.000000	9.761488
2399.000000	9.792044
2398.000000	9.819039
2397.000000	9.831216
2396.000000	9.849940
2395.000000	9.871765
2394.000000	9.898301
2393.000000	9.911741
2392.000000	9.911971
2391.000000	9.917829
2390.000000	9.937128
2389.000000	9.954014
2388.000000	9.960102
2387.000000	9.953784
2386.000000	9.947581
2385.000000	9.942756
2384.000000	9.944824
2383.000000	9.935290
2382.000000	9.922309
2381.000000	9.920356
2380.000000	9.907376
2379.000000	9.882104
2378.000000	9.880955
2377.000000	9.868779
2376.000000	9.838453
2375.000000	9.838223
2374.000000	9.823634
2373.000000	9.778719
2372.000000	9.740926
2371.000000	9.728520
2370.000000	9.691416
2369.000000	9.638116
2368.000000	9.610661
2367.000000	9.564023
2366.000000	9.500614
2365.000000	9.463625
2364.000000	9.411817
2363.000000	9.340712
2362.000000	9.304412
2361.000000	9.259842
2360.000000	9.190574
2359.000000	9.143246
2358.000000	9.101088
2357.000000	9.066167
2356.000000	9.047443
2355.000000	9.032165
2354.000000	9.028145
2353.000000	9.021827
2352.000000	9.028949
2351.000000	9.047328
2350.000000	9.091095
2349.000000	9.145199
2348.000000	9.178512
2347.000000	9.200453
2346.000000	9.262713
2345.000000	9.304527
2344.000000	9.332441
2343.000000	9.365409
2342.000000	9.376322
2341.000000	9.402398
2340.000000	9.429967
2339.000000	9.443637
2338.000000	9.449496
2337.000000	9.436860
2336.000000	9.428819
2335.000000	9.416412
2334.000000	9.398263
2333.000000	9.368511
2332.000000	9.309926
2331.000000	9.263632
2330.000000	9.219062
2329.000000	9.176215
2328.000000	9.120272
2327.000000	9.056863
2326.000000	8.991960
2325.000000	8.931193
2324.000000	8.853998
2323.000000	8.747971
2322.000000	8.685251
2321.000000	8.604611
2320.000000	8.514551
2319.000000	8.405882
2318.000000	8.296179
2317.000000	8.215884
2316.000000	8.127203
2315.000000	8.030595
2314.000000	7.925372
2313.000000	7.831177
2312.000000	7.758118
2311.000000	7.714697
2310.000000	7.667944
2309.000000	7.626475
2308.000000	7.626130
2307.000000	7.616022
2306.000000	7.626015
2305.000000	7.658869
2304.000000	7.712170
2303.000000	7.762139
2302.000000	7.834049
2301.000000	7.881376
2300.000000	7.945360
2299.000000	8.027723
2298.000000	8.113762
2297.000000	8.184639
2296.000000	8.250345
2295.000000	8.315133
2294.000000	8.360393
2293.000000	8.414038
2292.000000	8.436438
2291.000000	8.458494
2290.000000	8.464812
2289.000000	8.450912
2288.000000	8.452865
2287.000000	8.415532
2286.000000	8.400598
2285.000000	8.376475
2284.000000	8.339371
2283.000000	8.311917
2282.000000	8.293422
2281.000000	8.232540
2280.000000	8.182571
2279.000000	8.155346
2278.000000	8.123986
2277.000000	8.083092
2276.000000	8.045643
2275.000000	8.032318
2274.000000	8.021635
2273.000000	8.045528
2272.000000	8.022669
2271.000000	8.027838
2270.000000	8.074132
2269.000000	8.125365
2268.000000	8.188085
2267.000000	8.276192
2266.000000	8.366022
2265.000000	8.475035
2264.000000	8.616558
2263.000000	8.748431
2262.000000	8.930274
2261.000000	9.122684
2260.000000	9.306480
2259.000000	9.500843
2258.000000	9.699457
2257.000000	9.929661
2256.000000	10.125288
2255.000000	10.330909
2254.000000	10.539977
2253.000000	10.736982
2252.000000	10.954205
2251.000000	11.169246
2250.000000	11.313640
2249.000000	11.499389
2248.000000	11.664115
2247.000000	11.811151
2246.000000	11.963931
2245.000000	12.079837
2244.000000	12.174262
2243.000000	12.323481
2242.000000	12.442718
2241.000000	12.523014
2240.000000	12.636278
2239.000000	12.738169
2238.000000	12.808127
2237.000000	12.879347
2236.000000	12.961021
2235.000000	13.033735
2234.000000	13.079569
2233.000000	13.167102
2232.000000	13.203746
2231.000000	13.235566
2230.000000	13.271061
2229.000000	13.303915
2228.000000	13.351931
2227.000000	13.386278
2226.000000	13.358824
2225.000000	13.359283
2224.000000	13.380075
2223.000000	13.375595
2222.000000	13.376629
2221.000000	13.359857
2220.000000	13.339180
2219.000000	13.336883
2218.000000	13.311611
2217.000000	13.286799
2216.000000	13.311037
2215.000000	13.277724
2214.000000	13.252797
2213.000000	13.232694
2212.000000	13.204550
2211.000000	13.169629
2210.000000	13.181806
2209.000000	13.179623
2208.000000	13.132066
2207.000000	13.136661
2206.000000	13.139648
2205.000000	13.128735
2204.000000	13.120694
2203.000000	13.114605
2202.000000	13.080718
2201.000000	13.080488
2200.000000	13.052574
2199.000000	13.055676
2198.000000	13.055102
2197.000000	13.022708
2196.000000	12.989395
2195.000000	12.977448
2194.000000	12.950913
2193.000000	12.949994
2192.000000	12.939196
2191.000000	12.884746
2190.000000	12.885665
2189.000000	12.868205
2188.000000	12.852467
2187.000000	12.830297
2186.000000	12.805025
2185.000000	12.762063
2184.000000	12.769644
2183.000000	12.738629
2182.000000	12.701640
2181.000000	12.685673
2180.000000	12.689349
2179.000000	12.674990
2178.000000	12.632028
2177.000000	12.632257
2176.000000	12.625020
2175.000000	12.605262
2174.000000	12.605262
2173.000000	12.606296
2172.000000	12.601357
2171.000000	12.594464
2170.000000	12.586883
2169.000000	12.599059
2168.000000	12.597451
2167.000000	12.598830
2166.000000	12.605377
2165.000000	12.629500
2164.000000	12.634670
2163.000000	12.638920
2162.000000	12.641447
2161.000000	12.678666
2160.000000	12.695782
2159.000000	12.708992
2158.000000	12.730014
2157.000000	12.772401
2156.000000	12.788483
2155.000000	12.819958
2154.000000	12.851548
2153.000000	12.882104
2152.000000	12.908640
2151.000000	12.940115
2150.000000	12.974117
2149.000000	12.986523
2148.000000	13.024661
2147.000000	13.063372
2146.000000	13.089104
2145.000000	13.113572
2144.000000	13.130458
2143.000000	13.146310
2142.000000	13.164575
2141.000000	13.193637
2140.000000	13.204550
2139.000000	13.226261
2138.000000	13.248776
2137.000000	13.277035
2136.000000	13.298401
2135.000000	13.301732
2134.000000	13.316091
2133.000000	13.334586
2132.000000	13.342971
2131.000000	13.344809
2130.000000	13.352161
2129.000000	13.349289
2128.000000	13.353425
2127.000000	13.345958
2126.000000	13.334700
2125.000000	13.332518
2124.000000	13.322524
2123.000000	13.307591
2122.000000	13.290475
2121.000000	13.270717
2120.000000	13.263135
2119.000000	13.249580
2118.000000	13.231086
2117.000000	13.215808
2116.000000	13.194097
2115.000000	13.179623
2114.000000	13.145851
2113.000000	13.127586
2112.000000	13.107024
2111.000000	13.097260
2110.000000	13.080029
2109.000000	13.055217
2108.000000	13.028451
2107.000000	12.987901
2106.000000	12.977908
2105.000000	12.975495
2104.000000	12.950913
2103.000000	12.932418
2102.000000	12.923228
2101.000000	12.918059
2100.000000	12.886125
2099.000000	12.849595
2098.000000	12.849940
2097.000000	12.828918
2096.000000	12.806748
2095.000000	12.803532
2094.000000	12.786875
2093.000000	12.789632
2092.000000	12.794916
2091.000000	12.783199
2090.000000	12.787220
2089.000000	12.785267
2088.000000	12.775388
2087.000000	12.785382
2086.000000	12.794457
2085.000000	12.779753
2084.000000	12.762522
2083.000000	12.763441
2082.000000	12.751495
2081.000000	12.741041
2080.000000	12.744947
2079.000000	12.726912
2078.000000	12.715540
2077.000000	12.721398
2076.000000	12.713357
2075.000000	12.678895
2074.000000	12.665800
2073.000000	12.672463
2072.000000	12.649373
2071.000000	12.623987
2070.000000	12.621115
2069.000000	12.610317
2068.000000	12.587342
2067.000000	12.579761
2066.000000	12.562989
2065.000000	12.549549
2064.000000	12.553915
2063.000000	12.552421
2062.000000	12.553455
2061.000000	12.556557
2060.000000	12.561381
2059.000000	12.558854
2058.000000	12.572064
2057.000000	12.586998
2056.000000	12.622953
2055.000000	12.673382
2054.000000	12.723810
2053.000000	12.784463
2052.000000	12.858900
2051.000000	12.934486
2050.000000	13.011335
2049.000000	13.101395
2048.000000	13.192259
2047.000000	13.292887
2046.000000	13.395468
2045.000000	13.512637
2044.000000	13.637848
2043.000000	13.761565
2042.000000	13.888499
2041.000000	14.009574
2040.000000	14.132947
2039.000000	14.257009
2038.000000	14.364874
2037.000000	14.464238
2036.000000	14.576698
2035.000000	14.699956
2034.000000	14.792083
2033.000000	14.890988
2032.000000	14.994717
2031.000000	15.096264
2030.000000	15.174952
2029.000000	15.247551
2028.000000	15.320035
2027.000000	15.414920
2026.000000	15.494756
2025.000000	15.545414
2024.000000	15.606871
2023.000000	15.685903
2022.000000	15.755745
2021.000000	15.824094
2020.000000	15.894166
2019.000000	15.950568
2018.000000	15.987902
2017.000000	16.032013
2016.000000	16.076238
2015.000000	16.128505
2014.000000	16.158487
2013.000000	16.196624
2012.000000	16.225113
2011.000000	16.247972
2010.000000	16.248202
2009.000000	16.262446
2008.000000	16.287258
2007.000000	16.284731
2006.000000	16.281400
2005.000000	16.279677
2004.000000	16.275427
2003.000000	16.250499
2002.000000	16.250729
2001.000000	16.213970
2000.000000	16.184448
1999.000000	16.151824
1998.000000	16.155500
1997.000000	16.099902
1996.000000	16.045108
1995.000000	16.021789
1994.000000	15.959643
1993.000000	15.885551
1992.000000	15.881990
1991.000000	15.819729
1990.000000	15.722203
1989.000000	15.674416
1988.000000	15.600553
1987.000000	15.528069
1986.000000	15.459949
1985.000000	15.400331
1984.000000	15.323137
1983.000000	15.255707
1982.000000	15.188851
1981.000000	15.113495
1980.000000	15.029179
1979.000000	14.974615
1978.000000	14.893170
1977.000000	14.844350
1976.000000	14.773244
1975.000000	14.672731
1974.000000	14.591172
1973.000000	14.528796
1972.000000	14.449994
1971.000000	14.380611
1970.000000	14.306978
1969.000000	14.241731
1968.000000	14.195897
1967.000000	14.126744
1966.000000	14.049435
1965.000000	13.995215
1964.000000	13.913656
1963.000000	13.872991
1962.000000	13.808088
1961.000000	13.726989
1960.000000	13.684716
1959.000000	13.589831
1958.000000	13.555140
1957.000000	13.497359
1956.000000	13.417638
1955.000000	13.346647
1954.000000	13.275656
1953.000000	13.212362
1952.000000	13.176292
1951.000000	13.102888
1950.000000	13.025120
1949.000000	12.998929
1948.000000	12.934371
1947.000000	12.887503
1946.000000	12.863265
1945.000000	12.820303
1944.000000	12.776192
1943.000000	12.742535
1942.000000	12.707499
1941.000000	12.680963
1940.000000	12.689119
1939.000000	12.668672
1938.000000	12.698194
1937.000000	12.713587
1936.000000	12.717722
1935.000000	12.745177
1934.000000	12.746785
1933.000000	12.775158
1932.000000	12.808471
1931.000000	12.868549
1930.000000	12.929202
1929.000000	12.980435
1928.000000	13.095077
1927.000000	13.202597
1926.000000	13.339066
1925.000000	13.461749
1924.000000	13.535841
1923.000000	13.603846
1922.000000	13.723428
1921.000000	13.930542
1920.000000	14.169017
1919.000000	14.330297
1918.000000	14.508693
1917.000000	14.630228
1916.000000	14.730052
1915.000000	14.876744
1914.000000	15.079148
1913.000000	15.425947
1912.000000	15.727027
1911.000000	15.977563
1910.000000	16.167102
1909.000000	16.274623
1908.000000	16.378582
1907.000000	16.604650
1906.000000	16.920319
1905.000000	17.319270
1904.000000	17.706733
1903.000000	17.961749
1902.000000	18.187358
1901.000000	18.385742
1900.000000	18.762063
1899.000000	19.246709
1898.000000	19.634862
1897.000000	19.998777
1896.000000	20.247245
1895.000000	20.392443
1894.000000	20.588760
1893.000000	20.866061
1892.000000	21.230895
1891.000000	21.682687
1890.000000	22.085084
1889.000000	22.425221
1888.000000	22.732848
1887.000000	22.994412
1886.000000	23.351894
1885.000000	23.766353
1884.000000	24.265587
1883.000000	24.822372
1882.000000	25.322410
1881.000000	25.788217
1880.000000	26.157186
1879.000000	26.505478
1878.000000	26.871461
1877.000000	27.214928
1876.000000	27.538293
1875.000000	27.861544
1874.000000	28.146426
1873.000000	28.507355
1872.000000	28.867134
1871.000000	29.199689
1870.000000	29.616215
1869.000000	29.943716
1868.000000	30.195515
1867.000000	30.340599
1866.000000	30.355877
1865.000000	30.352431
1864.000000	30.302576
1863.000000	30.198387
1862.000000	30.143249
1861.000000	30.155540
1860.000000	30.222395
1859.000000	30.322104
1858.000000	30.422847
1857.000000	30.442261
1856.000000	30.328537
1855.000000	30.248242
1854.000000	30.283393
1853.000000	30.283737
1852.000000	30.223085
1851.000000	30.072487
1850.000000	29.808281
1849.000000	29.643670
1848.000000	29.770144
1847.000000	30.063987
1846.000000	30.153357
1845.000000	29.968758
1844.000000	29.630345
1843.000000	29.352354
1842.000000	29.352009
1841.000000	29.498356
1840.000000	29.539366
1839.000000	29.484112
1838.000000	29.365564
1837.000000	29.346610
1836.000000	29.426102
1835.000000	29.469868
1834.000000	29.379119
1833.000000	29.142023
1832.000000	28.934564
1831.000000	28.844964
1830.000000	28.860472
1829.000000	28.813374
1828.000000	28.719524
1827.000000	28.657722
1826.000000	28.651864
1825.000000	28.608442
1824.000000	28.476454
1823.000000	28.267157
1822.000000	28.142176
1821.000000	28.238209
1820.000000	28.395469
1819.000000	28.414423
1818.000000	28.321262
1817.000000	28.201220
1816.000000	28.177672
1815.000000	28.216498
1814.000000	28.228560
1813.000000	28.187321
1812.000000	28.139190
1811.000000	28.159062
1810.000000	28.149758
1809.000000	28.078537
1808.000000	27.993072
1807.000000	27.940805
1806.000000	27.931271
1805.000000	27.897384
1804.000000	27.817318
1803.000000	27.733117
1802.000000	27.701527
1801.000000	27.690154
1800.000000	27.638921
1799.000000	27.577235
1798.000000	27.522211
1797.000000	27.468451
1796.000000	27.409752
1795.000000	27.353809
1794.000000	27.329341
1793.000000	27.272020
1792.000000	27.222855
1791.000000	27.176331
1790.000000	27.122342
1789.000000	27.050432
1788.000000	26.950378
1787.000000	26.878238
1786.000000	26.809889
1785.000000	26.761643
1784.000000	26.679050
1783.000000	26.584281
1782.000000	26.485376
1781.000000	26.386471
1780.000000	26.298019
1779.000000	26.238975
1778.000000	26.146503
1777.000000	26.050585
1776.000000	25.923766
1775.000000	25.786953
1774.000000	25.676331
1773.000000	25.551465
1772.000000	25.422809
1771.000000	25.253372
1770.000000	25.083936
1769.000000	24.950799
1768.000000	24.835582
1767.000000	24.744833
1766.000000	24.652017
1765.000000	24.530022
1764.000000	24.487060
1763.000000	24.467762
1762.000000	24.457768
1761.000000	24.498203
1760.000000	24.555983
1759.000000	24.615258
1758.000000	24.692566
1757.000000	24.761260
1756.000000	24.804911
1755.000000	24.844542
1754.000000	24.880497
1753.000000	24.871193
1752.000000	24.841556
1751.000000	24.794688
1750.000000	24.749658
1749.000000	24.686593
1748.000000	24.600439
1747.000000	24.498318
1746.000000	24.398034
1745.000000	24.258465
1744.000000	24.086386
1743.000000	23.876630
1742.000000	23.657913
1741.000000	23.396349
1740.000000	23.128123
1739.000000	22.873796
1738.000000	22.637504
1737.000000	22.425910
1736.000000	22.261298
1735.000000	22.154237
1734.000000	22.073252
1733.000000	22.089794
1732.000000	22.129195
1731.000000	22.215119
1730.000000	22.324707
1729.000000	22.460601
1728.000000	22.590636
1727.000000	22.685521
1726.000000	22.792237
1725.000000	22.885054
1724.000000	22.931577
1723.000000	22.969714
1722.000000	23.000270
1721.000000	23.013596
1720.000000	22.995675
1719.000000	23.004291
1718.000000	23.055639
1717.000000	23.113305
1716.000000	23.152591
1715.000000	23.211405
1714.000000	23.303992
1713.000000	23.373949
1712.000000	23.422081
1711.000000	23.457921
1710.000000	23.479517
1709.000000	23.510188
1708.000000	23.539480
1707.000000	23.474003
1706.000000	23.452177
1705.000000	23.419668
1704.000000	23.358671
1703.000000	23.275963
1702.000000	23.192566
1701.000000	23.058740
1700.000000	22.884135
1699.000000	22.764668
1698.000000	22.587190
1697.000000	22.457155
1696.000000	22.368244
1695.000000	22.332404
1694.000000	22.406381
1693.000000	22.527916
1692.000000	22.687129
1691.000000	22.899413
1690.000000	23.069194
1689.000000	23.210831
1688.000000	23.287566
1687.000000	23.297330
1686.000000	23.275849
1685.000000	23.279180
1684.000000	23.367287
1683.000000	23.555218
1682.000000	23.875136
1681.000000	24.356680
1680.000000	24.931386
1679.000000	25.596840
1678.000000	26.161436
1677.000000	26.740851
1676.000000	27.274547
1675.000000	27.702905
1674.000000	28.079801
1673.000000	28.429242
1672.000000	28.686211
1671.000000	28.942261
1670.000000	29.121002
1669.000000	29.307094
1668.000000	29.482734
1667.000000	29.677327
1666.000000	29.807822
1665.000000	29.941189
1664.000000	30.065250
1663.000000	30.164500
1662.000000	30.279142
1661.000000	30.315097
1660.000000	30.379655
1659.000000	30.405502
1658.000000	30.454437
1657.000000	30.503488
1656.000000	30.517617
1655.000000	30.530253
1654.000000	30.551389
1653.000000	30.535192
1652.000000	30.492804
1651.000000	30.480743
1650.000000	30.449383
1649.000000	30.449727
1648.000000	30.405387
1647.000000	30.338301
1646.000000	30.293846
1645.000000	30.239052
1644.000000	30.206888
1643.000000	30.152094
1642.000000	30.096151
1641.000000	30.028376
1640.000000	29.966575
1639.000000	29.902591
1638.000000	29.823674
1637.000000	29.761299
1636.000000	29.689733
1635.000000	29.595538
1634.000000	29.516277
1633.000000	29.434143
1632.000000	29.362463
1631.000000	29.287336
1630.000000	29.193945
1629.000000	29.118589
1628.000000	29.034733
1627.000000	28.955701
1626.000000	28.871614
1625.000000	28.784197
1624.000000	28.696090
1623.000000	28.628200
1622.000000	28.541127
1621.000000	28.457500
1620.000000	28.376400
1619.000000	28.268765
1618.000000	28.187206
1617.000000	28.107600
1616.000000	28.023398
1615.000000	27.960449
1614.000000	27.889228
1613.000000	27.794229
1612.000000	27.714163
1611.000000	27.660403
1610.000000	27.602852
1609.000000	27.512218
1608.000000	27.440308
1607.000000	27.392176
1606.000000	27.313144
1605.000000	27.241923
1604.000000	27.171507
1603.000000	27.106604
1602.000000	27.044114
1601.000000	26.943141
1600.000000	26.867555
1599.000000	26.808741
1598.000000	26.739932
1597.000000	26.680428
1596.000000	26.624256
1595.000000	26.555333
1594.000000	26.510877
1593.000000	26.459185
1592.000000	26.408411
1591.000000	26.372341
1590.000000	26.330643
1589.000000	26.294573
1588.000000	26.254483
1587.000000	26.206122
1586.000000	26.171315
1585.000000	26.122265
1584.000000	26.088837
1583.000000	26.065518
1582.000000	26.046909
1581.000000	26.027380
1580.000000	26.007163
1579.000000	26.005095
1578.000000	26.010265
1577.000000	26.011643
1576.000000	26.024509
1575.000000	26.033124
1574.000000	26.011184
1573.000000	25.995561
1572.000000	26.006244
1571.000000	26.031401
1570.000000	26.085391
1569.000000	26.112730
1568.000000	26.113420
1567.000000	26.132948
1566.000000	26.164423
1565.000000	26.184181
1564.000000	26.213703
1563.000000	26.251611
1562.000000	26.293309
1561.000000	26.346036
1560.000000	26.363152
1559.000000	26.376707
1558.000000	26.396005
1557.000000	26.403931
1556.000000	26.407492
1555.000000	26.415993
1554.000000	26.429203
1553.000000	26.446893
1552.000000	26.429433
1551.000000	26.404046
1550.000000	26.393593
1549.000000	26.398073
1548.000000	26.407377
1547.000000	26.404161
1546.000000	26.405884
1545.000000	26.412776
1544.000000	26.406344
1543.000000	26.404046
1542.000000	26.393478
1541.000000	26.390376
1540.000000	26.394856
1539.000000	26.381876
1538.000000	26.367057
1537.000000	26.374984
1536.000000	26.368780
1535.000000	26.367172
1534.000000	26.359820
1533.000000	26.345347
1532.000000	26.356030
1531.000000	26.343394
1530.000000	26.328920
1529.000000	26.303648
1528.000000	26.265740
1527.000000	26.246442
1526.000000	26.247475
1525.000000	26.228751
1524.000000	26.194519
1523.000000	26.167295
1522.000000	26.145699
1521.000000	26.115258
1520.000000	26.079992
1519.000000	26.054375
1518.000000	26.027955
1517.000000	25.982695
1516.000000	25.962248
1515.000000	25.947315
1514.000000	25.930084
1513.000000	25.916988
1512.000000	25.857025
1511.000000	25.810157
1510.000000	25.766161
1509.000000	25.752836
1508.000000	25.717915
1507.000000	25.679892
1506.000000	25.667601
1505.000000	25.635207
1504.000000	25.633139
1503.000000	25.599712
1502.000000	25.564790
1501.000000	25.539863
1500.000000	25.521254
1499.000000	25.504827
1498.000000	25.496442
1497.000000	25.477488
1496.000000	25.458074
1495.000000	25.494833
1494.000000	25.485299
1493.000000	25.475305
1492.000000	25.485529
1491.000000	25.483806
1490.000000	25.489434
1489.000000	25.505172
1488.000000	25.509652
1487.000000	25.524815
1486.000000	25.540897
1485.000000	25.550661
1484.000000	25.559162
1483.000000	25.584548
1482.000000	25.605340
1481.000000	25.625098
1480.000000	25.668060
1479.000000	25.682075
1478.000000	25.689886
1477.000000	25.732389
1476.000000	25.769263
1475.000000	25.797981
1474.000000	25.815212
1473.000000	25.864377
1472.000000	25.916874
1471.000000	25.952139
1470.000000	26.006933
1469.000000	26.022900
1468.000000	26.067701
1467.000000	26.100095
1466.000000	26.141563
1465.000000	26.187053
1464.000000	26.214507
1463.000000	26.304682
1462.000000	26.357868
1461.000000	26.427480
1460.000000	26.516965
1459.000000	26.562225
1458.000000	26.638385
1457.000000	26.738324
1456.000000	26.849980
1455.000000	26.961635
1454.000000	27.085238
1453.000000	27.139113
1452.000000	27.243187
1451.000000	27.388500
1450.000000	27.553801
1449.000000	27.673843
1448.000000	27.753794
1447.000000	27.841671
1446.000000	27.986524
1445.000000	28.178591
1444.000000	28.315403
1443.000000	28.401213
1442.000000	28.531248
1441.000000	28.698272
1440.000000	28.846572
1439.000000	28.960755
1438.000000	29.136280
1437.000000	29.273667
1436.000000	29.404276
1435.000000	29.516047
1434.000000	29.696970
1433.000000	29.845845
1432.000000	30.014017
1431.000000	30.180467
1430.000000	30.340025
1429.000000	30.514745
1428.000000	30.755747
1427.000000	30.944022
1426.000000	31.151481
1425.000000	31.372495
1424.000000	31.603388
1423.000000	31.897346
1422.000000	32.174303
1421.000000	32.333745
1420.000000	32.578538
1419.000000	32.923499
1418.000000	33.237444
1417.000000	33.441342
1416.000000	33.614225
1415.000000	33.803993
1414.000000	34.200876
1413.000000	34.495868
1412.000000	34.643709
1411.000000	34.814638
1410.000000	35.069425
1409.000000	35.481930
1408.000000	35.833899
1407.000000	36.239167
1406.000000	36.534504
1405.000000	36.979633
1404.000000	37.546986
1403.000000	37.903550
1402.000000	38.081601
1401.000000	38.491235
1400.000000	39.108903
1399.000000	39.534274
1398.000000	39.529220
1397.000000	39.547599
1396.000000	39.867978
1395.000000	40.367097
1394.000000	40.519532
1393.000000	40.502187
1392.000000	40.703098
1391.000000	40.962594
1390.000000	41.054836
1389.000000	41.105840
1388.000000	41.439888
1387.000000	41.762678
1386.000000	41.963705
1385.000000	42.172542
1384.000000	42.511415
1383.000000	42.847301
1382.000000	43.297370
1381.000000	43.661055
1380.000000	43.794996
1379.000000	43.889191
1378.000000	43.901597
1377.000000	43.900334
1376.000000	44.007854
1375.000000	44.167986
1374.000000	44.342132
1373.000000	44.568430
1372.000000	44.816898
1371.000000	45.211369
1370.000000	45.528416
1369.000000	45.708880
1368.000000	45.991466
1367.000000	46.315635
1366.000000	46.447623
1365.000000	46.626134
1364.000000	46.860588
1363.000000	46.927329
1362.000000	47.046451
1361.000000	47.329381
1360.000000	47.494223
1359.000000	47.434145
1358.000000	47.459532
1357.000000	47.561078
1356.000000	47.743266
1355.000000	48.140493
1354.000000	48.615260
1353.000000	49.040057
1352.000000	49.473814
1351.000000	49.905274
1350.000000	50.325361
1349.000000	50.682039
1348.000000	51.008161
1347.000000	51.367941
1346.000000	51.665230
1345.000000	51.871999
1344.000000	52.182729
1343.000000	52.456699
1342.000000	52.704363
1341.000000	52.935945
1340.000000	53.160061
1339.000000	53.363844
1338.000000	53.545686
1337.000000	53.739935
1336.000000	53.931312
1335.000000	54.115911
1334.000000	54.266853
1333.000000	54.427789
1332.000000	54.591252
1331.000000	54.748168
1330.000000	54.888771
1329.000000	55.010535
1328.000000	55.132989
1327.000000	55.258315
1326.000000	55.367443
1325.000000	55.477835
1324.000000	55.563300
1323.000000	55.625561
1322.000000	55.687936
1321.000000	55.772138
1320.000000	55.853927
1319.000000	55.931465
1318.000000	56.028992
1317.000000	56.103199
1316.000000	56.151905
1315.000000	56.209111
1314.000000	56.265054
1313.000000	56.326511
1312.000000	56.358100
1311.000000	56.372000
1310.000000	56.394170
1309.000000	56.409218
1308.000000	56.435294
1307.000000	56.468148
1306.000000	56.489974
1305.000000	56.503414
1304.000000	56.510995
1303.000000	56.521449
1302.000000	56.527192
1301.000000	56.538335
1300.000000	56.516854
1299.000000	56.485494
1298.000000	56.469411
1297.000000	56.471709
1296.000000	56.476763
1295.000000	56.434835
1294.000000	56.394630
1293.000000	56.363155
1292.000000	56.326281
1291.000000	56.300090
1290.000000	56.268041
1289.000000	56.220713
1288.000000	56.174075
1287.000000	56.141911
1286.000000	56.104807
1285.000000	56.058629
1284.000000	56.006247
1283.000000	55.961906
1282.000000	55.916762
1281.000000	55.853237
1280.000000	55.782821
1279.000000	55.706890
1278.000000	55.665421
1277.000000	55.633602
1276.000000	55.596958
1275.000000	55.555489
1274.000000	55.487140
1273.000000	55.445556
1272.000000	55.424075
1271.000000	55.387546
1270.000000	55.350787
1269.000000	55.323103
1268.000000	55.270146
1267.000000	55.173424
1266.000000	55.089223
1265.000000	55.037875
1264.000000	55.020415
1263.000000	54.989629
1262.000000	54.952066
1261.000000	54.904623
1260.000000	54.833518
1259.000000	54.782399
1258.000000	54.731511
1257.000000	54.675568
1256.000000	54.615720
1255.000000	54.537607
1254.000000	54.464433
1253.000000	54.388043
1252.000000	54.316248
1251.000000	54.264901
1250.000000	54.205052
1249.000000	54.087997
1248.000000	54.001843
1247.000000	53.947739
1246.000000	53.868707
1245.000000	53.798175
1244.000000	53.681810
1243.000000	53.555910
1242.000000	53.456660
1241.000000	53.347532
1240.000000	53.247248
1239.000000	53.126403
1238.000000	53.006821
1237.000000	52.879887
1236.000000	52.753069
1235.000000	52.610512
1234.000000	52.464969
1233.000000	52.310122
1232.000000	52.161018
1231.000000	52.018117
1230.000000	51.873033
1229.000000	51.737714
1228.000000	51.600327
1227.000000	51.448236
1226.000000	51.309011
1225.000000	51.166685
1224.000000	51.010114
1223.000000	50.852165
1222.000000	50.712710
1221.000000	50.580377
1220.000000	50.447241
1219.000000	50.316401
1218.000000	50.181312
1217.000000	50.053803
1216.000000	49.942378
1215.000000	49.829228
1214.000000	49.714356
1213.000000	49.582024
1212.000000	49.485991
1211.000000	49.372612
1210.000000	49.263139
1209.000000	49.178937
1208.000000	49.110359
1207.000000	49.061538
1206.000000	49.019150
1205.000000	49.019954
1204.000000	49.035692
1203.000000	48.998588
1202.000000	48.950457
1201.000000	48.921854
1200.000000	48.879006
1199.000000	48.803420
1198.000000	48.753221
1197.000000	48.622267
1196.000000	48.492347
1195.000000	48.308436
1194.000000	48.036190
1193.000000	47.737407
1192.000000	47.373722
1191.000000	46.973737
1190.000000	46.596382
1189.000000	46.280599
1188.000000	46.035921
1187.000000	45.787912
1186.000000	45.699806
1185.000000	45.794116
1184.000000	45.951490
1183.000000	46.215122
1182.000000	46.544230
1181.000000	46.946857
1180.000000	47.337422
1179.000000	47.673538
1178.000000	48.021831
1177.000000	48.322106
1176.000000	48.574136
1175.000000	48.818009
1174.000000	49.055909
1173.000000	49.279680
1172.000000	49.566516
1171.000000	49.822451
1170.000000	50.086083
1169.000000	50.290555
1168.000000	50.567397
1167.000000	50.809203
1166.000000	51.062955
1165.000000	51.365069
1164.000000	51.624565
1163.000000	51.896008
1162.000000	52.143442
1161.000000	52.391336
1160.000000	52.680125
1159.000000	52.917451
1158.000000	53.127207
1157.000000	53.345924
1156.000000	53.567971
1155.000000	53.713974
1154.000000	53.820345
1153.000000	53.844239
1152.000000	53.889269
1151.000000	53.855726
1150.000000	53.841712
1149.000000	53.859517
1148.000000	53.817359
1147.000000	53.813109
1146.000000	53.895357
1145.000000	54.012527
1144.000000	54.173807
1143.000000	54.370123
1142.000000	54.556446
1141.000000	54.755175
1140.000000	54.989629
1139.000000	55.212596
1138.000000	55.434873
1137.000000	55.624527
1136.000000	55.777307
1135.000000	56.050473
1134.000000	56.346039
1133.000000	56.523516
1132.000000	56.609785
1131.000000	56.696628
1130.000000	56.859747
1129.000000	56.991275
1128.000000	57.097188
1127.000000	57.147731
1126.000000	57.190923
1125.000000	57.243305
1124.000000	57.308897
1123.000000	57.306255
1122.000000	57.329574
1121.000000	57.324979
1120.000000	57.304876
1119.000000	57.310275
1118.000000	57.303728
1117.000000	57.278456
1116.000000	57.270415
1115.000000	57.208958
1114.000000	57.190693
1113.000000	57.156117
1112.000000	57.119013
1111.000000	57.102242
1110.000000	57.095464
1109.000000	57.052962
1108.000000	56.981052
1107.000000	56.946590
1106.000000	56.919825
1105.000000	56.884444
1104.000000	56.863767
1103.000000	56.822413
1102.000000	56.738097
1101.000000	56.689966
1100.000000	56.659410
1099.000000	56.627590
1098.000000	56.565559
1097.000000	56.503988
1096.000000	56.459418
1095.000000	56.434375
1094.000000	56.390724
1093.000000	56.326970
1092.000000	56.279183
1091.000000	56.230133
1090.000000	56.185103
1089.000000	56.115376
1088.000000	56.056331
1087.000000	56.011072
1086.000000	55.970866
1085.000000	55.896889
1084.000000	55.804646
1083.000000	55.753184
1082.000000	55.667489
1081.000000	55.605803
1080.000000	55.540555
1079.000000	55.468531
1078.000000	55.409257
1077.000000	55.319886
1076.000000	55.251537
1075.000000	55.207311
1074.000000	55.146544
1073.000000	55.071188
1072.000000	55.020874
1071.000000	54.976878
1070.000000	54.917949
1069.000000	54.858215
1068.000000	54.792164
1067.000000	54.722436
1066.000000	54.660290
1065.000000	54.578846
1064.000000	54.532208
1063.000000	54.451683
1062.000000	54.373684
1061.000000	54.321533
1060.000000	54.267772
1059.000000	54.193910
1058.000000	54.119358
1057.000000	54.047448
1056.000000	53.962327
1055.000000	53.883755
1054.000000	53.825630
1053.000000	53.766930
1052.000000	53.725116
1051.000000	53.661248
1050.000000	53.616218
1049.000000	53.562343
1048.000000	53.499508
1047.000000	53.427483
1046.000000	53.356377
1045.000000	53.296873
1044.000000	53.235072
1043.000000	53.162817
1042.000000	53.105841
1041.000000	53.073792
1040.000000	53.027268
1039.000000	52.949040
1038.000000	52.886665
1037.000000	52.847034
1036.000000	52.793733
1035.000000	52.742960
1034.000000	52.680584
1033.000000	52.617979
1032.000000	52.563644
1031.000000	52.502418
1030.000000	52.437055
1029.000000	52.361699
1028.000000	52.305642
1027.000000	52.236259
1026.000000	52.156997
1025.000000	52.105190
1024.000000	52.055565
1023.000000	51.979175
1022.000000	51.918523
1021.000000	51.863039
1020.000000	51.772176
1019.000000	51.691076
1018.000000	51.653053
1017.000000	51.595272
1016.000000	51.536573
1015.000000	51.496482
1014.000000	51.469258
1013.000000	51.439965
1012.000000	51.392523
1011.000000	51.357372
1010.000000	51.344047
1009.000000	51.346000
1008.000000	51.323600
1007.000000	51.285233
1006.000000	51.247095
1005.000000	51.226188
1004.000000	51.198389
1003.000000	51.176793
1002.000000	51.130155
1001.000000	51.099025
1000.000000	51.073179
999.000000	51.068239
998.000000	51.051812
997.000000	51.004141
996.000000	50.985876
995.000000	50.966922
994.000000	50.948772
993.000000	50.917527
992.000000	50.871348
991.000000	50.835049
990.000000	50.812764
989.000000	50.790593
988.000000	50.779336
987.000000	50.726954
986.000000	50.694330
985.000000	50.698006
984.000000	50.686289
983.000000	50.667795
982.000000	50.619893
981.000000	50.607028
980.000000	50.608406
979.000000	50.568545
978.000000	50.528915
977.000000	50.525928
976.000000	50.510535
975.000000	50.526387
974.000000	50.519725
973.000000	50.476533
972.000000	50.447355
971.000000	50.449193
970.000000	50.446781
969.000000	50.469066
968.000000	50.434145
967.000000	50.352586
966.000000	50.351207
965.000000	50.370736
964.000000	50.348910
963.000000	50.358559
962.000000	50.335240
961.000000	50.346727
960.000000	50.372459
959.000000	50.352012
958.000000	50.358100
957.000000	50.352930
956.000000	50.367404
955.000000	50.340869
954.000000	50.284237
953.000000	50.280331
952.000000	50.282744
951.000000	50.324327
950.000000	50.302387
949.000000	50.290785
948.000000	50.295609
947.000000	50.263215
946.000000	50.184643
945.000000	50.167986
944.000000	50.209340
943.000000	50.254255
942.000000	50.231281
941.000000	50.160520
940.000000	50.159026
939.000000	50.139268
938.000000	50.172466
937.000000	50.123990
936.000000	50.138579
935.000000	50.154661
934.000000	50.159026
933.000000	50.211982
932.000000	50.290325
931.000000	50.272175
930.000000	50.336619
929.000000	50.325591
928.000000	50.322145
927.000000	50.305373
926.000000	50.388541
925.000000	50.326280
924.000000	50.324902
923.000000	50.315252
922.000000	50.292852
921.000000	50.295035
920.000000	50.338457
919.000000	50.354194
918.000000	50.337423
917.000000	50.363614
916.000000	50.396467
915.000000	50.412434
914.000000	50.420935
913.000000	50.454937
912.000000	50.433571
911.000000	50.417833
910.000000	50.387507
909.000000	50.491581
908.000000	50.533050
907.000000	50.572221
906.000000	50.587959
905.000000	50.608636
904.000000	50.752456
903.000000	50.782552
902.000000	50.785769
901.000000	50.741083
900.000000	50.795303
899.000000	50.853888
898.000000	51.060083
897.000000	51.145433
896.000000	51.195977
895.000000	51.251001
894.000000	51.284199
893.000000	51.323370
892.000000	51.343932
891.000000	51.396773
890.000000	51.460298
889.000000	51.516470
888.000000	51.523937
887.000000	51.601246
886.000000	51.652823
885.000000	51.677521
884.000000	51.760459
883.000000	51.792623
882.000000	51.823064
881.000000	51.952640
880.000000	51.988135
879.000000	51.993879
878.000000	52.017657
877.000000	51.962863
876.000000	52.036037
875.000000	52.101744
874.000000	52.153781
873.000000	52.124029
872.000000	52.176296
871.000000	52.176870
870.000000	52.217075
869.000000	52.217994
868.000000	52.276579
867.000000	52.261990
866.000000	52.318967
865.000000	52.334589
864.000000	52.376403
863.000000	52.395587
862.000000	52.446360
861.000000	52.422007
860.000000	52.418906
859.000000	52.463476
858.000000	53.885133
857.000000	53.787400
856.000000	53.779600
855.000000	54.088400
854.000000	54.316900
853.000000	54.500400
852.000000	54.770700
851.000000	55.027300
850.000000	54.922600
849.000000	55.010200
848.000000	55.388900
847.000000	55.476600
846.000000	55.659200
845.000000	56.049800
844.000000	56.279600
843.000000	56.142400
842.000000	56.650100
841.000000	56.728200
840.000000	56.767700
839.000000	57.002500
838.000000	57.111600
837.000000	57.156400
836.000000	57.308300
835.000000	57.620400
834.000000	57.671700
833.000000	57.673600
832.000000	57.841000
831.000000	58.104400
830.000000	58.050400
829.000000	58.248400
828.000000	58.431400
827.000000	58.546700
826.000000	58.653700
825.000000	58.804800
824.000000	58.796400
823.000000	58.881500
822.000000	59.123500
821.000000	59.197500
820.000000	59.203900
819.000000	59.349700
818.000000	59.387500
817.000000	59.417100
816.000000	59.638300
815.000000	59.676800
814.000000	59.823000
813.000000	59.859800
812.000000	59.912600
811.000000	60.023800
810.000000	60.127500
809.000000	60.289500
808.000000	60.308200
807.000000	60.266600
806.000000	60.434600
805.000000	60.407200
804.000000	60.475600
803.000000	60.575400
802.000000	60.622100
801.000000	60.619800
800.000000	60.636600
799.000000	60.620700
798.000000	60.648300
797.000000	60.704600
796.000000	60.707700
795.000000	60.763900
794.000000	60.643700
793.000000	60.645800
792.000000	60.622600
791.000000	60.606600
790.000000	60.550500
789.000000	60.525000
788.000000	60.461100
787.000000	60.400100
786.000000	60.393000
785.000000	60.293700
784.000000	60.212000
783.000000	60.150200
782.000000	60.013500
781.000000	59.866300
780.000000	59.818400
779.000000	59.714100
778.000000	59.626500
777.000000	59.465600
776.000000	59.284800
775.000000	59.211200
774.000000	59.127100
773.000000	59.022700
772.000000	58.898000
771.000000	58.809400
770.000000	58.662700
769.000000	58.509100
768.000000	58.375100
767.000000	58.238900
766.000000	58.115600
765.000000	58.021600
764.000000	57.901200
763.000000	57.752200
762.000000	57.668700
761.000000	57.557400
760.000000	57.444900
759.000000	57.307300
758.000000	57.166100
757.000000	57.042900
756.000000	56.982700
755.000000	56.934500
754.000000	56.780600
753.000000	56.630600
752.000000	56.552400
751.000000	56.415900
750.000000	56.307600
749.000000	56.210900
748.000000	56.068500
747.000000	55.949800
746.000000	55.836500
745.000000	55.737300
744.000000	55.679600
743.000000	55.566000
742.000000	55.409100
741.000000	55.278800
740.000000	55.183400
739.000000	55.040100
738.000000	54.873300
737.000000	54.755600
736.000000	54.628900
735.000000	54.521900
734.000000	54.374800
733.000000	54.175700
732.000000	54.058500
731.000000	53.932400
730.000000	53.825700
729.000000	53.738400
728.000000	53.619000
727.000000	53.518100
726.000000	53.373900
725.000000	53.261700
724.000000	53.141900
723.000000	53.016200
722.000000	52.891500
721.000000	52.760800
720.000000	52.665300
719.000000	52.521200
718.000000	52.399700
717.000000	52.273800
716.000000	52.157800
715.000000	52.000900
714.000000	51.875500
713.000000	51.781700
712.000000	51.702400
711.000000	51.585200
710.000000	51.409300
709.000000	51.283400
708.000000	51.188700
707.000000	51.017900
706.000000	50.858000
705.000000	50.689800
704.000000	50.529500
703.000000	50.338400
702.000000	50.168100
701.000000	49.951800
700.000000	49.783000
699.000000	49.615200
698.000000	49.388700
697.000000	49.136200
696.000000	48.921300
695.000000	48.716200
694.000000	48.455300
693.000000	48.231700
692.000000	48.026100
691.000000	47.743100
690.000000	47.424500
689.000000	47.173800
688.000000	46.906200
687.000000	46.700700
686.000000	46.497900
685.000000	46.220400
684.000000	45.963200
683.000000	45.686700
682.000000	45.387500
681.000000	45.139100
680.000000	44.894000
679.000000	44.599200
678.000000	44.381800
677.000000	44.131000
676.000000	43.901200
675.000000	43.666600
674.000000	43.408200
673.000000	43.203800
672.000000	42.990600
671.000000	42.793100
670.000000	42.622600
669.000000	42.480300
668.000000	42.303100
667.000000	42.150000
666.000000	42.001000
665.000000	41.907600
664.000000	41.795300
663.000000	41.725700
662.000000	41.673900
661.000000	41.624900
660.000000	41.542200
659.000000	41.519100
658.000000	41.515800
657.000000	41.485800
656.000000	41.524600
655.000000	41.535800
654.000000	41.571700
653.000000	41.647100
652.000000	41.764000
651.000000	41.891400
650.000000	41.992500
649.000000	42.141200
648.000000	42.331000
647.000000	42.498100
646.000000	42.687600
645.000000	42.873500
644.000000	43.092900
643.000000	43.223000
642.000000	43.452100
641.000000	43.679700
640.000000	43.912400
639.000000	44.104300
638.000000	44.354900
637.000000	44.591400
636.000000	44.856700
635.000000	45.069000
634.000000	45.294100
633.000000	45.608100
632.000000	45.932400
631.000000	46.219100
630.000000	46.544400
629.000000	46.885400
628.000000	47.131100
627.000000	47.381100
626.000000	47.676300
625.000000	47.998100
624.000000	48.313600
623.000000	48.666900
622.000000	48.982400
621.000000	49.316200
620.000000	49.632400
619.000000	49.886500
618.000000	50.231100
617.000000	50.588000
616.000000	50.923200
615.000000	51.252400
614.000000	51.560800
613.000000	51.872200
612.000000	52.151000
611.000000	52.449000
610.000000	52.733500
609.000000	52.993500
608.000000	53.258900
607.000000	53.545000
606.000000	53.801900
605.000000	54.070900
604.000000	54.386400
603.000000	54.685100
602.000000	54.941800
601.000000	55.247000
600.000000	55.565700
599.000000	55.846600
598.000000	56.125100
597.000000	56.385400
596.000000	56.697300
595.000000	56.959600
594.000000	57.172500
593.000000	57.340400
592.000000	57.636500
591.000000	57.847900
590.000000	58.025700
589.000000	58.213200
588.000000	58.362000
587.000000	58.494700
586.000000	58.575200
585.000000	58.665100
584.000000	58.797900
583.000000	58.916400
582.000000	58.953800
581.000000	59.029900
580.000000	59.128300
579.000000	59.140000
578.000000	59.184800
577.000000	59.236000
576.000000	59.223300
575.000000	59.277600
574.000000	59.233100
573.000000	59.243800
572.000000	59.228500
571.000000	59.205400
570.000000	59.144100
569.000000	59.130500
568.000000	59.044800
567.000000	58.949300
566.000000	58.841100
565.000000	58.722300
564.000000	58.560000
563.000000	58.375900
562.000000	58.202800
561.000000	58.063500
560.000000	57.964600
559.000000	58.387000
558.000000	58.140800
557.000000	57.914200
556.000000	57.669600
555.000000	57.398300
554.000000	57.108000
553.000000	56.811600
552.000000	56.555900
551.000000	56.222600
550.000000	55.938300
549.000000	55.596400
548.000000	55.201500
547.000000	54.832700
546.000000	54.452500
545.000000	54.058600
544.000000	53.657000
543.000000	53.167700
542.000000	52.659300
541.000000	52.155600
540.000000	51.630800
539.000000	51.040700
538.000000	50.506000
537.000000	49.969700
536.000000	49.373300
535.000000	48.749500
534.000000	48.109200
533.000000	47.502900
532.000000	46.860500
531.000000	46.205400
530.000000	45.528200
529.000000	44.881000
528.000000	44.269800
527.000000	43.656200
526.000000	43.028500
525.000000	42.400000
524.000000	41.748500
523.000000	41.140400
522.000000	40.512800
521.000000	39.920400
520.000000	39.313400
519.000000	38.684700
518.000000	38.098900
517.000000	37.493600
516.000000	36.875600
515.000000	36.269700
514.000000	35.668100
513.000000	35.070000
512.000000	34.463700
511.000000	33.842700
510.000000	33.243400
509.000000	32.658600
508.000000	32.073800
507.000000	31.480800
506.000000	30.923600
505.000000	30.358300
504.000000	29.775200
503.000000	29.205400
502.000000	28.650600
501.000000	28.114700
500.000000	27.594200
499.000000	27.062300
498.000000	26.543700
497.000000	26.040700
496.000000	25.553100
495.000000	25.075900
494.000000	24.607400
493.000000	24.143200
492.000000	23.684200
491.000000	23.268300
490.000000	22.877800
489.000000	22.498800
488.000000	22.165600
487.000000	21.825400
486.000000	21.514500
485.000000	21.255400
484.000000	21.027600
483.000000	20.809700
482.000000	20.582700
481.000000	20.367600
480.000000	20.161300
479.000000	19.992900
478.000000	19.886300
477.000000	19.794600
476.000000	19.716400
475.000000	19.639000
474.000000	19.565700
473.000000	19.512700
472.000000	19.476400
471.000000	19.444600
470.000000	19.417600
469.000000	19.394200
468.000000	19.359000
467.000000	19.329100
466.000000	19.326600
465.000000	19.327700
464.000000	19.331100
463.000000	19.332200
462.000000	19.322900
461.000000	19.332600
460.000000	19.338900
459.000000	19.324200
458.000000	19.326500
457.000000	19.315800
456.000000	19.288300
455.000000	19.283400
454.000000	19.275300
453.000000	19.240100
452.000000	19.192500
451.000000	19.157200
450.000000	19.119000
449.000000	19.045500
448.000000	18.965900
447.000000	18.913100
446.000000	18.865200
445.000000	18.812400
444.000000	18.734200
443.000000	18.604000
442.000000	18.471200
441.000000	18.351900
440.000000	18.211100
439.000000	18.049700
438.000000	17.895000
437.000000	17.750600
436.000000	17.587300
435.000000	17.414600
434.000000	17.226600
433.000000	17.023400
432.000000	16.821000
431.000000	16.625500
430.000000	16.427500
429.000000	16.212100
428.000000	15.991500
427.000000	15.768700
426.000000	15.542300
425.000000	15.298000
424.000000	15.058800
423.000000	14.822400
422.000000	14.564300
421.000000	14.308900
420.000000	14.046000
419.000000	13.790800
418.000000	13.537500
417.000000	13.262600
416.000000	12.992300
415.000000	12.731800
414.000000	12.469800
413.000000	12.196800
412.000000	11.929900
411.000000	11.656600
410.000000	11.396500
409.000000	11.128900
408.000000	10.878000
407.000000	10.636800
406.000000	10.375000
405.000000	10.125800
404.000000	9.881700
403.000000	9.622900
402.000000	9.378900
401.000000	9.141800
400.000000	8.920400
399.000000	8.700200
398.000000	8.489200
397.000000	8.280900
396.000000	8.063700
395.000000	7.874200
394.000000	7.687800
393.000000	7.493400
392.000000	7.311800
391.000000	7.143000
390.000000	6.983000
389.000000	6.831800
388.000000	6.666400
387.000000	6.518300
386.000000	6.388000
385.000000	6.257200
384.000000	6.138000
383.000000	6.020400
382.000000	5.930400
381.000000	5.803900
380.000000	5.704600
379.000000	5.607300
378.000000	5.511400
377.000000	5.442400
376.000000	5.604000
375.000000	5.624700
374.000000	5.575100
373.000000	5.509000
372.000000	5.469100
371.000000	5.382300
370.000000	5.271700
369.000000	5.237600
368.000000	5.218400
367.000000	5.179800
366.000000	5.138500
365.000000	5.088900
364.000000	5.064400
363.000000	5.022300
362.000000	5.023200
361.000000	4.971600
360.000000	4.938500
359.000000	4.897000
358.000000	4.847800
357.000000	4.829100
356.000000	4.759600
355.000000	4.814400
354.000000	4.718300
353.000000	4.681900
352.000000	4.668800
351.000000	4.639200
350.000000	4.637700
349.000000	4.620600
348.000000	4.553700
347.000000	4.538000
346.000000	4.482700
345.000000	4.466700
344.000000	4.484400
343.000000	4.539600
342.000000	4.522500
341.000000	4.432400
340.000000	4.528500
339.000000	4.485800
338.000000	4.483000
337.000000	4.535900
336.000000	4.480200
335.000000	4.492800
334.000000	4.502000
333.000000	4.463100
332.000000	4.463700
331.000000	4.379700
330.000000	4.427400
329.000000	4.440900
328.000000	4.393900
327.000000	4.364900
326.000000	4.476800
325.000000	4.421900
324.000000	4.386700
323.000000	4.368600
322.000000	4.379400
321.000000	4.509100
320.000000	4.337900
319.000000	4.320400
318.000000	4.344100
317.000000	4.405600
316.000000	4.264800
315.000000	4.277000
314.000000	4.309900
313.000000	4.284200
312.000000	4.284900
311.000000	4.261100
310.000000	4.295200
309.000000	4.307100
308.000000	4.267200
307.000000	4.305700
306.000000	4.303700
305.000000	4.286100
304.000000	4.291900
303.000000	4.292700
302.000000	4.375900
301.000000	4.316300
300.000000	4.300000
299.000000	4.326000
298.000000	4.338400
297.000000	4.343900
296.000000	4.349500
295.000000	4.347200
294.000000	4.326400
293.000000	4.386800
292.000000	4.354000
291.000000	4.360600
290.000000	4.348400
289.000000	4.370500
288.000000	4.396800
287.000000	4.356800
286.000000	4.337800
285.000000	4.345100
284.000000	4.359900
283.000000	4.424400
282.000000	4.354200
281.000000	4.389300
280.000000	4.382500
279.000000	4.421700
278.000000	4.421900
277.000000	4.415600
276.000000	4.406000
275.000000	4.450000
274.000000	4.412800
273.000000	4.458100
272.000000	4.433100
271.000000	4.421500
270.000000	4.504100
269.000000	4.481800
268.000000	4.498200
267.000000	4.528600
266.000000	4.491500
265.000000	4.523200
264.000000	4.532700
263.000000	4.540100
262.000000	4.569900
261.000000	4.593700
260.000000	4.600600
259.000000	4.621200
258.000000	4.636700
257.000000	4.637400
256.000000	4.621900
255.000000	4.619200
254.000000	4.653500
253.000000	4.689800
252.000000	4.684400
251.000000	4.737700
250.000000	4.722800
