Time1=100ms:Average1=5:Objective=10X:Aperture=1: (11/28/2018 9:49:41 AM)
11/28/2018 9:49:41 AM
Reflectance
10X
Ap#: 1
Avg1: 5.000000
Avg2: 0.000000
Int.Time1:100.000000

420.190645	12.768153
420.624620	12.631735
421.058582	12.481170
421.492531	12.345865
421.926468	12.223803
422.360391	12.114782
422.794301	12.040505
423.228199	11.958881
423.662083	11.890693
424.095955	11.860866
424.529813	11.792606
424.963658	11.738730
425.397491	11.701915
425.831310	11.650178
426.265116	11.608017
426.698909	11.574204
427.132689	11.538766
427.566455	11.492903
428.000209	11.464727
428.433949	11.445970
428.867676	11.434977
429.301389	11.424623
429.735090	11.422908
430.168777	11.403647
430.602451	11.387176
431.036111	11.381486
431.469759	11.380510
431.903392	11.367071
432.337013	11.345891
432.770620	11.320856
433.204213	11.315585
433.637794	11.317577
434.071360	11.294503
434.504914	11.289148
434.938453	11.295677
435.371979	11.290485
435.805492	11.290475
436.238991	11.291415
436.672477	11.295638
437.105949	11.298961
437.539407	11.283871
437.972852	11.285349
438.406283	11.287250
438.839700	11.272011
439.273104	11.268219
439.706494	11.265456
440.139871	11.269473
440.573233	11.274906
441.006582	11.283221
441.439917	11.289014
441.873238	11.290563
442.306546	11.297296
442.739839	11.292241
443.173119	11.292799
443.606385	11.288788
444.039636	11.303058
444.472874	11.311353
444.906099	11.320094
445.339309	11.336745
445.772505	11.348115
446.205687	11.357083
446.638855	11.375637
447.072009	11.386473
447.505149	11.409901
447.938275	11.430837
448.371387	11.453043
448.804485	11.474784
449.237569	11.486454
449.670638	11.494106
450.103694	11.510299
450.536735	11.512267
450.969762	11.522411
451.402774	11.533048
451.835773	11.546594
452.268757	11.558992
452.701727	11.572082
453.134683	11.588157
453.567624	11.594397
454.000551	11.604535
454.433464	11.608308
454.866362	11.621084
455.299246	11.639485
455.732116	11.642531
456.164971	11.651777
456.597811	11.659662
457.030638	11.666088
457.463449	11.667199
457.896246	11.665698
458.329029	11.675627
458.761797	11.676445
459.194551	11.683785
459.627290	11.689888
460.060014	11.684688
460.492724	11.688411
460.925419	11.693685
461.358099	11.704473
461.790765	11.712048
462.223416	11.722296
462.656052	11.739891
463.088674	11.751282
463.521281	11.760146
463.953873	11.779530
464.386450	11.799819
464.819012	11.816915
465.251560	11.826070
465.684093	11.845995
466.116611	11.863797
466.549114	11.882299
466.981602	11.903806
467.414075	11.924279
467.846533	11.939866
468.278977	11.952497
468.711405	11.968603
469.143818	11.992591
469.576216	12.006886
470.008600	12.016261
470.440968	12.035514
470.873321	12.046869
471.305659	12.066104
471.737982	12.076336
472.170289	12.094146
472.602582	12.104404
473.034859	12.120373
473.467122	12.134406
473.899369	12.147323
474.331600	12.152502
474.763817	12.152863
475.196018	12.157497
475.628204	12.164062
476.060375	12.165867
476.492530	12.166775
476.924670	12.169899
477.356795	12.168337
477.788904	12.166182
478.220998	12.160250
478.653076	12.155530
479.085139	12.161755
479.517186	12.158845
479.949219	12.163370
480.381235	12.165377
480.813236	12.169447
481.245221	12.186827
481.677191	12.202125
482.109146	12.218111
482.541084	12.233695
482.973008	12.262041
483.404915	12.298762
483.836807	12.337222
484.268683	12.384021
484.700544	12.429227
485.132388	12.481835
485.564217	12.527838
485.996031	12.586118
486.427828	12.651165
486.859610	12.724062
487.291376	12.808374
487.723126	12.889954
488.154860	12.989198
488.586579	13.089279
489.018281	13.184966
489.449968	13.290446
489.881639	13.403521
490.313293	13.520749
490.744932	13.639958
491.176555	13.765768
491.608162	13.892151
492.039753	14.026432
492.471328	14.149006
492.902886	14.277593
493.334429	14.396895
493.765956	14.520262
494.197466	14.638944
494.628960	14.752828
495.060439	14.867281
495.491901	14.981067
495.923347	15.096093
496.354776	15.212367
496.786190	15.332696
497.217587	15.457655
497.648968	15.589047
498.080332	15.727383
498.511681	15.867804
498.943013	16.025413
499.374328	16.183681
499.805628	16.339521
500.236911	16.501954
500.668177	16.662563
501.099427	16.834836
501.530661	16.987570
501.961878	17.143743
502.393079	17.305015
502.824264	17.453070
503.255431	17.598579
503.686583	17.737678
504.117717	17.874263
504.548835	18.003343
504.979937	18.138442
505.411022	18.270549
505.842090	18.404536
506.273142	18.540121
506.704177	18.685266
507.135195	18.825636
507.566197	18.971373
507.997182	19.125258
508.428150	19.275747
508.859102	19.431910
509.290036	19.586071
509.720954	19.739781
510.151855	19.889425
510.582739	20.037479
511.013607	20.185929
511.444457	20.320723
511.875291	20.456516
512.306107	20.591987
512.736907	20.729225
513.167690	20.864916
513.598456	20.997312
514.029205	21.129313
514.459936	21.268473
514.890651	21.417195
515.321349	21.564217
515.752030	21.723765
516.182693	21.902118
516.613340	22.088294
517.043969	22.284633
517.474582	22.493309
517.905177	22.712880
518.335755	22.940400
518.766315	23.177875
519.196859	23.426656
519.627385	23.678863
520.057894	23.932734
520.488386	24.198981
520.918860	24.458960
521.349318	24.721003
521.779757	24.992802
522.210180	25.252142
522.640585	25.518752
523.070973	25.784065
523.501343	26.045433
523.931696	26.300074
524.362031	26.549965
524.792349	26.810792
525.222650	27.067006
525.652933	27.318854
526.083198	27.566389
526.513446	27.825077
526.943677	28.080586
527.373890	28.341818
527.804085	28.607900
528.234262	28.879410
528.664422	29.165538
529.094565	29.464554
529.524689	29.771218
529.954796	30.101250
530.384885	30.447324
530.814957	30.813683
531.245011	31.200492
531.675047	31.620747
532.105065	32.064534
532.535065	32.533938
532.965048	33.043499
533.395013	33.594541
533.824959	34.179314
534.254888	34.819692
534.684799	35.530017
535.114693	36.269643
535.544568	37.046348
535.974425	37.852993
536.404264	38.704384
536.834086	39.587639
537.263889	40.511961
537.693674	41.464486
538.123441	42.442137
538.553190	43.449612
538.982921	44.470239
539.412634	45.508524
539.842329	46.562246
540.272006	47.629329
540.701664	48.692033
541.131304	49.751683
541.560926	50.833840
541.990530	51.893908
542.420116	52.937958
542.849683	53.961271
543.279232	54.970079
543.708763	55.947100
544.138275	56.898823
544.567769	57.821039
544.997245	58.709322
545.426702	59.566965
545.856141	60.395282
546.285562	61.200205
546.714964	61.965708
547.144347	62.713104
547.573713	63.417193
548.003059	64.074495
548.432387	64.709361
548.861697	65.325542
549.290988	65.933393
549.720260	66.508231
550.149514	67.094319
550.578750	67.652743
551.007966	68.198837
551.437164	68.728590
551.866344	69.261017
552.295504	69.790458
552.724646	70.327448
553.153769	70.853578
553.582874	71.398984
554.011960	71.954151
554.441027	72.512644
554.870075	73.049455
555.299104	73.600447
555.728115	74.163936
556.157106	74.749712
556.586079	75.304804
557.015033	75.883816
557.443968	76.466122
557.872884	77.049700
558.301781	77.618482
558.730659	78.200149
559.159518	78.777281
559.588358	79.347856
560.017180	79.914026
560.445982	80.475430
560.874765	81.047549
561.303528	81.616218
561.732273	82.178563
562.160999	82.736611
562.589705	83.279770
563.018393	83.819407
563.447061	84.339365
563.875710	84.837846
564.304340	85.338149
564.732950	85.826408
565.161542	86.310487
565.590114	86.791523
566.018666	87.248893
566.447200	87.692527
566.875714	88.121044
567.304208	88.536153
567.732684	88.936265
568.161140	89.331041
568.589576	89.698893
569.017993	90.043714
569.446391	90.366791
569.874769	90.689215
570.303128	90.972410
570.731467	91.243453
571.159787	91.512171
571.588087	91.764947
572.016368	91.997158
572.444629	92.209143
572.872870	92.424953
573.301092	92.629775
573.729294	92.818615
574.157476	92.988028
574.585639	93.154252
575.013782	93.317326
575.441906	93.471317
575.870009	93.628158
576.298093	93.767142
576.726157	93.907757
577.154202	94.050224
577.582226	94.183813
578.010231	94.327447
578.438216	94.450716
578.866181	94.581152
579.294126	94.726760
579.722051	94.873434
580.149957	95.032739
580.577842	95.188704
581.005707	95.359530
581.433553	95.513313
581.861378	95.703189
582.289184	95.897984
582.716969	96.082565
583.144734	96.281694
583.572479	96.500114
584.000205	96.706157
584.427910	96.926262
584.855594	97.141762
585.283259	97.353405
585.710904	97.567477
586.138528	97.772777
586.566132	97.968215
586.993716	98.162400
587.421280	98.346974
587.848823	98.527862
588.276346	98.694515
588.703849	98.842211
589.131332	98.974381
589.558794	99.098881
589.986236	99.182361
590.413657	99.257305
590.841058	99.300282
591.268438	99.302396
591.695799	99.283291
592.123138	99.236178
592.550458	99.160808
592.977756	99.059536
593.405034	98.911853
593.832292	98.743677
594.259529	98.539342
594.686746	98.326821
595.113942	98.080199
595.541117	97.808360
595.968272	97.532338
596.395406	97.237637
596.822519	96.919354
597.249612	96.599386
597.676684	96.247085
598.103735	95.897195
598.530766	95.533999
598.957775	95.181642
599.384764	94.809398
599.811733	94.444486
600.238680	94.075027
600.665606	93.706806
601.092512	93.326374
601.519397	92.939943
601.946261	92.579822
602.373104	92.217228
602.799926	91.860127
603.226727	91.504393
603.653507	91.154068
604.080266	90.819019
604.507004	90.493656
604.933721	90.184795
605.360417	89.885255
605.787092	89.582511
606.213746	89.287261
606.640379	89.013240
607.066991	88.750860
607.493581	88.503935
607.920150	88.269224
608.346699	88.034038
608.773226	87.816272
609.199731	87.595262
609.626216	87.379336
610.052679	87.168015
610.479121	86.964130
610.905542	86.758844
611.331941	86.560116
611.758319	86.378709
612.184676	86.181146
612.611011	85.982808
613.037325	85.780986
613.463617	85.586103
613.889888	85.381297
614.316138	85.169838
614.742366	84.961134
615.168573	84.744097
615.594758	84.526775
616.020921	84.317587
616.447063	84.118396
616.873184	83.913525
617.299283	83.705520
617.725360	83.487441
618.151416	83.276224
618.577450	83.056828
619.003462	82.833466
619.429453	82.614978
619.855422	82.389777
620.281369	82.158285
620.707295	81.925729
621.133199	81.672712
621.559081	81.423999
621.984941	81.153914
622.410779	80.884296
622.836596	80.584527
623.262391	80.276499
623.688163	79.941383
624.113914	79.591209
624.539644	79.212184
624.965351	78.806660
625.391036	78.376763
625.816699	77.928974
626.242340	77.448221
626.667960	76.933092
627.093557	76.389194
627.519132	75.809875
627.944685	75.205093
628.370216	74.571148
628.795725	73.906092
629.221212	73.192667
629.646677	72.459292
630.072119	71.687642
630.497540	70.893937
630.922938	70.089139
631.348314	69.249403
631.773668	68.390836
632.198999	67.533778
632.624308	66.669528
633.049595	65.804734
633.474860	64.949849
633.900102	64.095361
634.325322	63.264872
634.750520	62.443951
635.175695	61.635131
635.600848	60.841344
636.025978	60.070318
636.451086	59.319582
636.876171	58.595793
637.301234	57.896309
637.726275	57.217325
638.151293	56.562334
638.576288	55.930248
639.001261	55.321616
639.426211	54.739334
639.851139	54.187499
640.276044	53.669056
640.700927	53.185643
641.125787	52.740470
641.550624	52.318405
641.975438	51.927514
642.400230	51.578151
642.824999	51.262666
643.249745	50.985194
643.674469	50.730455
644.099169	50.507435
644.523847	50.310059
644.948502	50.137121
645.373135	49.981592
645.797744	49.834807
646.222330	49.702835
646.646894	49.574242
647.071435	49.451602
647.495953	49.328049
647.920447	49.200774
648.344919	49.070661
648.769368	48.936700
649.193794	48.799770
649.618197	48.645634
650.042576	48.488540
650.466933	48.319611
650.891267	48.138536
651.315577	47.949737
651.739864	47.755721
652.164129	47.556814
652.588370	47.342628
653.012587	47.117422
653.436782	46.883555
653.860953	46.649282
654.285102	46.403620
654.709226	46.158082
655.133328	45.912471
655.557406	45.669422
655.981461	45.420763
656.405493	45.180832
656.829501	44.953274
657.253486	44.736546
657.677448	44.530751
658.101386	44.354450
658.525301	44.189046
658.949192	44.057264
659.373060	43.949345
659.796904	43.869721
660.220725	43.820040
660.644522	43.809686
661.068296	43.826136
661.492046	43.879547
661.915772	43.971242
662.339475	44.093531
662.763154	44.249516
663.186810	44.429393
663.610442	44.643625
664.034050	44.894008
664.457635	45.178243
664.881196	45.491421
665.304733	45.831826
665.728247	46.211981
666.151736	46.619394
666.575202	47.057680
666.998644	47.517975
667.422062	48.005797
667.845457	48.515352
668.268827	49.050073
668.692174	49.603765
669.115496	50.177062
669.538795	50.766891
669.962070	51.372638
670.385321	51.990823
670.808547	52.618634
671.231750	53.236385
671.654929	53.859110
672.078084	54.470445
672.501214	55.069854
672.924321	55.661958
673.347404	56.234741
673.770462	56.768659
674.193496	57.295600
674.616506	57.795937
675.039492	58.246486
675.462454	58.672933
675.885391	59.069061
676.308305	59.442126
676.731194	59.777730
677.154058	60.079504
677.576899	60.335165
677.999715	60.556257
678.422507	60.738610
678.845274	60.879642
679.268017	60.982163
679.690736	61.051696
680.113430	61.089026
680.536100	61.085582
680.958746	61.052047
681.381367	60.981719
681.803963	60.874388
682.226535	60.744029
682.649083	60.584460
683.071605	60.402577
683.494104	60.198674
683.916578	59.978764
684.339027	59.743532
684.761451	59.492661
685.183851	59.230208
685.606227	58.965135
686.028577	58.692909
686.450903	58.423956
686.873204	58.158924
687.295481	57.881318
687.717733	57.610276
688.139959	57.354594
688.562162	57.100147
688.984339	56.852801
689.406492	56.610549
689.828619	56.381734
690.250722	56.158165
690.672800	55.952647
691.094853	55.760410
691.516881	55.578845
691.938884	55.412761
692.360863	55.255598
692.782816	55.115460
693.204744	54.990815
693.626647	54.883731
694.048526	54.791651
694.470379	54.721851
694.892207	54.673069
695.314010	54.634594
695.735788	54.614440
696.157540	54.606353
696.579268	54.613221
697.000970	54.633929
697.422648	54.667189
697.844300	54.717070
698.265926	54.788736
698.687528	54.863204
699.109104	54.950680
699.530655	55.040150
699.952181	55.146434
