Time1=100ms:Average1=5:Objective=10X:Aperture=1: (11/28/2018 9:53:54 AM)
11/28/2018 9:53:54 AM
Reflectance
10X
Ap#: 1
Avg1: 5.000000
Avg2: 0.000000
Int.Time1:100.000000

420.190645	10.732083
420.624620	10.579778
421.058582	10.393360
421.492531	10.223557
421.926468	10.078233
422.360391	9.943247
422.794301	9.836253
423.228199	9.731761
423.662083	9.634553
424.095955	9.562298
424.529813	9.465017
424.963658	9.389699
425.397491	9.344164
425.831310	9.284936
426.265116	9.226056
426.698909	9.151572
427.132689	9.095848
427.566455	9.017471
428.000209	8.974452
428.433949	8.923936
428.867676	8.902067
429.301389	8.869651
429.735090	8.845383
430.168777	8.803133
430.602451	8.763765
431.036111	8.728455
431.469759	8.699007
431.903392	8.665745
432.337013	8.628022
432.770620	8.586407
433.204213	8.562955
433.637794	8.538996
434.071360	8.513383
434.504914	8.500717
434.938453	8.492025
435.371979	8.474704
435.805492	8.460346
436.238991	8.450359
436.672477	8.444500
437.105949	8.444209
437.539407	8.427913
437.972852	8.424787
438.406283	8.419742
438.839700	8.402196
439.273104	8.394756
439.706494	8.391510
440.139871	8.395046
440.573233	8.394526
441.006582	8.405640
441.439917	8.401054
441.873238	8.399832
442.306546	8.400795
442.739839	8.393036
443.173119	8.388856
443.606385	8.388817
444.039636	8.391434
444.472874	8.386026
444.906099	8.397332
445.339309	8.414630
445.772505	8.418095
446.205687	8.427991
446.638855	8.438830
447.072009	8.443207
447.505149	8.457044
447.938275	8.469885
448.371387	8.485708
448.804485	8.511076
449.237569	8.534462
449.670638	8.536856
450.103694	8.552013
450.536735	8.556560
450.969762	8.566390
451.402774	8.587122
451.835773	8.608641
452.268757	8.621738
452.701727	8.633999
453.134683	8.650075
453.567624	8.669088
454.000551	8.696340
454.433464	8.707860
454.866362	8.731924
455.299246	8.755655
455.732116	8.774177
456.164971	8.800355
456.597811	8.822811
457.030638	8.840825
457.463449	8.867421
457.896246	8.897862
458.329029	8.922308
458.761797	8.944056
459.194551	8.974847
459.627290	9.008494
460.060014	9.032289
460.492724	9.066703
460.925419	9.095951
461.358099	9.125646
461.790765	9.160473
462.223416	9.185882
462.656052	9.214368
463.088674	9.253596
463.521281	9.287276
463.953873	9.326382
464.386450	9.368164
464.819012	9.407887
465.251560	9.442472
465.684093	9.484149
466.116611	9.525222
466.549114	9.567480
466.981602	9.604758
467.414075	9.636566
467.846533	9.678555
468.278977	9.713326
468.711405	9.750900
469.143818	9.792167
469.576216	9.833740
470.008600	9.864237
470.440968	9.907439
470.873321	9.939100
471.305659	9.966135
471.737982	9.998608
472.170289	10.034314
472.602582	10.069525
473.034859	10.099716
473.467122	10.131715
473.899369	10.163351
474.331600	10.193320
474.763817	10.225415
475.196018	10.256938
475.628204	10.296791
476.060375	10.336382
476.492530	10.374502
476.924670	10.412118
477.356795	10.452209
477.788904	10.490460
478.220998	10.526306
478.653076	10.559716
479.085139	10.604084
479.517186	10.644356
479.949219	10.686841
480.381235	10.720975
480.813236	10.755340
481.245221	10.790325
481.677191	10.827516
482.109146	10.867298
482.541084	10.903755
482.973008	10.935987
483.404915	10.984670
483.836807	11.026213
484.268683	11.073885
484.700544	11.124884
485.132388	11.172325
485.564217	11.212292
485.996031	11.253185
486.427828	11.299901
486.859610	11.343592
487.291376	11.386869
487.723126	11.423593
488.154860	11.463881
488.586579	11.498486
489.018281	11.527850
489.449968	11.563687
489.881639	11.599303
490.313293	11.632802
490.744932	11.667167
491.176555	11.706008
491.608162	11.739669
492.039753	11.780181
492.471328	11.816800
492.902886	11.849519
493.334429	11.885262
493.765956	11.923325
494.197466	11.960422
494.628960	11.993917
495.060439	12.029542
495.491901	12.062438
495.923347	12.092543
496.354776	12.130101
496.786190	12.164105
497.217587	12.200345
497.648968	12.240132
498.080332	12.288392
498.511681	12.332706
498.943013	12.390643
499.374328	12.449546
499.805628	12.509723
500.236911	12.580022
500.668177	12.660358
501.099427	12.745907
501.530661	12.837091
501.961878	12.939489
502.393079	13.049570
502.824264	13.155377
503.255431	13.270493
503.686583	13.392309
504.117717	13.511206
504.548835	13.638417
504.979937	13.773540
505.411022	13.911211
505.842090	14.051901
506.273142	14.203839
506.704177	14.359006
507.135195	14.518291
507.566197	14.688120
507.997182	14.866170
508.428150	15.048441
508.859102	15.241654
509.290036	15.433200
509.720954	15.634629
510.151855	15.845385
510.582739	16.059248
511.013607	16.278460
511.444457	16.489873
511.875291	16.710711
512.306107	16.930629
512.736907	17.154022
513.167690	17.382281
513.598456	17.608658
514.029205	17.828975
514.459936	18.059577
514.890651	18.290193
515.321349	18.519635
515.752030	18.755516
516.182693	19.003823
516.613340	19.252260
517.043969	19.504999
517.474582	19.771945
517.905177	20.034767
518.335755	20.311874
518.766315	20.595601
519.196859	20.891795
519.627385	21.196538
520.057894	21.514486
520.488386	21.842631
520.918860	22.175737
521.349318	22.525147
521.779757	22.887474
522.210180	23.259548
522.640585	23.655148
523.070973	24.057987
523.501343	24.471730
523.931696	24.899956
524.362031	25.339009
524.792349	25.795079
525.222650	26.256606
525.652933	26.740058
526.083198	27.233721
526.513446	27.741642
526.943677	28.258360
527.373890	28.792322
527.804085	29.332493
528.234262	29.879935
528.664422	30.445995
529.094565	31.016387
529.524689	31.589015
529.954796	32.180439
530.384885	32.771870
530.814957	33.368688
531.245011	33.972918
531.675047	34.586948
532.105065	35.207121
532.535065	35.832281
532.965048	36.469224
533.395013	37.111455
533.824959	37.767836
534.254888	38.437467
534.684799	39.137088
535.114693	39.841364
535.544568	40.546736
535.974425	41.253866
536.404264	41.976782
536.834086	42.701076
537.263889	43.431075
537.693674	44.163160
538.123441	44.912441
538.553190	45.673160
538.982921	46.426646
539.412634	47.185618
539.842329	47.952708
540.272006	48.721916
540.701664	49.486877
541.131304	50.261318
541.560926	51.053908
541.990530	51.836504
542.420116	52.614407
542.849683	53.399926
543.279232	54.180560
543.708763	54.962540
544.138275	55.749350
544.567769	56.527188
544.997245	57.306502
545.426702	58.082420
545.856141	58.853570
546.285562	59.629316
546.714964	60.398415
547.144347	61.160892
547.573713	61.917628
548.003059	62.650069
548.432387	63.379737
548.861697	64.096458
549.290988	64.808342
549.720260	65.499841
550.149514	66.196178
550.578750	66.876858
551.007966	67.541158
551.437164	68.179146
551.866344	68.819880
552.295504	69.441788
552.724646	70.066804
553.153769	70.670414
553.582874	71.276841
554.011960	71.869151
554.441027	72.453317
554.870075	73.005115
555.299104	73.543284
555.728115	74.075046
556.157106	74.594072
556.586079	75.075105
557.015033	75.557937
557.443968	76.020797
557.872884	76.471727
558.301781	76.885303
558.730659	77.295533
559.159518	77.699411
559.588358	78.077317
560.017180	78.444620
560.445982	78.803180
560.874765	79.157099
561.303528	79.508534
561.732273	79.840933
562.160999	80.172085
562.589705	80.497636
563.018393	80.821771
563.447061	81.129256
563.875710	81.426902
564.304340	81.736703
564.732950	82.037697
565.161542	82.341495
565.590114	82.656365
566.018666	82.964218
566.447200	83.259720
566.875714	83.550718
567.304208	83.841580
567.732684	84.120433
568.161140	84.404952
568.589576	84.674046
569.017993	84.940147
569.446391	85.187606
569.874769	85.441405
570.303128	85.664445
570.731467	85.878487
571.159787	86.092913
571.588087	86.302855
572.016368	86.490064
572.444629	86.660890
572.872870	86.844256
573.301092	87.007400
573.729294	87.156572
574.157476	87.297092
574.585639	87.422425
575.013782	87.549081
575.441906	87.676051
575.870009	87.788038
576.298093	87.883706
576.726157	87.973786
577.154202	88.051177
577.582226	88.106163
578.010231	88.169964
578.438216	88.214272
578.866181	88.238558
579.294126	88.255320
579.722051	88.276472
580.149957	88.298277
580.577842	88.308397
581.005707	88.315559
581.433553	88.292604
581.861378	88.299384
582.289184	88.289791
582.716969	88.277657
583.144734	88.265908
583.572479	88.271608
584.000205	88.266920
584.427910	88.271344
584.855594	88.265246
585.283259	88.270069
585.710904	88.274703
586.138528	88.275874
586.566132	88.274164
586.993716	88.275914
587.421280	88.284108
587.848823	88.297789
588.276346	88.307161
588.703849	88.314380
589.131332	88.317214
589.558794	88.328054
589.986236	88.328667
590.413657	88.341757
590.841058	88.353630
591.268438	88.338118
591.695799	88.327028
592.123138	88.324626
592.550458	88.316358
592.977756	88.311205
593.405034	88.286911
593.832292	88.266603
594.259529	88.232254
594.686746	88.213350
595.113942	88.177449
595.541117	88.139978
595.968272	88.105208
596.395406	88.072767
596.822519	88.018079
597.249612	87.962677
597.676684	87.888578
598.103735	87.815682
598.530766	87.722673
598.957775	87.633220
599.384764	87.514314
599.811733	87.397689
600.238680	87.267264
600.665606	87.103433
601.092512	86.920119
601.519397	86.708142
601.946261	86.483790
602.373104	86.253131
602.799926	85.987846
603.226727	85.701864
603.653507	85.396354
604.080266	85.080589
604.507004	84.757613
604.933721	84.414836
605.360417	84.053426
605.787092	83.671094
606.213746	83.265145
606.640379	82.851165
607.066991	82.425477
607.493581	82.000457
607.920150	81.559476
608.346699	81.103704
608.773226	80.649657
609.199731	80.180576
609.626216	79.699014
610.052679	79.210885
610.479121	78.730243
610.905542	78.238211
611.331941	77.743015
611.758319	77.265172
612.184676	76.772230
612.611011	76.271118
613.037325	75.765076
613.463617	75.260365
613.889888	74.749270
614.316138	74.230532
614.742366	73.718010
615.168573	73.203401
615.594758	72.685752
616.020921	72.176582
616.447063	71.672308
616.873184	71.161803
617.299283	70.646314
617.725360	70.124785
618.151416	69.599404
618.577450	69.069733
619.003462	68.534157
619.429453	67.992974
619.855422	67.442241
620.281369	66.884778
620.707295	66.315872
621.133199	65.738301
621.559081	65.150486
621.984941	64.540956
622.410779	63.921596
622.836596	63.274016
623.262391	62.612318
623.688163	61.917696
624.113914	61.204435
624.539644	60.456433
624.965351	59.673342
625.391036	58.855956
625.816699	58.015940
626.242340	57.139885
626.667960	56.231085
627.093557	55.296752
627.519132	54.333572
627.944685	53.351804
628.370216	52.349509
628.795725	51.326955
629.221212	50.290167
629.646677	49.250785
630.072119	48.207581
630.497540	47.171464
630.922938	46.152224
631.348314	45.152572
631.773668	44.172271
632.198999	43.229291
632.624308	42.327240
633.049595	41.477590
633.474860	40.676833
633.900102	39.928798
634.325322	39.237663
634.750520	38.603984
635.175695	38.028461
635.600848	37.511120
636.025978	37.059276
636.451086	36.673181
636.876171	36.349795
637.301234	36.087650
637.726275	35.889551
638.151293	35.750879
638.576288	35.677251
639.001261	35.665283
639.426211	35.710160
639.851139	35.816056
640.276044	35.984616
640.700927	36.207651
641.125787	36.477356
641.550624	36.796575
641.975438	37.159189
642.400230	37.561293
642.824999	37.997299
643.249745	38.457100
643.674469	38.933550
644.099169	39.425740
644.523847	39.917253
644.948502	40.413371
645.373135	40.902291
645.797744	41.372730
646.222330	41.819201
646.646894	42.243718
647.071435	42.641091
647.495953	43.012056
647.920447	43.343823
648.344919	43.635617
648.769368	43.894915
649.193794	44.114627
649.618197	44.286478
650.042576	44.425830
650.466933	44.525907
650.891267	44.590220
651.315577	44.619545
651.739864	44.610091
652.164129	44.576409
652.588370	44.510801
653.012587	44.415470
653.436782	44.290037
653.860953	44.149552
654.285102	43.994459
654.709226	43.820769
655.133328	43.631733
655.557406	43.432924
655.981461	43.226365
656.405493	43.021960
656.829501	42.822579
657.253486	42.623902
657.677448	42.431377
658.101386	42.250938
658.525301	42.080929
658.949192	41.932388
659.373060	41.800720
659.796904	41.687516
660.220725	41.594451
660.644522	41.529705
661.068296	41.485355
661.492046	41.464602
661.915772	41.473754
662.339475	41.506826
662.763154	41.561061
663.186810	41.634584
663.610442	41.728764
664.034050	41.846962
664.457635	41.984508
664.881196	42.145233
665.304733	42.312114
665.728247	42.504386
666.151736	42.709343
666.575202	42.936487
666.998644	43.171381
667.422062	43.418899
667.845457	43.676133
668.268827	43.951770
668.692174	44.238218
669.115496	44.537368
669.538795	44.847015
669.962070	45.165060
670.385321	45.490759
670.808547	45.823935
671.231750	46.158005
671.654929	46.491614
672.078084	46.821760
672.501214	47.148489
672.924321	47.465875
673.347404	47.770417
673.770462	48.041879
674.193496	48.309478
674.616506	48.565037
675.039492	48.778604
675.462454	48.972127
675.885391	49.150947
676.308305	49.304525
676.731194	49.429675
677.154058	49.526083
677.576899	49.595204
677.999715	49.634257
678.422507	49.648621
678.845274	49.633354
679.268017	49.592671
679.690736	49.522201
680.113430	49.431003
680.536100	49.310179
680.958746	49.165749
681.381367	48.996375
681.803963	48.803321
682.226535	48.593071
682.649083	48.357751
683.071605	48.100863
683.494104	47.827289
683.916578	47.540850
684.339027	47.240852
684.761451	46.930561
685.183851	46.606426
685.606227	46.278034
686.028577	45.946739
686.450903	45.613576
686.873204	45.288519
687.295481	44.961379
687.717733	44.639990
688.139959	44.337187
688.562162	44.044994
688.984339	43.759847
689.406492	43.489062
689.828619	43.241962
690.250722	43.014761
690.672800	42.809599
691.094853	42.629580
691.516881	42.473422
691.938884	42.340709
692.360863	42.231909
692.782816	42.146241
693.204744	42.089572
693.626647	42.057013
694.048526	42.047303
694.470379	42.064395
694.892207	42.104437
695.314010	42.161666
695.735788	42.242014
696.157540	42.343208
696.579268	42.465388
697.000970	42.601815
697.422648	42.759925
697.844300	42.935531
698.265926	43.132844
698.687528	43.341717
699.109104	43.562078
699.530655	43.788979
699.952181	44.032521
