Time1=100ms:Average1=5:Objective=10X:Aperture=1: (11/21/2018 2:07:59 PM)
11/21/2018 2:07:59 PM
Reflectance
10X
Ap#: 1
Avg1: 5.000000
Avg2: 0.000000
Int.Time1:100.000000

420.190645	31.081900
420.624620	31.137120
421.058582	31.186741
421.492531	31.285484
421.926468	31.360969
422.360391	31.439632
422.794301	31.514698
423.228199	31.578042
423.662083	31.686837
424.095955	31.770487
424.529813	31.870799
424.963658	31.993226
425.397491	32.086253
425.831310	32.197022
426.265116	32.297352
426.698909	32.396941
427.132689	32.507625
427.566455	32.626480
428.000209	32.767383
428.433949	32.871051
428.867676	32.953546
429.301389	33.060629
429.735090	33.155256
430.168777	33.237967
430.602451	33.301199
431.036111	33.375546
431.469759	33.427698
431.903392	33.486460
432.337013	33.534108
432.770620	33.596483
433.204213	33.628630
433.637794	33.692583
434.071360	33.729474
434.504914	33.775152
434.938453	33.805180
435.371979	33.848532
435.805492	33.904302
436.238991	33.945561
436.672477	33.983171
437.105949	34.011706
437.539407	34.042892
437.972852	34.038854
438.406283	34.043932
438.839700	34.034880
439.273104	34.027898
439.706494	33.988326
440.139871	33.958591
440.573233	33.901241
441.006582	33.846171
441.439917	33.768297
441.873238	33.703051
442.306546	33.629401
442.739839	33.526386
443.173119	33.427395
443.606385	33.333430
444.039636	33.228053
444.472874	33.121566
444.906099	33.010675
445.339309	32.909973
445.772505	32.786189
446.205687	32.673130
446.638855	32.557507
447.072009	32.427128
447.505149	32.291813
447.938275	32.163539
448.371387	32.029423
448.804485	31.868895
449.237569	31.693125
449.670638	31.533750
450.103694	31.368947
450.536735	31.186036
450.969762	30.986066
451.402774	30.787992
451.835773	30.591878
452.268757	30.414940
452.701727	30.219790
453.134683	30.052111
453.567624	29.875649
454.000551	29.705586
454.433464	29.540069
454.866362	29.375171
455.299246	29.205780
455.732116	29.049105
456.164971	28.904690
456.597811	28.758599
457.030638	28.607332
457.463449	28.488270
457.896246	28.346353
458.329029	28.220627
458.761797	28.100488
459.194551	28.009320
459.627290	27.896356
460.060014	27.797558
460.492724	27.711497
460.925419	27.644707
461.358099	27.593940
461.790765	27.543315
462.223416	27.494777
462.656052	27.463904
463.088674	27.437286
463.521281	27.432791
463.953873	27.460160
464.386450	27.482752
464.819012	27.524202
465.251560	27.576311
465.684093	27.634885
466.116611	27.721280
466.549114	27.814676
466.981602	27.923134
467.414075	28.035001
467.846533	28.157251
468.278977	28.297820
468.711405	28.456931
469.143818	28.626811
469.576216	28.794210
470.008600	28.982482
470.440968	29.173533
470.873321	29.362476
471.305659	29.556072
471.737982	29.757414
472.170289	29.964663
472.602582	30.149538
473.034859	30.346945
473.467122	30.546353
473.899369	30.746417
474.331600	30.948245
474.763817	31.142130
475.196018	31.341473
475.628204	31.556449
476.060375	31.768137
476.492530	31.968574
476.924670	32.174944
477.356795	32.370058
477.788904	32.590356
478.220998	32.794910
478.653076	32.991268
479.085139	33.178608
479.517186	33.357849
479.949219	33.520648
480.381235	33.675870
480.813236	33.844010
481.245221	33.982956
481.677191	34.125034
482.109146	34.230677
482.541084	34.341391
482.973008	34.432176
483.404915	34.517636
483.836807	34.599449
484.268683	34.670186
484.700544	34.738700
485.132388	34.795519
485.564217	34.833334
485.996031	34.875627
486.427828	34.908948
486.859610	34.929418
487.291376	34.945416
487.723126	34.940423
488.154860	34.927390
488.586579	34.909891
489.018281	34.890790
489.449968	34.867159
489.881639	34.844923
490.313293	34.808394
490.744932	34.773810
491.176555	34.731111
491.608162	34.701647
492.039753	34.675395
492.471328	34.633170
492.902886	34.584953
493.334429	34.544141
493.765956	34.492621
494.197466	34.428371
494.628960	34.373247
495.060439	34.306459
495.491901	34.263025
495.923347	34.203168
496.354776	34.153964
496.786190	34.109757
497.217587	34.064815
497.648968	34.031000
498.080332	34.012139
498.511681	33.985583
498.943013	33.982336
499.374328	33.984274
499.805628	34.009006
500.236911	34.044073
500.668177	34.079739
501.099427	34.143425
501.530661	34.217163
501.961878	34.306938
502.393079	34.405960
502.824264	34.523662
503.255431	34.669796
503.686583	34.819899
504.117717	34.989823
504.548835	35.170966
504.979937	35.365808
505.411022	35.569597
505.842090	35.806235
506.273142	36.052512
506.704177	36.303501
507.135195	36.579791
507.566197	36.864592
507.997182	37.166934
508.428150	37.490679
508.859102	37.828704
509.290036	38.177305
509.720954	38.547078
510.151855	38.939948
510.582739	39.352430
511.013607	39.783389
511.444457	40.223935
511.875291	40.687041
512.306107	41.156672
512.736907	41.640511
513.167690	42.130827
513.598456	42.635288
514.029205	43.160985
514.459936	43.701344
514.890651	44.249647
515.321349	44.806734
515.752030	45.386062
516.182693	45.968852
516.613340	46.556906
517.043969	47.169519
517.474582	47.790659
517.905177	48.426167
518.335755	49.065548
518.766315	49.708445
519.196859	50.341973
519.627385	50.975244
520.057894	51.601035
520.488386	52.211869
520.918860	52.834649
521.349318	53.458726
521.779757	54.077659
522.210180	54.692319
522.640585	55.319425
523.070973	55.945857
523.501343	56.557768
523.931696	57.172737
524.362031	57.772971
524.792349	58.372692
525.222650	58.977890
525.652933	59.580190
526.083198	60.182381
526.513446	60.759749
526.943677	61.333910
527.373890	61.899930
527.804085	62.471842
528.234262	63.026117
528.664422	63.573056
529.094565	64.100249
529.524689	64.627607
529.954796	65.146297
530.384885	65.644071
530.814957	66.136479
531.245011	66.615466
531.675047	67.088240
532.105065	67.573281
532.535065	68.055204
532.965048	68.538416
533.395013	69.039979
533.824959	69.529597
534.254888	70.015094
534.684799	70.516646
535.114693	71.017854
535.544568	71.519349
535.974425	72.002408
536.404264	72.475844
536.834086	72.930772
537.263889	73.371970
537.693674	73.804655
538.123441	74.236021
538.553190	74.639198
538.982921	75.037990
539.412634	75.420696
539.842329	75.812524
540.272006	76.193569
540.701664	76.568310
541.131304	76.914612
541.560926	77.277734
541.990530	77.635106
542.420116	77.994761
542.849683	78.345138
543.279232	78.678306
543.708763	79.010774
544.138275	79.324925
544.567769	79.622553
544.997245	79.893483
545.426702	80.140569
545.856141	80.378815
546.285562	80.611993
546.714964	80.816759
547.144347	81.033366
547.573713	81.233150
548.003059	81.436517
548.432387	81.642894
548.861697	81.850477
549.290988	82.054384
549.720260	82.270270
550.149514	82.487524
550.578750	82.705138
551.007966	82.926073
551.437164	83.137722
551.866344	83.365097
552.295504	83.591230
552.724646	83.813302
553.153769	84.028625
553.582874	84.240348
554.011960	84.444478
554.441027	84.640051
554.870075	84.821491
555.299104	84.995806
555.728115	85.156789
556.157106	85.306854
556.586079	85.451246
557.015033	85.586440
557.443968	85.713565
557.872884	85.850564
558.301781	86.003920
558.730659	86.127327
559.159518	86.267481
559.588358	86.416715
560.017180	86.554047
560.445982	86.689987
560.874765	86.833284
561.303528	86.964342
561.732273	87.085249
562.160999	87.208012
562.589705	87.326368
563.018393	87.438739
563.447061	87.540400
563.875710	87.650176
564.304340	87.743061
564.732950	87.830458
565.161542	87.908145
565.590114	87.984202
566.018666	88.049338
566.447200	88.123231
566.875714	88.196695
567.304208	88.269840
567.732684	88.342246
568.161140	88.410946
568.589576	88.480008
569.017993	88.546095
569.446391	88.614098
569.874769	88.680352
570.303128	88.748264
570.731467	88.818541
571.159787	88.864055
571.588087	88.896870
572.016368	88.952106
572.444629	88.981044
572.872870	88.985771
573.301092	89.008465
573.729294	89.010673
574.157476	88.996989
574.585639	88.975741
575.013782	88.937271
575.441906	88.881493
575.870009	88.830195
576.298093	88.777787
576.726157	88.720495
577.154202	88.641815
577.582226	88.579367
578.010231	88.518624
578.438216	88.470066
578.866181	88.417108
579.294126	88.367508
579.722051	88.317186
580.149957	88.268786
580.577842	88.229721
581.005707	88.192086
581.433553	88.167450
581.861378	88.134420
582.289184	88.108253
582.716969	88.078915
583.144734	88.047096
583.572479	88.022831
584.000205	87.973318
584.427910	87.935748
584.855594	87.896522
585.283259	87.829606
585.710904	87.763216
586.138528	87.694968
586.566132	87.597083
586.993716	87.505292
587.421280	87.397057
587.848823	87.285770
588.276346	87.165408
588.703849	87.036232
589.131332	86.876667
589.558794	86.699351
589.986236	86.510660
590.413657	86.328483
590.841058	86.115211
591.268438	85.889317
591.695799	85.630062
592.123138	85.366381
592.550458	85.095444
592.977756	84.808408
593.405034	84.508964
593.832292	84.180856
594.259529	83.839459
594.686746	83.469636
595.113942	83.094569
595.541117	82.694634
595.968272	82.281930
596.395406	81.856960
596.822519	81.400507
597.249612	80.953968
597.676684	80.490724
598.103735	80.007796
598.530766	79.529202
598.957775	79.035920
599.384764	78.531190
599.811733	78.037087
600.238680	77.523779
600.665606	77.017054
601.092512	76.495411
601.519397	75.975013
601.946261	75.456153
602.373104	74.936247
602.799926	74.418073
603.226727	73.900043
603.653507	73.359924
604.080266	72.817769
604.507004	72.268927
604.933721	71.718633
605.360417	71.152100
605.787092	70.574755
606.213746	69.986477
606.640379	69.383074
607.066991	68.781012
607.493581	68.166711
607.920150	67.552667
608.346699	66.923131
608.773226	66.294334
609.199731	65.641541
609.626216	64.980613
610.052679	64.313062
610.479121	63.629964
610.905542	62.928681
611.331941	62.216452
611.758319	61.485671
612.184676	60.746718
612.611011	59.991428
613.037325	59.214233
613.463617	58.428559
613.889888	57.617201
614.316138	56.799013
614.742366	55.966728
615.168573	55.120306
615.594758	54.260664
616.020921	53.394284
616.447063	52.520874
616.873184	51.652323
617.299283	50.782214
617.725360	49.915456
618.151416	49.058138
618.577450	48.207857
619.003462	47.374672
619.429453	46.553218
619.855422	45.757248
620.281369	44.981170
620.707295	44.222402
621.133199	43.483692
621.559081	42.776418
621.984941	42.091185
622.410779	41.442480
622.836596	40.822343
623.262391	40.230943
623.688163	39.669934
624.113914	39.145306
624.539644	38.656324
624.965351	38.201266
625.391036	37.780083
625.816699	37.389276
626.242340	37.030826
626.667960	36.701544
627.093557	36.414497
627.519132	36.156657
627.944685	35.928825
628.370216	35.726837
628.795725	35.577455
629.221212	35.446875
629.646677	35.352720
630.072119	35.296456
630.497540	35.274199
630.922938	35.292327
631.348314	35.341539
631.773668	35.426203
632.198999	35.548467
632.624308	35.706051
633.049595	35.896648
633.474860	36.120845
633.900102	36.387168
634.325322	36.687969
634.750520	37.014862
635.175695	37.379421
635.600848	37.774621
636.025978	38.200648
636.451086	38.661274
636.876171	39.140540
637.301234	39.641723
637.726275	40.169487
638.151293	40.726942
638.576288	41.298088
639.001261	41.894268
639.426211	42.509995
639.851139	43.144073
640.276044	43.793471
640.700927	44.458171
641.125787	45.140833
641.550624	45.842793
641.975438	46.552113
642.400230	47.276316
642.824999	48.008482
643.249745	48.730922
643.674469	49.467635
644.099169	50.191508
644.523847	50.924219
644.948502	51.651627
645.373135	52.360625
645.797744	53.063230
646.222330	53.755778
646.646894	54.429729
647.071435	55.081128
647.495953	55.713754
647.920447	56.330985
648.344919	56.920367
648.769368	57.479962
649.193794	58.016087
649.618197	58.513269
650.042576	59.001964
650.466933	59.471320
650.891267	59.911022
651.315577	60.321229
651.739864	60.707193
652.164129	61.069190
652.588370	61.400060
653.012587	61.711401
653.436782	61.997805
653.860953	62.261114
654.285102	62.501730
654.709226	62.720900
655.133328	62.904295
655.557406	63.068243
655.981461	63.205113
656.405493	63.327361
656.829501	63.419167
657.253486	63.494029
657.677448	63.536664
658.101386	63.562860
658.525301	63.572703
658.949192	63.565805
659.373060	63.533214
659.796904	63.482425
660.220725	63.426065
660.644522	63.356539
661.068296	63.280404
661.492046	63.197693
661.915772	63.116834
662.339475	63.031277
662.763154	62.954861
663.186810	62.876008
663.610442	62.795181
664.034050	62.721303
664.457635	62.649826
664.881196	62.596875
665.304733	62.554811
665.728247	62.527695
666.151736	62.517579
666.575202	62.516817
666.998644	62.535779
667.422062	62.572998
667.845457	62.616085
668.268827	62.681278
668.692174	62.757891
669.115496	62.853979
669.538795	62.963735
669.962070	63.098534
670.385321	63.247682
670.808547	63.414879
671.231750	63.592399
671.654929	63.783920
672.078084	63.994593
672.501214	64.211907
672.924321	64.453935
673.347404	64.700204
673.770462	64.957368
674.193496	65.208271
674.616506	65.469911
675.039492	65.732612
675.462454	66.003100
675.885391	66.275107
676.308305	66.537899
676.731194	66.802103
677.154058	67.060324
677.576899	67.323486
677.999715	67.576367
678.422507	67.817649
678.845274	68.052969
679.268017	68.280641
679.690736	68.505447
680.113430	68.715741
680.536100	68.920570
680.958746	69.121595
681.381367	69.322151
681.803963	69.515337
682.226535	69.707528
682.649083	69.900348
683.071605	70.086849
683.494104	70.274043
683.916578	70.462402
684.339027	70.659137
684.761451	70.857360
685.183851	71.050796
685.606227	71.257183
686.028577	71.456290
686.450903	71.664438
686.873204	71.876195
687.295481	72.096468
687.717733	72.315316
688.139959	72.536605
688.562162	72.766084
688.984339	72.998162
689.406492	73.239082
689.828619	73.478825
690.250722	73.729911
690.672800	73.969835
691.094853	74.222227
691.516881	74.483254
691.938884	74.752502
692.360863	75.012268
692.782816	75.273456
693.204744	75.541751
693.626647	75.807149
694.048526	76.087215
694.470379	76.358876
694.892207	76.637246
695.314010	76.912898
695.735788	77.197533
696.157540	77.478437
696.579268	77.768379
697.000970	78.058867
697.422648	78.346615
697.844300	78.629960
698.265926	78.921906
698.687528	79.222281
699.109104	79.519506
699.530655	79.813387
699.952181	80.120803
