Time1=100ms:Average1=5:Objective=10X:Aperture=1: (11/21/2018 1:55:00 PM)
11/21/2018 1:55:00 PM
Reflectance
10X
Ap#: 1
Avg1: 5.000000
Avg2: 0.000000
Int.Time1:100.000000

420.190645	21.051237
420.624620	21.199474
421.058582	21.364442
421.492531	21.553149
421.926468	21.740265
422.360391	21.929894
422.794301	22.173733
423.228199	22.401796
423.662083	22.673035
424.095955	22.943195
424.529813	23.248979
424.963658	23.541168
425.397491	23.834336
425.831310	24.123168
426.265116	24.421923
426.698909	24.728216
427.132689	25.050232
427.566455	25.395278
428.000209	25.766080
428.433949	26.104659
428.867676	26.447518
429.301389	26.780728
429.735090	27.127214
430.168777	27.485519
430.602451	27.836879
431.036111	28.179655
431.469759	28.515687
431.903392	28.871929
432.337013	29.211162
432.770620	29.532022
433.204213	29.864235
433.637794	30.217085
434.071360	30.539556
434.504914	30.885208
434.938453	31.214243
435.371979	31.551424
435.805492	31.907468
436.238991	32.228057
436.672477	32.536369
437.105949	32.856308
437.539407	33.165105
437.972852	33.455162
438.406283	33.776047
438.839700	34.080650
439.273104	34.383082
439.706494	34.665288
440.139871	34.948822
440.573233	35.210915
441.006582	35.462783
441.439917	35.691065
441.873238	35.931823
442.306546	36.172249
442.739839	36.407732
443.173119	36.633784
443.606385	36.854262
444.039636	37.083839
444.472874	37.295249
444.906099	37.519935
445.339309	37.746216
445.772505	37.958578
446.205687	38.186854
446.638855	38.399473
447.072009	38.603067
447.505149	38.802334
447.938275	38.986637
448.371387	39.178074
448.804485	39.339946
449.237569	39.484925
449.670638	39.629820
450.103694	39.777292
450.536735	39.908366
450.969762	40.032953
451.402774	40.138618
451.835773	40.246079
452.268757	40.355914
452.701727	40.453025
453.134683	40.565626
453.567624	40.670034
454.000551	40.774927
454.433464	40.877401
454.866362	40.980501
455.299246	41.081551
455.732116	41.183462
456.164971	41.275262
456.597811	41.385799
457.030638	41.480270
457.463449	41.577459
457.896246	41.645099
458.329029	41.711602
458.761797	41.751440
459.194551	41.797077
459.627290	41.817533
460.060014	41.819257
460.492724	41.830017
460.925419	41.833543
461.358099	41.835860
461.790765	41.802743
462.223416	41.754750
462.656052	41.710020
463.088674	41.654259
463.521281	41.590874
463.953873	41.536130
464.386450	41.444290
464.819012	41.375582
465.251560	41.292580
465.684093	41.205655
466.116611	41.114376
466.549114	41.028355
466.981602	40.932607
467.414075	40.817166
467.846533	40.693324
468.278977	40.545614
468.711405	40.395370
469.143818	40.248722
469.576216	40.093135
470.008600	39.910917
470.440968	39.711520
470.873321	39.499514
471.305659	39.285469
471.737982	39.061802
472.170289	38.832722
472.602582	38.581835
473.034859	38.340968
473.467122	38.102540
473.899369	37.855435
474.331600	37.609646
474.763817	37.354195
475.196018	37.115599
475.628204	36.878451
476.060375	36.629190
476.492530	36.386015
476.924670	36.146748
477.356795	35.897098
477.788904	35.674877
478.220998	35.437428
478.653076	35.207887
479.085139	34.973437
479.517186	34.747415
479.949219	34.510204
480.381235	34.292364
480.813236	34.088197
481.245221	33.891597
481.677191	33.715937
482.109146	33.518999
482.541084	33.324787
482.973008	33.136050
483.404915	32.960524
483.836807	32.796320
484.268683	32.647681
484.700544	32.513304
485.132388	32.387767
485.564217	32.274097
485.996031	32.176480
486.427828	32.091166
486.859610	32.017815
487.291376	31.955550
487.723126	31.920683
488.154860	31.894600
488.586579	31.885401
489.018281	31.910946
489.449968	31.949543
489.881639	32.003608
490.313293	32.061350
490.744932	32.134164
491.176555	32.210545
491.608162	32.314575
492.039753	32.421484
492.471328	32.539083
492.902886	32.672201
493.334429	32.816911
493.765956	32.966365
494.197466	33.129483
494.628960	33.290046
495.060439	33.461587
495.491901	33.641370
495.923347	33.828224
496.354776	34.016506
496.786190	34.207993
497.217587	34.399428
497.648968	34.588320
498.080332	34.786190
498.511681	34.984299
498.943013	35.199587
499.374328	35.415654
499.805628	35.640707
500.236911	35.877794
500.668177	36.113141
501.099427	36.341400
501.530661	36.572718
501.961878	36.802778
502.393079	37.013894
502.824264	37.231995
503.255431	37.445750
503.686583	37.641921
504.117717	37.837976
504.548835	38.037798
504.979937	38.212758
505.411022	38.386027
505.842090	38.570479
506.273142	38.745947
506.704177	38.923858
507.135195	39.092076
507.566197	39.255683
507.997182	39.417303
508.428150	39.569039
508.859102	39.724936
509.290036	39.865207
509.720954	40.003442
510.151855	40.144686
510.582739	40.276816
511.013607	40.408397
511.444457	40.536244
511.875291	40.667693
512.306107	40.784691
512.736907	40.914737
513.167690	41.046848
513.598456	41.175896
514.029205	41.312628
514.459936	41.458751
514.890651	41.624719
515.321349	41.785069
515.752030	41.962627
516.182693	42.131763
516.613340	42.302471
517.043969	42.499386
517.474582	42.695531
517.905177	42.895536
518.335755	43.114486
518.766315	43.330798
519.196859	43.552735
519.627385	43.785337
520.057894	44.013844
520.488386	44.261141
520.918860	44.525981
521.349318	44.816482
521.779757	45.120950
522.210180	45.437847
522.640585	45.777954
523.070973	46.123419
523.501343	46.477566
523.931696	46.861168
524.362031	47.233552
524.792349	47.618096
525.222650	48.003702
525.652933	48.398995
526.083198	48.790484
526.513446	49.183509
526.943677	49.570239
527.373890	49.976079
527.804085	50.398344
528.234262	50.809461
528.664422	51.244223
529.094565	51.680443
529.524689	52.147371
529.954796	52.623192
530.384885	53.107139
530.814957	53.605381
531.245011	54.106351
531.675047	54.606301
532.105065	55.124850
532.535065	55.651659
532.965048	56.174900
533.395013	56.714695
533.824959	57.247549
534.254888	57.779144
534.684799	58.332355
535.114693	58.889345
535.544568	59.451407
535.974425	60.015424
536.404264	60.586413
536.834086	61.155758
537.263889	61.717799
537.693674	62.307851
538.123441	62.898479
538.553190	63.488313
538.982921	64.085894
539.412634	64.684152
539.842329	65.276799
540.272006	65.876100
540.701664	66.457827
541.131304	67.017363
541.560926	67.577991
541.990530	68.121460
542.420116	68.657863
542.849683	69.172780
543.279232	69.677908
543.708763	70.179337
544.138275	70.667899
544.567769	71.161039
544.997245	71.641239
545.426702	72.119690
545.856141	72.586384
546.285562	73.068797
546.714964	73.534213
547.144347	74.012196
547.573713	74.483461
548.003059	74.936812
548.432387	75.387757
548.861697	75.832361
549.290988	76.263813
549.720260	76.694708
550.149514	77.112140
550.578750	77.525046
551.007966	77.922593
551.437164	78.313744
551.866344	78.709277
552.295504	79.102332
552.724646	79.476901
553.153769	79.865455
553.582874	80.262616
554.011960	80.638274
554.441027	81.015493
554.870075	81.389189
555.299104	81.756871
555.728115	82.116127
556.157106	82.471059
556.586079	82.815386
557.015033	83.139728
557.443968	83.450865
557.872884	83.756469
558.301781	84.069264
558.730659	84.345756
559.159518	84.630526
559.588358	84.909320
560.017180	85.174785
560.445982	85.421094
560.874765	85.667737
561.303528	85.909131
561.732273	86.140669
562.160999	86.371148
562.589705	86.595494
563.018393	86.820595
563.447061	87.045626
563.875710	87.280537
564.304340	87.508646
564.732950	87.733041
565.161542	87.956618
565.590114	88.178522
566.018666	88.411188
566.447200	88.635159
566.875714	88.855770
567.304208	89.077700
567.732684	89.290288
568.161140	89.496886
568.589576	89.692934
569.017993	89.880942
569.446391	90.048315
569.874769	90.203204
570.303128	90.351010
570.731467	90.494986
571.159787	90.612659
571.588087	90.697875
572.016368	90.802558
572.444629	90.878198
572.872870	90.934796
573.301092	91.001041
573.729294	91.051474
574.157476	91.097359
574.585639	91.132802
575.013782	91.160547
575.441906	91.189170
575.870009	91.206990
576.298093	91.228878
576.726157	91.243941
577.154202	91.240214
577.582226	91.246295
578.010231	91.250333
578.438216	91.248980
578.866181	91.245531
579.294126	91.233687
579.722051	91.218843
580.149957	91.192573
580.577842	91.185084
581.005707	91.169908
581.433553	91.165664
581.861378	91.159089
582.289184	91.165565
582.716969	91.170892
583.144734	91.190650
583.572479	91.233620
584.000205	91.271308
584.427910	91.321212
584.855594	91.400491
585.283259	91.461109
585.710904	91.540382
586.138528	91.626458
586.566132	91.696875
586.993716	91.782115
587.421280	91.844285
587.848823	91.919193
588.276346	91.973682
588.703849	92.016424
589.131332	92.037528
589.558794	92.039333
589.986236	92.017445
590.413657	91.999960
590.841058	91.941436
591.268438	91.867564
591.695799	91.765849
592.123138	91.661217
592.550458	91.546824
592.977756	91.408801
593.405034	91.272142
593.832292	91.109900
594.259529	90.944645
594.686746	90.765508
595.113942	90.591943
595.541117	90.399899
595.968272	90.224212
596.395406	90.043310
596.822519	89.835778
597.249612	89.629349
597.676684	89.426117
598.103735	89.204590
598.530766	88.998663
598.957775	88.773313
599.384764	88.538271
599.811733	88.317166
600.238680	88.065661
600.665606	87.823480
601.092512	87.557910
601.519397	87.303951
601.946261	87.039749
602.373104	86.777626
602.799926	86.517267
603.226727	86.259233
603.653507	85.980054
604.080266	85.711248
604.507004	85.438094
604.933721	85.174468
605.360417	84.892328
605.787092	84.611989
606.213746	84.347587
606.640379	84.068777
607.066991	83.797770
607.493581	83.531409
607.920150	83.267594
608.346699	82.995508
608.773226	82.732837
609.199731	82.443374
609.626216	82.147037
610.052679	81.852969
610.479121	81.558041
610.905542	81.236199
611.331941	80.910114
611.758319	80.570119
612.184676	80.228037
612.611011	79.877657
613.037325	79.496018
613.463617	79.130255
613.889888	78.736103
614.316138	78.341184
614.742366	77.927784
615.168573	77.501023
615.594758	77.053718
616.020921	76.593874
616.447063	76.117265
616.873184	75.636169
617.299283	75.143430
617.725360	74.635135
618.151416	74.116919
618.577450	73.582579
619.003462	73.042955
619.429453	72.486091
619.855422	71.923816
620.281369	71.355114
620.707295	70.760167
621.133199	70.150956
621.559081	69.529260
621.984941	68.893729
622.410779	68.257055
622.836596	67.604758
623.262391	66.934501
623.688163	66.241773
624.113914	65.546294
624.539644	64.836366
624.965351	64.110605
625.391036	63.369369
625.816699	62.612152
626.242340	61.845071
626.667960	61.048941
627.093557	60.249846
627.519132	59.436066
627.944685	58.608831
628.370216	57.763863
628.795725	56.931898
629.221212	56.077910
629.646677	55.228606
630.072119	54.381040
630.497540	53.530603
630.922938	52.695848
631.348314	51.866914
631.773668	51.051763
632.198999	50.256683
632.624308	49.474790
633.049595	48.716229
633.474860	47.981576
633.900102	47.280310
634.325322	46.608358
634.750520	45.968513
635.175695	45.359234
635.600848	44.785669
636.025978	44.243294
636.451086	43.743547
636.876171	43.280466
637.301234	42.845401
637.726275	42.453834
638.151293	42.100393
638.576288	41.782224
639.001261	41.504654
639.426211	41.266260
639.851139	41.077336
640.276044	40.934912
640.700927	40.831270
641.125787	40.776801
641.550624	40.777292
641.975438	40.821782
642.400230	40.917852
642.824999	41.063880
643.249745	41.249518
643.674469	41.490820
644.099169	41.769258
644.523847	42.095974
644.948502	42.462719
645.373135	42.864565
645.797744	43.293192
646.222330	43.755200
646.646894	44.241461
647.071435	44.748382
647.495953	45.270695
647.920447	45.806852
648.344919	46.350600
648.769368	46.898976
649.193794	47.458008
649.618197	48.008593
650.042576	48.561034
650.466933	49.122894
650.891267	49.677517
651.315577	50.223221
651.739864	50.769829
652.164129	51.306278
652.588370	51.836324
653.012587	52.357043
653.436782	52.867537
653.860953	53.375035
654.285102	53.871552
654.709226	54.366940
655.133328	54.844699
655.557406	55.316169
655.981461	55.770169
656.405493	56.225463
656.829501	56.659000
657.253486	57.089337
657.677448	57.489181
658.101386	57.882794
658.525301	58.258713
658.949192	58.622856
659.373060	58.965699
659.796904	59.292849
660.220725	59.608088
660.644522	59.902755
661.068296	60.189447
661.492046	60.461277
661.915772	60.727629
662.339475	60.974031
662.763154	61.205803
663.186810	61.430725
663.610442	61.631150
664.034050	61.820736
664.457635	62.006934
664.881196	62.181674
665.304733	62.353829
665.728247	62.515641
666.151736	62.674018
666.575202	62.822490
666.998644	62.971054
667.422062	63.119005
667.845457	63.250027
668.268827	63.386297
668.692174	63.517913
669.115496	63.656348
669.538795	63.781983
669.962070	63.918048
670.385321	64.042192
670.808547	64.183039
671.231750	64.315470
671.654929	64.443902
672.078084	64.586834
672.501214	64.723975
672.924321	64.875478
673.347404	65.029628
673.770462	65.193575
674.193496	65.349933
674.616506	65.517575
675.039492	65.686987
675.462454	65.868805
675.885391	66.058186
676.308305	66.250044
676.731194	66.462102
677.154058	66.673120
677.576899	66.889742
677.999715	67.116940
678.422507	67.333050
678.845274	67.562953
679.268017	67.793904
679.690736	68.035271
680.113430	68.261319
680.536100	68.487150
680.958746	68.720775
681.381367	68.951356
681.803963	69.176061
682.226535	69.396544
682.649083	69.626018
683.071605	69.844882
683.494104	70.069642
683.916578	70.286461
684.339027	70.508030
684.761451	70.735160
685.183851	70.949173
685.606227	71.178638
686.028577	71.394886
686.450903	71.622358
686.873204	71.849654
687.295481	72.085815
687.717733	72.316880
688.139959	72.545269
688.562162	72.780625
688.984339	73.027312
689.406492	73.277649
689.828619	73.515988
690.250722	73.771518
690.672800	74.015114
691.094853	74.262600
691.516881	74.528849
691.938884	74.792658
692.360863	75.057583
692.782816	75.314597
693.204744	75.589941
693.626647	75.865456
694.048526	76.147201
694.470379	76.431548
694.892207	76.723228
695.314010	77.018575
695.735788	77.319930
696.157540	77.620524
696.579268	77.927859
697.000970	78.237951
697.422648	78.556240
697.844300	78.865069
698.265926	79.190777
698.687528	79.512298
699.109104	79.830178
699.530655	80.145274
699.952181	80.469726
