Time1=100ms:Average1=5:Objective=10X:Aperture=1: (11/21/2018 2:54:50 PM)
11/21/2018 2:54:50 PM
Reflectance
10X
Ap#: 1
Avg1: 5.000000
Avg2: 0.000000
Int.Time1:100.000000

420.190645	26.672487
420.624620	26.813569
421.058582	26.929230
421.492531	27.073055
421.926468	27.187857
422.360391	27.342095
422.794301	27.517224
423.228199	27.681196
423.662083	27.880141
424.095955	28.112013
424.529813	28.321671
424.963658	28.551365
425.397491	28.743107
425.831310	28.966152
426.265116	29.187071
426.698909	29.399537
427.132689	29.626078
427.566455	29.864231
428.000209	30.118061
428.433949	30.350262
428.867676	30.586678
429.301389	30.817490
429.735090	31.052073
430.168777	31.274120
430.602451	31.479759
431.036111	31.683705
431.469759	31.873220
431.903392	32.084889
432.337013	32.275921
432.770620	32.468438
433.204213	32.630717
433.637794	32.834495
434.071360	33.005324
434.504914	33.192412
434.938453	33.370871
435.371979	33.566261
435.805492	33.757372
436.238991	33.935383
436.672477	34.099046
437.105949	34.273491
437.539407	34.415994
437.972852	34.559313
438.406283	34.726155
438.839700	34.883441
439.273104	35.020865
439.706494	35.132355
440.139871	35.257670
440.573233	35.373084
441.006582	35.462471
441.439917	35.543231
441.873238	35.634444
442.306546	35.719522
442.739839	35.789290
443.173119	35.850945
443.606385	35.899153
444.039636	35.962304
444.472874	36.026990
444.906099	36.082133
445.339309	36.149144
445.772505	36.222652
446.205687	36.295697
446.638855	36.363427
447.072009	36.415732
447.505149	36.475181
447.938275	36.531970
448.371387	36.579788
448.804485	36.626783
449.237569	36.653783
449.670638	36.693674
450.103694	36.712278
450.536735	36.730823
450.969762	36.727874
451.402774	36.728632
451.835773	36.690255
452.268757	36.676495
452.701727	36.670519
453.134683	36.662616
453.567624	36.644461
454.000551	36.637896
454.433464	36.622628
454.866362	36.600000
455.299246	36.582445
455.732116	36.564027
456.164971	36.547978
456.597811	36.516620
457.030638	36.500575
457.463449	36.485359
457.896246	36.440753
458.329029	36.405071
458.761797	36.359966
459.194551	36.292964
459.627290	36.213096
460.060014	36.134785
460.492724	36.048373
460.925419	35.952355
461.358099	35.870368
461.790765	35.758925
462.223416	35.629368
462.656052	35.496124
463.088674	35.346309
463.521281	35.205778
463.953873	35.056906
464.386450	34.882395
464.819012	34.712646
465.251560	34.553795
465.684093	34.374222
466.116611	34.187047
466.549114	34.005009
466.981602	33.818927
467.414075	33.611506
467.846533	33.400724
468.278977	33.189802
468.711405	32.961133
469.143818	32.730814
469.576216	32.495928
470.008600	32.256128
470.440968	31.989808
470.873321	31.723059
471.305659	31.449749
471.737982	31.177389
472.170289	30.889933
472.602582	30.607368
473.034859	30.328650
473.467122	30.048677
473.899369	29.781773
474.331600	29.519707
474.763817	29.246105
475.196018	28.988613
475.628204	28.737420
476.060375	28.489649
476.492530	28.237357
476.924670	28.001819
477.356795	27.767975
477.788904	27.565618
478.220998	27.365430
478.653076	27.170925
479.085139	26.996570
479.517186	26.835515
479.949219	26.693157
480.381235	26.559154
480.813236	26.452987
481.245221	26.361423
481.677191	26.275891
482.109146	26.203057
482.541084	26.133121
482.973008	26.071938
483.404915	26.031211
483.836807	26.008317
484.268683	26.006447
484.700544	26.021381
485.132388	26.050697
485.564217	26.094839
485.996031	26.155936
486.427828	26.225774
486.859610	26.316060
487.291376	26.412527
487.723126	26.523148
488.154860	26.643984
488.586579	26.772805
489.018281	26.904965
489.449968	27.057933
489.881639	27.227086
490.313293	27.399873
490.744932	27.574237
491.176555	27.760238
491.608162	27.955168
492.039753	28.157147
492.471328	28.354407
492.902886	28.557209
493.334429	28.755247
493.765956	28.951584
494.197466	29.138225
494.628960	29.313719
495.060439	29.498190
495.491901	29.681179
495.923347	29.860030
496.354776	30.032693
496.786190	30.196207
497.217587	30.363777
497.648968	30.517703
498.080332	30.679700
498.511681	30.828681
498.943013	30.983194
499.374328	31.141949
499.805628	31.305536
500.236911	31.459910
500.668177	31.614714
501.099427	31.760334
501.530661	31.901473
501.961878	32.042349
502.393079	32.178464
502.824264	32.305685
503.255431	32.425426
503.686583	32.524776
504.117717	32.637975
504.548835	32.739417
504.979937	32.835227
505.411022	32.923662
505.842090	33.019860
506.273142	33.122414
506.704177	33.217156
507.135195	33.323589
507.566197	33.433368
507.997182	33.551390
508.428150	33.668789
508.859102	33.782176
509.290036	33.896387
509.720954	34.014452
510.151855	34.154570
510.582739	34.280190
511.013607	34.413645
511.444457	34.545064
511.875291	34.690065
512.306107	34.840791
512.736907	34.999217
513.167690	35.169418
513.598456	35.355279
514.029205	35.561022
514.459936	35.792739
514.890651	36.052328
515.321349	36.326138
515.752030	36.622660
516.182693	36.933704
516.613340	37.260861
517.043969	37.619246
517.474582	37.992785
517.905177	38.388190
518.335755	38.795696
518.766315	39.222027
519.196859	39.663736
519.627385	40.113744
520.057894	40.576619
520.488386	41.057355
520.918860	41.562856
521.349318	42.095545
521.779757	42.650425
522.210180	43.236543
522.640585	43.856685
523.070973	44.488432
523.501343	45.120525
523.931696	45.783293
524.362031	46.452055
524.792349	47.137416
525.222650	47.829231
525.652933	48.514685
526.083198	49.195727
526.513446	49.871935
526.943677	50.545480
527.373890	51.203483
527.804085	51.872733
528.234262	52.510749
528.664422	53.156535
529.094565	53.795919
529.524689	54.447722
529.954796	55.112626
530.384885	55.765303
530.814957	56.418233
531.245011	57.073492
531.675047	57.729851
532.105065	58.399311
532.535065	59.072480
532.965048	59.741740
533.395013	60.413808
533.824959	61.068347
534.254888	61.709452
534.684799	62.357165
535.114693	62.992220
535.544568	63.611040
535.974425	64.214685
536.404264	64.816172
536.834086	65.407742
537.263889	65.989602
537.693674	66.563458
538.123441	67.145915
538.553190	67.721953
538.982921	68.313595
539.412634	68.907279
539.842329	69.504358
540.272006	70.104522
540.701664	70.714769
541.131304	71.299785
541.560926	71.900766
541.990530	72.501009
542.420116	73.100256
542.849683	73.674518
543.279232	74.225834
543.708763	74.778687
544.138275	75.305990
544.567769	75.820201
544.997245	76.316500
545.426702	76.794199
545.856141	77.254399
546.285562	77.706738
546.714964	78.148944
547.144347	78.591244
547.573713	79.019989
548.003059	79.444710
548.432387	79.865273
548.861697	80.286332
549.290988	80.693235
549.720260	81.105770
550.149514	81.505154
550.578750	81.896425
551.007966	82.292615
551.437164	82.671724
551.866344	83.047092
552.295504	83.411873
552.724646	83.755947
553.153769	84.091300
553.582874	84.403467
554.011960	84.689804
554.441027	84.967236
554.870075	85.226922
555.299104	85.455488
555.728115	85.662698
556.157106	85.863958
556.586079	86.046024
557.015033	86.207198
557.443968	86.359215
557.872884	86.506199
558.301781	86.660785
558.730659	86.777656
559.159518	86.911545
559.588358	87.047172
560.017180	87.168067
560.445982	87.292987
560.874765	87.424778
561.303528	87.545660
561.732273	87.669401
562.160999	87.794208
562.589705	87.921418
563.018393	88.048669
563.447061	88.170602
563.875710	88.302682
564.304340	88.427667
564.732950	88.547711
565.161542	88.665200
565.590114	88.788135
566.018666	88.923679
566.447200	89.051870
566.875714	89.194845
567.304208	89.340221
567.732684	89.484071
568.161140	89.626833
568.589576	89.778629
569.017993	89.934609
569.446391	90.085592
569.874769	90.233742
570.303128	90.395638
570.731467	90.556942
571.159787	90.697403
571.588087	90.823140
572.016368	90.975622
572.444629	91.100864
572.872870	91.212317
573.301092	91.329517
573.729294	91.416359
574.157476	91.491763
574.585639	91.553720
575.013782	91.594558
575.441906	91.620168
575.870009	91.627017
576.298093	91.625711
576.726157	91.611366
577.154202	91.570362
577.582226	91.529606
578.010231	91.474870
578.438216	91.413500
578.866181	91.337316
579.294126	91.241982
579.722051	91.140097
580.149957	91.027573
580.577842	90.912499
581.005707	90.789994
581.433553	90.682313
581.861378	90.556589
582.289184	90.432231
582.716969	90.305169
583.144734	90.180770
583.572479	90.063258
584.000205	89.937813
584.427910	89.823445
584.855594	89.716401
585.283259	89.596136
585.710904	89.484453
586.138528	89.379493
586.566132	89.255445
586.993716	89.152776
587.421280	89.037949
587.848823	88.927422
588.276346	88.821306
588.703849	88.707527
589.131332	88.581758
589.558794	88.443652
589.986236	88.301470
590.413657	88.169833
590.841058	88.014126
591.268438	87.854746
591.695799	87.681376
592.123138	87.510541
592.550458	87.335167
592.977756	87.163844
593.405034	86.990623
593.832292	86.810932
594.259529	86.628030
594.686746	86.422394
595.113942	86.228731
595.541117	86.024343
595.968272	85.827271
596.395406	85.629330
596.822519	85.413398
597.249612	85.209535
597.676684	85.002442
598.103735	84.789054
598.530766	84.587731
598.957775	84.370920
599.384764	84.150398
599.811733	83.950325
600.238680	83.721844
600.665606	83.503157
601.092512	83.274460
601.519397	83.043939
601.946261	82.806334
602.373104	82.566884
602.799926	82.328975
603.226727	82.081083
603.653507	81.812961
604.080266	81.542858
604.507004	81.265675
604.933721	80.979879
605.360417	80.672813
605.787092	80.351557
606.213746	80.020341
606.640379	79.658250
607.066991	79.286294
607.493581	78.897441
607.920150	78.503959
608.346699	78.089672
608.773226	77.667328
609.199731	77.204233
609.626216	76.727154
610.052679	76.233572
610.479121	75.710985
610.905542	75.165983
611.331941	74.607536
611.758319	74.015786
612.184676	73.419909
612.611011	72.800394
613.037325	72.145752
613.463617	71.489505
613.889888	70.792681
614.316138	70.087599
614.742366	69.356214
615.168573	68.606171
615.594758	67.839521
616.020921	67.057493
616.447063	66.268258
616.873184	65.474844
617.299283	64.669619
617.725360	63.860896
618.151416	63.053042
618.577450	62.240746
619.003462	61.449132
619.429453	60.654730
619.855422	59.882502
620.281369	59.125339
620.707295	58.371885
621.133199	57.629646
621.559081	56.901216
621.984941	56.189815
622.410779	55.507237
622.836596	54.840455
623.262391	54.180170
623.688163	53.544874
624.113914	52.928405
624.539644	52.324055
624.965351	51.746653
625.391036	51.178238
625.816699	50.632315
626.242340	50.103453
626.667960	49.582395
627.093557	49.094372
627.519132	48.624855
627.944685	48.173921
628.370216	47.754514
628.795725	47.366070
629.221212	46.990947
629.646677	46.650390
630.072119	46.346811
630.497540	46.069305
630.922938	45.826108
631.348314	45.610258
631.773668	45.428347
632.198999	45.273042
632.624308	45.140245
633.049595	45.032359
633.474860	44.946643
633.900102	44.891512
634.325322	44.854981
634.750520	44.830089
635.175695	44.822956
635.600848	44.834720
636.025978	44.851508
636.451086	44.896320
636.876171	44.944612
637.301234	44.999920
637.726275	45.065520
638.151293	45.141859
638.576288	45.221579
639.001261	45.303366
639.426211	45.393292
639.851139	45.493648
640.276044	45.599134
640.700927	45.704762
641.125787	45.814606
641.550624	45.925092
641.975438	46.041230
642.400230	46.162677
642.824999	46.281362
643.249745	46.389197
643.674469	46.502554
644.099169	46.605329
644.523847	46.711804
644.948502	46.815268
645.373135	46.910048
645.797744	47.006224
646.222330	47.101323
646.646894	47.192094
647.071435	47.275848
647.495953	47.353651
647.920447	47.437379
648.344919	47.510379
648.769368	47.575860
649.193794	47.644265
649.618197	47.697201
650.042576	47.753495
650.466933	47.812253
650.891267	47.867117
651.315577	47.913060
651.739864	47.960219
652.164129	47.999862
652.588370	48.035596
653.012587	48.063572
653.436782	48.083479
653.860953	48.099457
654.285102	48.106509
654.709226	48.104484
655.133328	48.091947
655.557406	48.072513
655.981461	48.042297
656.405493	48.007692
656.829501	47.968457
657.253486	47.932059
657.677448	47.882811
658.101386	47.837510
658.525301	47.794629
658.949192	47.748455
659.373060	47.701031
659.796904	47.653198
660.220725	47.612344
660.644522	47.580797
661.068296	47.555557
661.492046	47.541090
661.915772	47.538064
662.339475	47.540969
662.763154	47.561771
663.186810	47.592172
663.610442	47.631327
664.034050	47.687594
664.457635	47.756025
664.881196	47.840160
665.304733	47.946849
665.728247	48.065605
666.151736	48.210556
666.575202	48.371725
666.998644	48.549537
667.422062	48.753297
667.845457	48.976198
668.268827	49.216478
668.692174	49.477255
669.115496	49.765120
669.538795	50.076777
669.962070	50.408219
670.385321	50.757970
670.808547	51.143584
671.231750	51.535375
671.654929	51.941452
672.078084	52.378238
672.501214	52.817057
672.924321	53.282321
673.347404	53.761026
673.770462	54.246104
674.193496	54.731187
674.616506	55.225186
675.039492	55.717437
675.462454	56.222633
675.885391	56.718100
676.308305	57.202904
676.731194	57.683133
677.154058	58.148619
677.576899	58.605894
677.999715	59.054030
678.422507	59.477070
678.845274	59.887326
679.268017	60.276482
679.690736	60.650546
680.113430	61.007474
680.536100	61.347154
680.958746	61.672884
681.381367	61.983399
681.803963	62.274521
682.226535	62.552548
682.649083	62.808987
683.071605	63.063892
683.494104	63.302006
683.916578	63.517748
684.339027	63.728715
684.761451	63.925253
685.183851	64.102089
685.606227	64.283069
686.028577	64.443041
686.450903	64.589741
686.873204	64.729501
687.295481	64.856947
687.717733	64.967741
688.139959	65.066129
688.562162	65.151300
688.984339	65.234913
689.406492	65.312179
689.828619	65.376758
690.250722	65.438779
690.672800	65.487056
691.094853	65.529455
691.516881	65.580880
691.938884	65.630989
692.360863	65.670057
692.782816	65.705411
693.204744	65.738043
693.626647	65.763085
694.048526	65.786048
694.470379	65.803765
694.892207	65.823812
695.314010	65.834805
695.735788	65.854474
696.157540	65.857691
696.579268	65.862344
697.000970	65.864824
697.422648	65.867015
697.844300	65.857945
698.265926	65.848095
698.687528	65.838459
699.109104	65.816253
699.530655	65.792378
699.952181	65.769424
