PE UV       SUBTECH     SPECTRUM    ASCII       PEDS        4.00        
   -1
CICIMAUCR0012-3.Sample.ASC
24/04/04
15:58:33.00
24/04/04
15:58:33.00
Vinicio Soto Monge
C. cupreomarginata
250,000000
1
Lambda 1050
1050L1511233
PerkinElmer UV WinLab 6.3.2.0749 / 2.02.05 Lambda 900 UV/VIS/NIR, Aug  7 2015 09:38:08

0
0
3350/servo 860,8/2
0
0
UV/VIS
1
1
1
DoubleDePol,CommonBeamDepol,RBeamAtt,SBeamAtt,60mm sphere, WB InGaAs Detector
0
0
0
0
Program
Program
3350/servo 860,8/2
3350/0,2 860,8/0,2
3350/0,2 860,8/0,2
0
15.00
 
 
 
0
 
860,8
319,2
860,8
Front
100
on
S:100 R:100
0
0
0
0
 
0
 
 
 
0
 
 
0
0
0
0
0
 
 
 
 
0
0


0
0
#HDR
-1
-1
#GR
nm
%R
1.0
0.0
2500,000000
-1,000000
2251
8
59,015000
5,370900
#DATA
250.000000	nan
251.000000	nan
252.000000	nan
253.000000	nan
254.000000	nan
255.000000	nan
256.000000	nan
257.000000	nan
258.000000	nan
259.000000	nan
260.000000	nan
261.000000	nan
262.000000	nan
263.000000	nan
264.000000	nan
265.000000	nan
266.000000	nan
267.000000	nan
268.000000	nan
269.000000	nan
270.000000	nan
271.000000	nan
272.000000	nan
273.000000	nan
274.000000	nan
275.000000	nan
276.000000	nan
277.000000	nan
278.000000	nan
279.000000	nan
280.000000	nan
281.000000	nan
282.000000	nan
283.000000	nan
284.000000	4.665490
285.000000	4.652611
286.000000	4.640343
287.000000	4.628052
288.000000	4.615924
289.000000	4.602911
290.000000	4.590732
291.000000	4.578851
292.000000	4.568401
293.000000	4.556918
294.000000	4.546307
295.000000	4.535729
296.000000	4.525790
297.000000	4.516026
298.000000	4.506791
299.000000	4.498686
300.000000	4.490238
301.000000	4.481152
302.000000	4.472635
303.000000	4.464468
304.000000	4.457378
305.000000	4.451266
306.000000	4.445379
307.000000	4.439104
308.000000	4.433042
309.000000	4.428047
310.000000	4.421883
311.000000	4.416358
312.000000	4.411234
313.000000	4.405267
314.000000	4.400057
315.000000	4.395249
316.000000	4.392005
317.000000	4.395948
318.000000	4.401038
319.000000	4.399450
320.000000	4.399246
321.000000	4.394171
322.000000	4.394990
323.000000	4.394165
324.000000	4.396042
325.000000	4.398980
326.000000	4.399381
327.000000	4.398451
328.000000	4.396836
329.000000	4.395351
330.000000	4.394029
331.000000	4.393480
332.000000	4.392818
333.000000	4.392799
334.000000	4.393230
335.000000	4.392487
336.000000	4.392078
337.000000	4.391625
338.000000	4.393221
339.000000	4.392945
340.000000	4.393695
341.000000	4.394849
342.000000	4.396178
343.000000	4.398101
344.000000	4.398613
345.000000	4.399750
346.000000	4.401513
347.000000	4.404061
348.000000	4.406102
349.000000	4.407486
350.000000	4.409433
351.000000	4.409131
352.000000	4.401835
353.000000	4.394248
354.000000	4.393450
355.000000	4.392433
356.000000	4.396167
357.000000	4.393550
358.000000	4.393280
359.000000	4.392110
360.000000	4.388744
361.000000	4.387399
362.000000	4.388151
363.000000	4.390065
364.000000	4.391244
365.000000	4.393184
366.000000	4.395664
367.000000	4.397688
368.000000	4.401680
369.000000	4.403651
370.000000	4.407261
371.000000	4.410328
372.000000	4.413882
373.000000	4.416112
374.000000	4.419633
375.000000	4.422649
376.000000	4.426370
377.000000	4.427843
378.000000	4.429223
379.000000	4.431967
380.000000	4.435767
381.000000	4.440714
382.000000	4.445966
383.000000	4.452158
384.000000	4.459716
385.000000	4.467914
386.000000	4.478802
387.000000	4.490080
388.000000	4.502849
389.000000	4.516004
390.000000	4.530673
391.000000	4.546647
392.000000	4.565092
393.000000	4.585196
394.000000	4.607205
395.000000	4.632821
396.000000	4.661782
397.000000	4.692470
398.000000	4.726957
399.000000	4.765400
400.000000	4.807070
401.000000	4.851692
402.000000	4.900629
403.000000	4.952140
404.000000	5.009513
405.000000	5.071681
406.000000	5.139400
407.000000	5.211905
408.000000	5.289670
409.000000	5.373342
410.000000	5.461847
411.000000	5.554679
412.000000	5.655650
413.000000	5.762028
414.000000	5.873566
415.000000	5.989882
416.000000	6.110787
417.000000	6.236406
418.000000	6.366825
419.000000	6.501538
420.000000	6.640309
421.000000	6.782906
422.000000	6.929219
423.000000	7.079122
424.000000	7.232220
425.000000	7.388286
426.000000	7.547265
427.000000	7.708710
428.000000	7.872105
429.000000	8.037001
430.000000	8.202987
431.000000	8.370158
432.000000	8.538236
433.000000	8.706690
434.000000	8.874827
435.000000	9.042433
436.000000	9.209079
437.000000	9.374445
438.000000	9.538212
439.000000	9.699566
440.000000	9.858610
441.000000	10.014812
442.000000	10.167634
443.000000	10.316944
444.000000	10.462080
445.000000	10.602685
446.000000	10.738357
447.000000	10.868377
448.000000	10.992301
449.000000	11.110042
450.000000	11.221434
451.000000	11.326028
452.000000	11.423801
453.000000	11.514269
454.000000	11.597668
455.000000	11.674089
456.000000	11.743328
457.000000	11.805508
458.000000	11.861064
459.000000	11.910313
460.000000	11.953579
461.000000	11.991327
462.000000	12.024162
463.000000	12.052785
464.000000	12.078134
465.000000	12.100941
466.000000	12.121768
467.000000	12.141286
468.000000	12.160163
469.000000	12.179621
470.000000	12.200404
471.000000	12.222998
472.000000	12.248155
473.000000	12.276296
474.000000	12.308362
475.000000	12.344781
476.000000	12.385955
477.000000	12.432671
478.000000	12.485199
479.000000	12.543659
480.000000	12.608367
481.000000	12.679974
482.000000	12.758898
483.000000	12.845404
484.000000	12.939355
485.000000	13.040612
486.000000	13.149334
487.000000	13.264952
488.000000	13.387885
489.000000	13.518115
490.000000	13.655308
491.000000	13.799535
492.000000	13.950673
493.000000	14.108191
494.000000	14.271373
495.000000	14.440145
496.000000	14.614852
497.000000	14.795341
498.000000	14.981094
499.000000	15.171744
500.000000	15.366939
501.000000	15.566464
502.000000	15.770221
503.000000	15.978411
504.000000	16.190912
505.000000	16.407798
506.000000	16.629108
507.000000	16.854536
508.000000	17.083895
509.000000	17.316877
510.000000	17.553725
511.000000	17.793885
512.000000	18.037479
513.000000	18.284667
514.000000	18.535778
515.000000	18.790839
516.000000	19.049617
517.000000	19.312115
518.000000	19.578762
519.000000	19.850462
520.000000	20.128131
521.000000	20.412673
522.000000	20.705505
523.000000	21.007678
524.000000	21.319835
525.000000	21.643364
526.000000	21.978779
527.000000	22.326941
528.000000	22.688690
529.000000	23.065561
530.000000	23.457525
531.000000	23.864358
532.000000	24.285758
533.000000	24.721541
534.000000	25.171189
535.000000	25.633577
536.000000	26.106929
537.000000	26.590147
538.000000	27.081855
539.000000	27.580969
540.000000	28.085870
541.000000	28.595149
542.000000	29.107814
543.000000	29.623105
544.000000	30.140487
545.000000	30.658587
546.000000	31.176200
547.000000	31.691768
548.000000	32.203791
549.000000	32.711206
550.000000	33.212831
551.000000	33.707521
552.000000	34.195424
553.000000	34.675374
554.000000	35.146203
555.000000	35.607343
556.000000	36.058104
557.000000	36.497522
558.000000	36.925371
559.000000	37.341149
560.000000	37.739130
561.000000	38.123547
562.000000	38.493997
563.000000	38.850405
564.000000	39.191728
565.000000	39.517313
566.000000	39.825758
567.000000	40.117248
568.000000	40.390487
569.000000	40.645009
570.000000	40.881092
571.000000	41.099418
572.000000	41.299263
573.000000	41.481325
574.000000	41.645941
575.000000	41.793242
576.000000	41.923889
577.000000	42.038883
578.000000	42.139176
579.000000	42.224399
580.000000	42.295739
581.000000	42.355008
582.000000	42.403672
583.000000	42.443254
584.000000	42.474413
585.000000	42.498293
586.000000	42.516506
587.000000	42.528884
588.000000	42.535479
589.000000	42.536139
590.000000	42.530716
591.000000	42.518935
592.000000	42.499538
593.000000	42.471161
594.000000	42.433128
595.000000	42.388910
596.000000	42.333878
597.000000	42.267453
598.000000	42.188732
599.000000	42.097732
600.000000	41.994136
601.000000	41.879659
602.000000	41.753566
603.000000	41.618029
604.000000	41.473238
605.000000	41.319585
606.000000	41.158654
607.000000	40.991225
608.000000	40.816831
609.000000	40.635682
610.000000	40.447820
611.000000	40.253622
612.000000	40.051740
613.000000	39.841832
614.000000	39.624246
615.000000	39.397181
616.000000	39.160353
617.000000	38.912673
618.000000	38.654052
619.000000	38.384043
620.000000	38.103116
621.000000	37.811635
622.000000	37.510090
623.000000	37.200264
624.000000	36.883829
625.000000	36.560551
626.000000	36.233322
627.000000	35.902969
628.000000	35.570852
629.000000	35.238394
630.000000	34.907706
631.000000	34.578704
632.000000	34.253351
633.000000	33.932758
634.000000	33.617429
635.000000	33.309932
636.000000	33.009408
637.000000	32.718259
638.000000	32.436401
639.000000	32.165242
640.000000	31.905622
641.000000	31.657534
642.000000	31.422699
643.000000	31.201829
644.000000	30.995146
645.000000	30.804690
646.000000	30.629615
647.000000	30.471023
648.000000	30.329875
649.000000	30.205711
650.000000	30.100533
651.000000	30.014339
652.000000	29.947866
653.000000	29.900716
654.000000	29.872963
655.000000	29.863990
656.000000	29.873069
657.000000	29.899714
658.000000	29.942324
659.000000	29.999748
660.000000	30.072329
661.000000	30.157590
662.000000	30.254723
663.000000	30.364246
664.000000	30.484485
665.000000	30.613662
666.000000	30.752116
667.000000	30.897968
668.000000	31.050651
669.000000	31.208724
670.000000	31.370919
671.000000	31.536973
672.000000	31.704514
673.000000	31.873535
674.000000	32.042705
675.000000	32.210675
676.000000	32.376694
677.000000	32.539818
678.000000	32.699954
679.000000	32.856582
680.000000	33.008076
681.000000	33.154660
682.000000	33.296195
683.000000	33.432193
684.000000	33.563333
685.000000	33.688615
686.000000	33.808517
687.000000	33.922274
688.000000	34.030500
689.000000	34.134497
690.000000	34.233807
691.000000	34.328751
692.000000	34.419192
693.000000	34.506449
694.000000	34.590797
695.000000	34.672485
696.000000	34.751728
697.000000	34.830053
698.000000	34.906199
699.000000	34.981148
700.000000	35.055367
701.000000	35.129068
702.000000	35.201930
703.000000	35.274541
704.000000	35.347456
705.000000	35.420328
706.000000	35.494032
707.000000	35.568164
708.000000	35.642342
709.000000	35.716817
710.000000	35.792108
711.000000	35.868917
712.000000	35.946668
713.000000	36.024773
714.000000	36.104511
715.000000	36.185129
716.000000	36.266653
717.000000	36.349289
718.000000	36.432288
719.000000	36.515980
720.000000	36.600921
721.000000	36.685695
722.000000	36.771194
723.000000	36.856471
724.000000	36.940858
725.000000	37.024792
726.000000	37.107727
727.000000	37.189742
728.000000	37.271048
729.000000	37.351382
730.000000	37.430320
731.000000	37.507446
732.000000	37.582939
733.000000	37.656940
734.000000	37.728844
735.000000	37.800096
736.000000	37.869902
737.000000	37.938925
738.000000	38.007382
739.000000	38.073750
740.000000	38.137868
741.000000	38.200239
742.000000	38.262057
743.000000	38.322585
744.000000	38.381367
745.000000	38.439599
746.000000	38.495931
747.000000	38.550035
748.000000	38.602967
749.000000	38.654077
750.000000	38.704485
751.000000	38.754215
752.000000	38.802588
753.000000	38.850715
754.000000	38.897670
755.000000	38.943267
756.000000	38.990249
757.000000	39.037030
758.000000	39.082955
759.000000	39.128613
760.000000	39.174813
761.000000	39.220975
762.000000	39.267217
763.000000	39.314276
764.000000	39.361373
765.000000	39.407358
766.000000	39.453761
767.000000	39.499991
768.000000	39.545145
769.000000	39.591182
770.000000	39.638106
771.000000	39.686077
772.000000	39.733553
773.000000	39.779819
774.000000	39.826773
775.000000	39.875328
776.000000	39.925036
777.000000	39.974792
778.000000	40.025801
779.000000	40.079551
780.000000	40.134801
781.000000	40.191388
782.000000	40.250230
783.000000	40.310906
784.000000	40.373934
785.000000	40.438890
786.000000	40.504628
787.000000	40.573215
788.000000	40.644029
789.000000	40.716923
790.000000	40.791281
791.000000	40.865715
792.000000	40.944201
793.000000	41.026429
794.000000	41.110780
795.000000	41.196687
796.000000	41.284928
797.000000	41.375250
798.000000	41.467403
799.000000	41.559970
800.000000	41.655498
801.000000	41.754084
802.000000	41.854321
803.000000	41.957967
804.000000	42.062833
805.000000	42.167340
806.000000	42.273159
807.000000	42.379644
808.000000	42.487626
809.000000	42.598053
810.000000	42.707796
811.000000	42.817312
812.000000	42.926151
813.000000	43.034530
814.000000	43.141460
815.000000	43.246484
816.000000	43.351561
817.000000	43.455281
818.000000	43.558325
819.000000	43.658153
820.000000	43.757001
821.000000	43.856190
822.000000	43.953745
823.000000	44.048899
824.000000	44.141533
825.000000	44.234614
826.000000	44.326828
827.000000	44.415854
828.000000	44.501829
829.000000	44.585550
830.000000	44.666260
831.000000	44.743329
832.000000	44.819675
833.000000	44.893531
834.000000	44.968088
835.000000	45.041173
836.000000	45.107863
837.000000	45.171182
838.000000	45.229525
839.000000	45.286375
840.000000	45.342706
841.000000	45.396447
842.000000	45.447949
843.000000	45.495825
844.000000	45.540421
845.000000	45.580755
846.000000	45.620272
847.000000	45.659308
848.000000	45.691711
849.000000	45.719246
850.000000	45.743675
851.000000	45.767273
852.000000	45.786784
853.000000	45.804883
854.000000	45.819925
855.000000	45.831045
856.000000	45.834619
857.000000	45.834153
858.000000	45.824102
859.000000	45.847031
860.000000	45.868763
861.000000	45.890419
862.000000	45.911749
863.000000	45.933452
864.000000	45.955254
865.000000	45.977413
866.000000	46.000738
867.000000	46.021983
868.000000	46.041442
869.000000	46.058063
870.000000	46.072841
871.000000	46.089319
872.000000	46.105579
873.000000	46.122915
874.000000	46.137762
875.000000	46.150211
876.000000	46.160786
877.000000	46.170520
878.000000	46.180144
879.000000	46.187317
880.000000	46.195550
881.000000	46.200411
882.000000	46.203178
883.000000	46.208645
884.000000	46.214718
885.000000	46.220590
886.000000	46.221939
887.000000	46.223152
888.000000	46.220807
889.000000	46.217840
890.000000	46.213124
891.000000	46.210572
892.000000	46.206711
893.000000	46.208237
894.000000	46.172966
895.000000	46.132695
896.000000	46.087134
897.000000	46.036409
898.000000	45.980775
899.000000	45.921250
900.000000	45.857837
901.000000	45.790225
902.000000	45.719130
903.000000	45.644956
904.000000	45.567980
905.000000	45.488530
906.000000	45.406509
907.000000	45.322452
908.000000	45.236183
909.000000	45.148810
910.000000	45.060086
911.000000	44.970050
912.000000	44.879677
913.000000	44.788617
914.000000	44.698122
915.000000	44.608052
916.000000	44.518405
917.000000	44.428510
918.000000	44.338919
919.000000	44.250108
920.000000	44.162079
921.000000	44.075459
922.000000	43.990356
923.000000	43.906742
924.000000	43.824825
925.000000	43.744155
926.000000	43.665382
927.000000	43.588980
928.000000	43.514470
929.000000	43.442141
930.000000	43.372447
931.000000	43.305366
932.000000	43.240730
933.000000	43.179044
934.000000	43.119700
935.000000	43.063188
936.000000	43.009352
937.000000	42.958343
938.000000	42.909848
939.000000	42.863734
940.000000	42.819895
941.000000	42.778616
942.000000	42.739891
943.000000	42.703599
944.000000	42.669440
945.000000	42.636564
946.000000	42.605531
947.000000	42.576121
948.000000	42.548344
949.000000	42.521837
950.000000	42.496483
951.000000	42.472208
952.000000	42.449394
953.000000	42.427987
954.000000	42.407667
955.000000	42.388153
956.000000	42.369711
957.000000	42.352150
958.000000	42.335011
959.000000	42.318717
960.000000	42.303629
961.000000	42.288950
962.000000	42.275072
963.000000	42.261227
964.000000	42.248254
965.000000	42.235800
966.000000	42.223949
967.000000	42.213154
968.000000	42.202923
969.000000	42.193431
970.000000	42.184672
971.000000	42.176909
972.000000	42.169561
973.000000	42.162874
974.000000	42.157015
975.000000	42.151891
976.000000	42.147241
977.000000	42.143168
978.000000	42.139052
979.000000	42.135001
980.000000	42.131529
981.000000	42.128143
982.000000	42.125036
983.000000	42.121979
984.000000	42.118743
985.000000	42.115500
986.000000	42.112641
987.000000	42.109937
988.000000	42.107304
989.000000	42.105027
990.000000	42.103136
991.000000	42.101781
992.000000	42.100883
993.000000	42.100677
994.000000	42.101122
995.000000	42.102188
996.000000	42.104508
997.000000	42.107556
998.000000	42.111855
999.000000	42.116837
1000.000000	42.122492
1001.000000	42.128785
1002.000000	42.135249
1003.000000	42.142202
1004.000000	42.149735
1005.000000	42.157993
1006.000000	42.166620
1007.000000	42.175607
1008.000000	42.184948
1009.000000	42.194787
1010.000000	42.205048
1011.000000	42.215926
1012.000000	42.227428
1013.000000	42.239910
1014.000000	42.253265
1015.000000	42.267634
1016.000000	42.283063
1017.000000	42.299299
1018.000000	42.316649
1019.000000	42.335716
1020.000000	42.356299
1021.000000	42.377972
1022.000000	42.400908
1023.000000	42.425279
1024.000000	42.450829
1025.000000	42.477472
1026.000000	42.505138
1027.000000	42.533856
1028.000000	42.563754
1029.000000	42.594451
1030.000000	42.626116
1031.000000	42.658255
1032.000000	42.690834
1033.000000	42.724003
1034.000000	42.757821
1035.000000	42.792272
1036.000000	42.827197
1037.000000	42.862652
1038.000000	42.898725
1039.000000	42.934930
1040.000000	42.970931
1041.000000	43.007388
1042.000000	43.044412
1043.000000	43.081466
1044.000000	43.118710
1045.000000	43.156090
1046.000000	43.193624
1047.000000	43.231198
1048.000000	43.268470
1049.000000	43.305568
1050.000000	43.342471
1051.000000	43.378985
1052.000000	43.414989
1053.000000	43.450650
1054.000000	43.485957
1055.000000	43.520512
1056.000000	43.554485
1057.000000	43.588126
1058.000000	43.621220
1059.000000	43.654083
1060.000000	43.686146
1061.000000	43.717581
1062.000000	43.748986
1063.000000	43.780092
1064.000000	43.810924
1065.000000	43.841173
1066.000000	43.870901
1067.000000	43.900602
1068.000000	43.930164
1069.000000	43.959577
1070.000000	43.988968
1071.000000	44.018612
1072.000000	44.048028
1073.000000	44.077178
1074.000000	44.106438
1075.000000	44.135953
1076.000000	44.165395
1077.000000	44.194974
1078.000000	44.225230
1079.000000	44.255618
1080.000000	44.285900
1081.000000	44.316464
1082.000000	44.347503
1083.000000	44.378656
1084.000000	44.410087
1085.000000	44.441839
1086.000000	44.473761
1087.000000	44.506062
1088.000000	44.538447
1089.000000	44.570634
1090.000000	44.602824
1091.000000	44.635029
1092.000000	44.666831
1093.000000	44.698169
1094.000000	44.729350
1095.000000	44.761141
1096.000000	44.792618
1097.000000	44.823112
1098.000000	44.853395
1099.000000	44.883446
1100.000000	44.913249
1101.000000	44.942783
1102.000000	44.971604
1103.000000	44.999878
1104.000000	45.027760
1105.000000	45.054877
1106.000000	45.081281
1107.000000	45.107293
1108.000000	45.132664
1109.000000	45.156964
1110.000000	45.180878
1111.000000	45.204237
1112.000000	45.226727
1113.000000	45.248471
1114.000000	45.269575
1115.000000	45.290420
1116.000000	45.310304
1117.000000	45.329352
1118.000000	45.347535
1119.000000	45.364375
1120.000000	45.379630
1121.000000	45.393234
1122.000000	45.405340
1123.000000	45.415438
1124.000000	45.423599
1125.000000	45.429703
1126.000000	45.432905
1127.000000	45.433345
1128.000000	45.430729
1129.000000	45.424195
1130.000000	45.413044
1131.000000	45.396664
1132.000000	45.374768
1133.000000	45.347034
1134.000000	45.313742
1135.000000	45.274310
1136.000000	45.227972
1137.000000	45.173794
1138.000000	45.112343
1139.000000	45.043877
1140.000000	44.968912
1141.000000	44.887535
1142.000000	44.799782
1143.000000	44.706022
1144.000000	44.607216
1145.000000	44.503799
1146.000000	44.397018
1147.000000	44.288580
1148.000000	44.178732
1149.000000	44.068460
1150.000000	43.957549
1151.000000	43.846813
1152.000000	43.735326
1153.000000	43.623368
1154.000000	43.509941
1155.000000	43.394280
1156.000000	43.275669
1157.000000	43.153094
1158.000000	43.026346
1159.000000	42.893980
1160.000000	42.756607
1161.000000	42.614722
1162.000000	42.468072
1163.000000	42.316997
1164.000000	42.161335
1165.000000	42.002252
1166.000000	41.840955
1167.000000	41.677706
1168.000000	41.512488
1169.000000	41.345358
1170.000000	41.177200
1171.000000	41.008693
1172.000000	40.841412
1173.000000	40.674528
1174.000000	40.508150
1175.000000	40.342630
1176.000000	40.177111
1177.000000	40.011210
1178.000000	39.843666
1179.000000	39.673400
1180.000000	39.497798
1181.000000	39.315729
1182.000000	39.126473
1183.000000	38.929723
1184.000000	38.726794
1185.000000	38.520123
1186.000000	38.311891
1187.000000	38.104578
1188.000000	37.900882
1189.000000	37.704797
1190.000000	37.518758
1191.000000	37.344329
1192.000000	37.183119
1193.000000	37.035365
1194.000000	36.901332
1195.000000	36.779267
1196.000000	36.668140
1197.000000	36.567413
1198.000000	36.476015
1199.000000	36.394223
1200.000000	36.321101
1201.000000	36.255789
1202.000000	36.198198
1203.000000	36.148054
1204.000000	36.105099
1205.000000	36.069751
1206.000000	36.041931
1207.000000	36.021776
1208.000000	36.009479
1209.000000	36.004442
1210.000000	36.006772
1211.000000	36.017081
1212.000000	36.036081
1213.000000	36.064613
1214.000000	36.103268
1215.000000	36.153637
1216.000000	36.216102
1217.000000	36.290044
1218.000000	36.375110
1219.000000	36.469307
1220.000000	36.570533
1221.000000	36.676204
1222.000000	36.784254
1223.000000	36.892555
1224.000000	36.998212
1225.000000	37.099836
1226.000000	37.196655
1227.000000	37.287892
1228.000000	37.374296
1229.000000	37.456618
1230.000000	37.536319
1231.000000	37.614751
1232.000000	37.692590
1233.000000	37.770793
1234.000000	37.849860
1235.000000	37.929934
1236.000000	38.011630
1237.000000	38.095265
1238.000000	38.180877
1239.000000	38.268395
1240.000000	38.357697
1241.000000	38.449033
1242.000000	38.541348
1243.000000	38.634867
1244.000000	38.729393
1245.000000	38.823873
1246.000000	38.918529
1247.000000	39.013156
1248.000000	39.107921
1249.000000	39.202490
1250.000000	39.296743
1251.000000	39.390180
1252.000000	39.482457
1253.000000	39.573936
1254.000000	39.664146
1255.000000	39.752688
1256.000000	39.839670
1257.000000	39.924879
1258.000000	40.007849
1259.000000	40.088922
1260.000000	40.168069
1261.000000	40.245236
1262.000000	40.320121
1263.000000	40.392644
1264.000000	40.463062
1265.000000	40.531455
1266.000000	40.597850
1267.000000	40.662020
1268.000000	40.724147
1269.000000	40.784188
1270.000000	40.842150
1271.000000	40.898278
1272.000000	40.952728
1273.000000	41.005534
1274.000000	41.056670
1275.000000	41.105790
1276.000000	41.152930
1277.000000	41.198788
1278.000000	41.243162
1279.000000	41.286509
1280.000000	41.329220
1281.000000	41.370978
1282.000000	41.411436
1283.000000	41.450870
1284.000000	41.489799
1285.000000	41.528161
1286.000000	41.565774
1287.000000	41.603189
1288.000000	41.640290
1289.000000	41.676875
1290.000000	41.712860
1291.000000	41.747878
1292.000000	41.782488
1293.000000	41.816601
1294.000000	41.849870
1295.000000	41.882050
1296.000000	41.913301
1297.000000	41.944014
1298.000000	41.973902
1299.000000	42.002870
1300.000000	42.030929
1301.000000	42.057969
1302.000000	42.084069
1303.000000	42.109236
1304.000000	42.133335
1305.000000	42.156420
1306.000000	42.178417
1307.000000	42.198892
1308.000000	42.217712
1309.000000	42.234833
1310.000000	42.250423
1311.000000	42.264355
1312.000000	42.276100
1313.000000	42.285548
1314.000000	42.292663
1315.000000	42.296999
1316.000000	42.298415
1317.000000	42.297495
1318.000000	42.293831
1319.000000	42.286816
1320.000000	42.276897
1321.000000	42.264206
1322.000000	42.248111
1323.000000	42.228475
1324.000000	42.205718
1325.000000	42.180103
1326.000000	42.151434
1327.000000	42.119377
1328.000000	42.084224
1329.000000	42.045875
1330.000000	42.004118
1331.000000	41.958821
1332.000000	41.909692
1333.000000	41.856829
1334.000000	41.800232
1335.000000	41.739394
1336.000000	41.674167
1337.000000	41.604657
1338.000000	41.530654
1339.000000	41.452103
1340.000000	41.369149
1341.000000	41.281299
1342.000000	41.188329
1343.000000	41.090417
1344.000000	40.988130
1345.000000	40.880042
1346.000000	40.765955
1347.000000	40.646448
1348.000000	40.520894
1349.000000	40.388070
1350.000000	40.248201
1351.000000	40.100490
1352.000000	39.943832
1353.000000	39.777651
1354.000000	39.604203
1355.000000	39.423751
1356.000000	39.237599
1357.000000	39.048065
1358.000000	38.857220
1359.000000	38.666243
1360.000000	38.475609
1361.000000	38.286771
1362.000000	38.098924
1363.000000	37.910223
1364.000000	37.720594
1365.000000	37.529677
1366.000000	37.337142
1367.000000	37.142318
1368.000000	36.945081
1369.000000	36.744232
1370.000000	36.538523
1371.000000	36.327490
1372.000000	36.109688
1373.000000	35.883782
1374.000000	35.649284
1375.000000	35.407869
1376.000000	35.160165
1377.000000	34.908170
1378.000000	34.652916
1379.000000	34.395146
1380.000000	34.136410
1381.000000	33.879038
1382.000000	33.622342
1383.000000	33.366579
1384.000000	33.112883
1385.000000	32.861048
1386.000000	32.613513
1387.000000	32.372797
1388.000000	32.141900
1389.000000	31.918229
1390.000000	31.701355
1391.000000	31.491939
1392.000000	31.288942
1393.000000	31.089861
1394.000000	30.893457
1395.000000	30.700330
1396.000000	30.508828
1397.000000	30.317617
1398.000000	30.126890
1399.000000	29.938261
1400.000000	29.752388
1401.000000	29.568669
1402.000000	29.385354
1403.000000	29.202013
1404.000000	29.020789
1405.000000	28.844400
1406.000000	28.671950
1407.000000	28.505336
1408.000000	28.346092
1409.000000	28.195667
1410.000000	28.051297
1411.000000	27.914010
1412.000000	27.782210
1413.000000	27.656446
1414.000000	27.536148
1415.000000	27.420003
1416.000000	27.304690
1417.000000	27.191014
1418.000000	27.080972
1419.000000	26.973746
1420.000000	26.869366
1421.000000	26.765499
1422.000000	26.660650
1423.000000	26.553731
1424.000000	26.445131
1425.000000	26.333910
1426.000000	26.218524
1427.000000	26.098828
1428.000000	25.975229
1429.000000	25.848089
1430.000000	25.716106
1431.000000	25.580664
1432.000000	25.444131
1433.000000	25.308015
1434.000000	25.171401
1435.000000	25.033552
1436.000000	24.895806
1437.000000	24.761062
1438.000000	24.630198
1439.000000	24.502130
1440.000000	24.375346
1441.000000	24.251835
1442.000000	24.131168
1443.000000	24.013218
1444.000000	23.897100
1445.000000	23.784586
1446.000000	23.674694
1447.000000	23.566312
1448.000000	23.458054
1449.000000	23.350192
1450.000000	23.243937
1451.000000	23.140244
1452.000000	23.038824
1453.000000	22.937470
1454.000000	22.837474
1455.000000	22.739628
1456.000000	22.644495
1457.000000	22.551910
1458.000000	22.460858
1459.000000	22.371457
1460.000000	22.284878
1461.000000	22.200921
1462.000000	22.119016
1463.000000	22.038943
1464.000000	21.960818
1465.000000	21.885129
1466.000000	21.811060
1467.000000	21.738234
1468.000000	21.666705
1469.000000	21.596270
1470.000000	21.528000
1471.000000	21.461645
1472.000000	21.397369
1473.000000	21.334171
1474.000000	21.272157
1475.000000	21.211831
1476.000000	21.153158
1477.000000	21.096297
1478.000000	21.041520
1479.000000	20.988623
1480.000000	20.936928
1481.000000	20.886466
1482.000000	20.838590
1483.000000	20.793140
1484.000000	20.749061
1485.000000	20.706719
1486.000000	20.666585
1487.000000	20.628242
1488.000000	20.592250
1489.000000	20.557989
1490.000000	20.525093
1491.000000	20.494328
1492.000000	20.465848
1493.000000	20.438812
1494.000000	20.413565
1495.000000	20.389705
1496.000000	20.367828
1497.000000	20.347320
1498.000000	20.328514
1499.000000	20.311413
1500.000000	20.295404
1501.000000	20.280829
1502.000000	20.268257
1503.000000	20.257387
1504.000000	20.248474
1505.000000	20.240874
1506.000000	20.234518
1507.000000	20.229127
1508.000000	20.225802
1509.000000	20.224403
1510.000000	20.224765
1511.000000	20.226659
1512.000000	20.230055
1513.000000	20.234745
1514.000000	20.240938
1515.000000	20.248681
1516.000000	20.257768
1517.000000	20.267962
1518.000000	20.279258
1519.000000	20.292158
1520.000000	20.305955
1521.000000	20.320261
1522.000000	20.335539
1523.000000	20.351612
1524.000000	20.368788
1525.000000	20.386671
1526.000000	20.404837
1527.000000	20.423213
1528.000000	20.442579
1529.000000	20.462773
1530.000000	20.483490
1531.000000	20.504247
1532.000000	20.525252
1533.000000	20.546613
1534.000000	20.567824
1535.000000	20.589027
1536.000000	20.609937
1537.000000	20.630435
1538.000000	20.650696
1539.000000	20.670335
1540.000000	20.689298
1541.000000	20.707749
1542.000000	20.725550
1543.000000	20.742596
1544.000000	20.759281
1545.000000	20.775485
1546.000000	20.790892
1547.000000	20.805913
1548.000000	20.820866
1549.000000	20.835403
1550.000000	20.849303
1551.000000	20.862990
1552.000000	20.876340
1553.000000	20.889291
1554.000000	20.901605
1555.000000	20.913338
1556.000000	20.924380
1557.000000	20.934434
1558.000000	20.943601
1559.000000	20.951989
1560.000000	20.959767
1561.000000	20.966484
1562.000000	20.972263
1563.000000	20.977289
1564.000000	20.981239
1565.000000	20.984062
1566.000000	20.985994
1567.000000	20.986999
1568.000000	20.986778
1569.000000	20.985825
1570.000000	20.984201
1571.000000	20.981864
1572.000000	20.978899
1573.000000	20.975537
1574.000000	20.971767
1575.000000	20.967822
1576.000000	20.963888
1577.000000	20.959820
1578.000000	20.955349
1579.000000	20.950870
1580.000000	20.946472
1581.000000	20.942422
1582.000000	20.938389
1583.000000	20.934155
1584.000000	20.930273
1585.000000	20.926898
1586.000000	20.923728
1587.000000	20.920953
1588.000000	20.918627
1589.000000	20.916840
1590.000000	20.915824
1591.000000	20.915822
1592.000000	20.916879
1593.000000	20.919160
1594.000000	20.922583
1595.000000	20.927284
1596.000000	20.933652
1597.000000	20.941693
1598.000000	20.951378
1599.000000	20.962587
1600.000000	20.975787
1601.000000	20.990978
1602.000000	21.008178
1603.000000	21.027445
1604.000000	21.048493
1605.000000	21.071563
1606.000000	21.096345
1607.000000	21.122806
1608.000000	21.150841
1609.000000	21.180498
1610.000000	21.211671
1611.000000	21.244224
1612.000000	21.278227
1613.000000	21.313610
1614.000000	21.350151
1615.000000	21.388150
1616.000000	21.426910
1617.000000	21.466831
1618.000000	21.507924
1619.000000	21.549689
1620.000000	21.592573
1621.000000	21.636239
1622.000000	21.680700
1623.000000	21.725959
1624.000000	21.772011
1625.000000	21.818882
1626.000000	21.866390
1627.000000	21.914676
1628.000000	21.963756
1629.000000	22.013201
1630.000000	22.063177
1631.000000	22.114012
1632.000000	22.165199
1633.000000	22.216036
1634.000000	22.267438
1635.000000	22.319240
1636.000000	22.370778
1637.000000	22.422389
1638.000000	22.474260
1639.000000	22.525896
1640.000000	22.577239
1641.000000	22.628141
1642.000000	22.678711
1643.000000	22.729085
1644.000000	22.779103
1645.000000	22.828950
1646.000000	22.878509
1647.000000	22.927795
1648.000000	22.976559
1649.000000	23.024668
1650.000000	23.071919
1651.000000	23.118705
1652.000000	23.164490
1653.000000	23.208923
1654.000000	23.252210
1655.000000	23.293517
1656.000000	23.333684
1657.000000	23.371809
1658.000000	23.407921
1659.000000	23.441812
1660.000000	23.472959
1661.000000	23.501679
1662.000000	23.527632
1663.000000	23.550430
1664.000000	23.570010
1665.000000	23.585789
1666.000000	23.597282
1667.000000	23.604984
1668.000000	23.608742
1669.000000	23.607045
1670.000000	23.599919
1671.000000	23.587048
1672.000000	23.568194
1673.000000	23.542103
1674.000000	23.508601
1675.000000	23.466760
1676.000000	23.415633
1677.000000	23.353926
1678.000000	23.280102
1679.000000	23.194140
1680.000000	23.096041
1681.000000	22.985942
1682.000000	22.865683
1683.000000	22.738315
1684.000000	22.606305
1685.000000	22.471516
1686.000000	22.335568
1687.000000	22.198928
1688.000000	22.061309
1689.000000	21.922328
1690.000000	21.781106
1691.000000	21.636785
1692.000000	21.490066
1693.000000	21.340874
1694.000000	21.190568
1695.000000	21.040751
1696.000000	20.892046
1697.000000	20.746373
1698.000000	20.604806
1699.000000	20.467838
1700.000000	20.337037
1701.000000	20.211490
1702.000000	20.091158
1703.000000	19.975733
1704.000000	19.865707
1705.000000	19.761009
1706.000000	19.661685
1707.000000	19.567599
1708.000000	19.479477
1709.000000	19.398077
1710.000000	19.324025
1711.000000	19.257590
1712.000000	19.200244
1713.000000	19.152376
1714.000000	19.114552
1715.000000	19.085997
1716.000000	19.067010
1717.000000	19.055695
1718.000000	19.049475
1719.000000	19.046599
1720.000000	19.045144
1721.000000	19.043673
1722.000000	19.041772
1723.000000	19.040123
1724.000000	19.038935
1725.000000	19.039375
1726.000000	19.041685
1727.000000	19.044868
1728.000000	19.049250
1729.000000	19.053204
1730.000000	19.055184
1731.000000	19.055450
1732.000000	19.052524
1733.000000	19.045954
1734.000000	19.037290
1735.000000	19.025651
1736.000000	19.013153
1737.000000	19.000513
1738.000000	18.989781
1739.000000	18.982172
1740.000000	18.977785
1741.000000	18.977330
1742.000000	18.981164
1743.000000	18.989221
1744.000000	19.000850
1745.000000	19.015765
1746.000000	19.034453
1747.000000	19.056110
1748.000000	19.081442
1749.000000	19.109657
1750.000000	19.141087
1751.000000	19.175010
1752.000000	19.211194
1753.000000	19.248851
1754.000000	19.287360
1755.000000	19.326205
1756.000000	19.365070
1757.000000	19.403771
1758.000000	19.441770
1759.000000	19.479249
1760.000000	19.516696
1761.000000	19.553940
1762.000000	19.592497
1763.000000	19.632607
1764.000000	19.675528
1765.000000	19.722051
1766.000000	19.771635
1767.000000	19.824724
1768.000000	19.881389
1769.000000	19.940011
1770.000000	20.000292
1771.000000	20.061398
1772.000000	20.122630
1773.000000	20.182482
1774.000000	20.240141
1775.000000	20.295783
1776.000000	20.349247
1777.000000	20.400176
1778.000000	20.448732
1779.000000	20.495005
1780.000000	20.539670
1781.000000	20.583019
1782.000000	20.625502
1783.000000	20.667530
1784.000000	20.709302
1785.000000	20.751443
1786.000000	20.793953
1787.000000	20.836960
1788.000000	20.881244
1789.000000	20.926469
1790.000000	20.972998
1791.000000	21.021111
1792.000000	21.071038
1793.000000	21.123354
1794.000000	21.178243
1795.000000	21.235231
1796.000000	21.294112
1797.000000	21.354511
1798.000000	21.415953
1799.000000	21.477693
1800.000000	21.539372
1801.000000	21.600783
1802.000000	21.661161
1803.000000	21.719570
1804.000000	21.775884
1805.000000	21.830503
1806.000000	21.883606
1807.000000	21.934986
1808.000000	21.984305
1809.000000	22.031435
1810.000000	22.076417
1811.000000	22.119812
1812.000000	22.161608
1813.000000	22.201450
1814.000000	22.239790
1815.000000	22.276687
1816.000000	22.311949
1817.000000	22.345390
1818.000000	22.376834
1819.000000	22.406776
1820.000000	22.435924
1821.000000	22.465449
1822.000000	22.494534
1823.000000	22.521448
1824.000000	22.546675
1825.000000	22.571284
1826.000000	22.595971
1827.000000	22.621257
1828.000000	22.647314
1829.000000	22.673995
1830.000000	22.701192
1831.000000	22.729350
1832.000000	22.757875
1833.000000	22.786753
1834.000000	22.816134
1835.000000	22.845987
1836.000000	22.876233
1837.000000	22.907211
1838.000000	22.938964
1839.000000	22.971051
1840.000000	23.003298
1841.000000	23.035527
1842.000000	23.067848
1843.000000	23.099932
1844.000000	23.130907
1845.000000	23.161081
1846.000000	23.190898
1847.000000	23.222297
1848.000000	23.256596
1849.000000	23.292950
1850.000000	23.329218
1851.000000	23.365176
1852.000000	23.401370
1853.000000	23.438927
1854.000000	23.477641
1855.000000	23.516273
1856.000000	23.553706
1857.000000	23.590299
1858.000000	23.627477
1859.000000	23.665502
1860.000000	23.702931
1861.000000	23.738435
1862.000000	23.771176
1863.000000	23.800379
1864.000000	23.825925
1865.000000	23.848082
1866.000000	23.866520
1867.000000	23.881797
1868.000000	23.893696
1869.000000	23.901144
1870.000000	23.903904
1871.000000	23.902075
1872.000000	23.893834
1873.000000	23.878768
1874.000000	23.857187
1875.000000	23.827825
1876.000000	23.789726
1877.000000	23.742263
1878.000000	23.686070
1879.000000	23.621886
1880.000000	23.548643
1881.000000	23.464994
1882.000000	23.368827
1883.000000	23.260229
1884.000000	23.140208
1885.000000	23.010709
1886.000000	22.873519
1887.000000	22.728690
1888.000000	22.575570
1889.000000	22.413785
1890.000000	22.245040
1891.000000	22.069351
1892.000000	21.886761
1893.000000	21.697787
1894.000000	21.502027
1895.000000	21.300345
1896.000000	21.093495
1897.000000	20.881621
1898.000000	20.664781
1899.000000	20.443655
1900.000000	20.217682
1901.000000	19.987615
1902.000000	19.753695
1903.000000	19.516175
1904.000000	19.276188
1905.000000	19.033702
1906.000000	18.788372
1907.000000	18.541783
1908.000000	18.295363
1909.000000	18.049589
1910.000000	17.806021
1911.000000	17.564772
1912.000000	17.327102
1913.000000	17.093436
1914.000000	16.863817
1915.000000	16.638852
1916.000000	16.419778
1917.000000	16.207128
1918.000000	15.999273
1919.000000	15.797067
1920.000000	15.601124
1921.000000	15.409590
1922.000000	15.222184
1923.000000	15.039184
1924.000000	14.860986
1925.000000	14.686259
1926.000000	14.515059
1927.000000	14.348723
1928.000000	14.186858
1929.000000	14.029770
1930.000000	13.876960
1931.000000	13.728977
1932.000000	13.585770
1933.000000	13.447784
1934.000000	13.315130
1935.000000	13.188068
1936.000000	13.066787
1937.000000	12.951262
1938.000000	12.841378
1939.000000	12.737241
1940.000000	12.638730
1941.000000	12.546368
1942.000000	12.460265
1943.000000	12.379808
1944.000000	12.304921
1945.000000	12.235523
1946.000000	12.172075
1947.000000	12.114432
1948.000000	12.061998
1949.000000	12.015779
1950.000000	11.975078
1951.000000	11.939611
1952.000000	11.908870
1953.000000	11.884321
1954.000000	11.864766
1955.000000	11.849779
1956.000000	11.840054
1957.000000	11.835093
1958.000000	11.834514
1959.000000	11.837917
1960.000000	11.845494
1961.000000	11.857110
1962.000000	11.872530
1963.000000	11.891447
1964.000000	11.913589
1965.000000	11.938935
1966.000000	11.967198
1967.000000	11.998168
1968.000000	12.032041
1969.000000	12.068092
1970.000000	12.106513
1971.000000	12.146611
1972.000000	12.188727
1973.000000	12.232699
1974.000000	12.278305
1975.000000	12.325548
1976.000000	12.374110
1977.000000	12.423801
1978.000000	12.475007
1979.000000	12.527359
1980.000000	12.580391
1981.000000	12.634557
1982.000000	12.688770
1983.000000	12.743736
1984.000000	12.799112
1985.000000	12.855222
1986.000000	12.911320
1987.000000	12.967990
1988.000000	13.024785
1989.000000	13.081650
1990.000000	13.138197
1991.000000	13.194350
1992.000000	13.250518
1993.000000	13.306134
1994.000000	13.361740
1995.000000	13.416682
1996.000000	13.471470
1997.000000	13.525761
1998.000000	13.579331
1999.000000	13.632012
2000.000000	13.684110
2001.000000	13.734990
2002.000000	13.784976
2003.000000	13.833708
2004.000000	13.881493
2005.000000	13.928059
2006.000000	13.973453
2007.000000	14.017228
2008.000000	14.059336
2009.000000	14.099392
2010.000000	14.137583
2011.000000	14.173883
2012.000000	14.208186
2013.000000	14.240103
2014.000000	14.269647
2015.000000	14.296579
2016.000000	14.320694
2017.000000	14.342743
2018.000000	14.362099
2019.000000	14.378484
2020.000000	14.392055
2021.000000	14.403012
2022.000000	14.410733
2023.000000	14.415566
2024.000000	14.417870
2025.000000	14.417158
2026.000000	14.413637
2027.000000	14.406913
2028.000000	14.397589
2029.000000	14.384947
2030.000000	14.369819
2031.000000	14.351407
2032.000000	14.329677
2033.000000	14.305118
2034.000000	14.277370
2035.000000	14.246314
2036.000000	14.212423
2037.000000	14.175697
2038.000000	14.136085
2039.000000	14.093274
2040.000000	14.047273
2041.000000	13.998392
2042.000000	13.946727
2043.000000	13.892231
2044.000000	13.835345
2045.000000	13.775699
2046.000000	13.713377
2047.000000	13.648929
2048.000000	13.582861
2049.000000	13.515432
2050.000000	13.447005
2051.000000	13.377375
2052.000000	13.307183
2053.000000	13.236728
2054.000000	13.166255
2055.000000	13.096589
2056.000000	13.027625
2057.000000	12.959857
2058.000000	12.893191
2059.000000	12.827526
2060.000000	12.763789
2061.000000	12.702118
2062.000000	12.642718
2063.000000	12.585204
2064.000000	12.530186
2065.000000	12.477775
2066.000000	12.428313
2067.000000	12.381514
2068.000000	12.337481
2069.000000	12.296577
2070.000000	12.259201
2071.000000	12.224855
2072.000000	12.193594
2073.000000	12.165530
2074.000000	12.140728
2075.000000	12.119599
2076.000000	12.101810
2077.000000	12.087455
2078.000000	12.076865
2079.000000	12.069117
2080.000000	12.064972
2081.000000	12.064412
2082.000000	12.066502
2083.000000	12.071053
2084.000000	12.078121
2085.000000	12.087818
2086.000000	12.099942
2087.000000	12.113272
2088.000000	12.128181
2089.000000	12.144548
2090.000000	12.161543
2091.000000	12.178977
2092.000000	12.197233
2093.000000	12.216046
2094.000000	12.234999
2095.000000	12.253945
2096.000000	12.272785
2097.000000	12.291447
2098.000000	12.309853
2099.000000	12.328174
2100.000000	12.346090
2101.000000	12.363738
2102.000000	12.381095
2103.000000	12.398137
2104.000000	12.415034
2105.000000	12.431350
2106.000000	12.447262
2107.000000	12.462789
2108.000000	12.477962
2109.000000	12.493028
2110.000000	12.507741
2111.000000	12.522273
2112.000000	12.536396
2113.000000	12.550102
2114.000000	12.563980
2115.000000	12.577588
2116.000000	12.590890
2117.000000	12.604327
2118.000000	12.617439
2119.000000	12.630230
2120.000000	12.642339
2121.000000	12.654328
2122.000000	12.666462
2123.000000	12.678330
2124.000000	12.689751
2125.000000	12.700896
2126.000000	12.711888
2127.000000	12.722241
2128.000000	12.731970
2129.000000	12.741209
2130.000000	12.749340
2131.000000	12.756377
2132.000000	12.762750
2133.000000	12.768258
2134.000000	12.772434
2135.000000	12.775334
2136.000000	12.776690
2137.000000	12.776550
2138.000000	12.775167
2139.000000	12.772136
2140.000000	12.767548
2141.000000	12.761421
2142.000000	12.753509
2143.000000	12.744170
2144.000000	12.732989
2145.000000	12.719894
2146.000000	12.705090
2147.000000	12.688315
2148.000000	12.669461
2149.000000	12.648870
2150.000000	12.626710
2151.000000	12.602606
2152.000000	12.576620
2153.000000	12.549333
2154.000000	12.520305
2155.000000	12.489730
2156.000000	12.457707
2157.000000	12.424070
2158.000000	12.389346
2159.000000	12.353407
2160.000000	12.316479
2161.000000	12.278498
2162.000000	12.239690
2163.000000	12.200197
2164.000000	12.160298
2165.000000	12.120015
2166.000000	12.079142
2167.000000	12.038082
2168.000000	11.996913
2169.000000	11.955530
2170.000000	11.913946
2171.000000	11.872593
2172.000000	11.831428
2173.000000	11.790232
2174.000000	11.749694
2175.000000	11.709124
2176.000000	11.668870
2177.000000	11.629368
2178.000000	11.590389
2179.000000	11.551917
2180.000000	11.514276
2181.000000	11.477044
2182.000000	11.439876
2183.000000	11.403026
2184.000000	11.366485
2185.000000	11.329975
2186.000000	11.293142
2187.000000	11.256180
2188.000000	11.218125
2189.000000	11.179534
2190.000000	11.139920
2191.000000	11.098987
2192.000000	11.056258
2193.000000	11.011555
2194.000000	10.964778
2195.000000	10.915314
2196.000000	10.863130
2197.000000	10.808603
2198.000000	10.750309
2199.000000	10.688917
2200.000000	10.625054
2201.000000	10.559018
2202.000000	10.489944
2203.000000	10.418589
2204.000000	10.345191
2205.000000	10.270070
2206.000000	10.193459
2207.000000	10.116342
2208.000000	10.038721
2209.000000	9.960544
2210.000000	9.882874
2211.000000	9.806641
2212.000000	9.731134
2213.000000	9.656781
2214.000000	9.584288
2215.000000	9.513886
2216.000000	9.445116
2217.000000	9.379220
2218.000000	9.316248
2219.000000	9.256168
2220.000000	9.199239
2221.000000	9.146006
2222.000000	9.095882
2223.000000	9.049373
2224.000000	9.006740
2225.000000	8.967894
2226.000000	8.933243
2227.000000	8.902392
2228.000000	8.875787
2229.000000	8.853160
2230.000000	8.834545
2231.000000	8.820236
2232.000000	8.808985
2233.000000	8.802628
2234.000000	8.799397
2235.000000	8.799595
2236.000000	8.802567
2237.000000	8.808065
2238.000000	8.815813
2239.000000	8.825441
2240.000000	8.836293
2241.000000	8.848104
2242.000000	8.859470
2243.000000	8.870579
2244.000000	8.880854
2245.000000	8.890014
2246.000000	8.896407
2247.000000	8.900064
2248.000000	8.900652
2249.000000	8.897537
2250.000000	8.890586
2251.000000	8.879854
2252.000000	8.864648
2253.000000	8.844310
2254.000000	8.818890
2255.000000	8.788862
2256.000000	8.752648
2257.000000	8.711643
2258.000000	8.666426
2259.000000	8.615936
2260.000000	8.561309
2261.000000	8.501796
2262.000000	8.439430
2263.000000	8.373864
2264.000000	8.306090
2265.000000	8.236211
2266.000000	8.164601
2267.000000	8.092690
2268.000000	8.019994
2269.000000	7.947582
2270.000000	7.875402
2271.000000	7.804056
2272.000000	7.734926
2273.000000	7.667502
2274.000000	7.601997
2275.000000	7.539110
2276.000000	7.478661
2277.000000	7.421676
2278.000000	7.367684
2279.000000	7.317099
2280.000000	7.269583
2281.000000	7.225741
2282.000000	7.186088
2283.000000	7.150298
2284.000000	7.118644
2285.000000	7.090673
2286.000000	7.066656
2287.000000	7.046783
2288.000000	7.031072
2289.000000	7.018868
2290.000000	7.009505
2291.000000	7.004653
2292.000000	7.002949
2293.000000	7.003529
2294.000000	7.006809
2295.000000	7.012201
2296.000000	7.019584
2297.000000	7.027994
2298.000000	7.037562
2299.000000	7.047429
2300.000000	7.058010
2301.000000	7.068803
2302.000000	7.079649
2303.000000	7.090022
2304.000000	7.100464
2305.000000	7.110920
2306.000000	7.121050
2307.000000	7.130854
2308.000000	7.140990
2309.000000	7.151633
2310.000000	7.162315
2311.000000	7.174007
2312.000000	7.186172
2313.000000	7.199136
2314.000000	7.212799
2315.000000	7.227660
2316.000000	7.243360
2317.000000	7.259875
2318.000000	7.277641
2319.000000	7.296124
2320.000000	7.316014
2321.000000	7.336927
2322.000000	7.358720
2323.000000	7.381795
2324.000000	7.406502
2325.000000	7.432748
2326.000000	7.460270
2327.000000	7.489618
2328.000000	7.521172
2329.000000	7.554570
2330.000000	7.590205
2331.000000	7.628214
2332.000000	7.668051
2333.000000	7.710017
2334.000000	7.753910
2335.000000	7.799236
2336.000000	7.846124
2337.000000	7.893790
2338.000000	7.942313
2339.000000	7.990979
2340.000000	8.039465
2341.000000	8.087787
2342.000000	8.134541
2343.000000	8.179539
2344.000000	8.222657
2345.000000	8.263440
2346.000000	8.301213
2347.000000	8.336211
2348.000000	8.368291
2349.000000	8.397638
2350.000000	8.424214
2351.000000	8.448497
2352.000000	8.470338
2353.000000	8.489670
2354.000000	8.507296
2355.000000	8.522865
2356.000000	8.537492
2357.000000	8.551281
2358.000000	8.564203
2359.000000	8.576320
2360.000000	8.588074
2361.000000	8.599870
2362.000000	8.611219
2363.000000	8.622179
2364.000000	8.633434
2365.000000	8.644492
2366.000000	8.655358
2367.000000	8.666377
2368.000000	8.677392
2369.000000	8.688856
2370.000000	8.700530
2371.000000	8.712248
2372.000000	8.724576
2373.000000	8.737702
2374.000000	8.751529
2375.000000	8.765734
2376.000000	8.780481
2377.000000	8.796439
2378.000000	8.813121
2379.000000	8.830783
2380.000000	8.849854
2381.000000	8.869720
2382.000000	8.890325
2383.000000	8.911949
2384.000000	8.934110
2385.000000	8.956264
2386.000000	8.977985
2387.000000	8.999566
2388.000000	9.020854
2389.000000	9.041282
2390.000000	9.060494
2391.000000	9.078075
2392.000000	9.093785
2393.000000	9.107822
2394.000000	9.120264
2395.000000	9.130489
2396.000000	9.138352
2397.000000	9.144399
2398.000000	9.148566
2399.000000	9.150557
2400.000000	9.150576
2401.000000	9.148999
2402.000000	9.145864
2403.000000	9.140624
2404.000000	9.133488
2405.000000	9.124887
2406.000000	9.115072
2407.000000	9.103536
2408.000000	9.090570
2409.000000	9.076053
2410.000000	9.060594
2411.000000	9.043782
2412.000000	9.025927
2413.000000	9.007320
2414.000000	8.987334
2415.000000	8.965692
2416.000000	8.943517
2417.000000	8.920758
2418.000000	8.896421
2419.000000	8.870697
2420.000000	8.844072
2421.000000	8.816029
2422.000000	8.787100
2423.000000	8.757518
2424.000000	8.726807
2425.000000	8.695342
2426.000000	8.663103
2427.000000	8.629913
2428.000000	8.596125
2429.000000	8.561522
2430.000000	8.526787
2431.000000	8.491205
2432.000000	8.454826
2433.000000	8.417911
2434.000000	8.380183
2435.000000	8.341871
2436.000000	8.302586
2437.000000	8.262485
2438.000000	8.221902
2439.000000	8.180365
2440.000000	8.138112
2441.000000	8.095079
2442.000000	8.051064
2443.000000	8.006135
2444.000000	7.960707
2445.000000	7.914093
2446.000000	7.866574
2447.000000	7.818279
2448.000000	7.768696
2449.000000	7.718124
2450.000000	7.667369
2451.000000	7.615756
2452.000000	7.562861
2453.000000	7.510018
2454.000000	7.456500
2455.000000	7.403084
2456.000000	7.349793
2457.000000	7.296262
2458.000000	7.242546
2459.000000	7.189214
2460.000000	7.136014
2461.000000	7.083039
2462.000000	7.030940
2463.000000	6.979033
2464.000000	6.927339
2465.000000	6.876204
2466.000000	6.825726
2467.000000	6.777266
2468.000000	6.729053
2469.000000	6.681730
2470.000000	6.635727
2471.000000	6.591536
2472.000000	6.548609
2473.000000	6.506429
2474.000000	6.466178
2475.000000	6.427617
2476.000000	6.390053
2477.000000	6.352907
2478.000000	6.317879
2479.000000	6.283896
2480.000000	6.252390
2481.000000	6.221964
2482.000000	6.192522
2483.000000	6.164169
2484.000000	6.138630
2485.000000	6.115026
2486.000000	6.091592
2487.000000	6.071590
2488.000000	6.052349
2489.000000	6.035380
2490.000000	6.018840
2491.000000	6.003841
2492.000000	5.990119
2493.000000	5.978671
2494.000000	5.967370
2495.000000	5.958836
2496.000000	5.949507
2497.000000	5.942860
2498.000000	5.936696
2499.000000	5.932885
2500.000000	5.929747
