PE UV       SUBTECH     SPECTRUM    ASCII       PEDS        4.00        
   -1
CICIMAUCR0097-1.ASC
24/04/03
15:09:17.00
24/04/03
15:09:17.00
Vinicio Soto Monge
C. kalinini
250,000000
1
Lambda 1050
1050L1511233
PerkinElmer UV WinLab 6.3.2.0749 / 2.02.05 Lambda 900 UV/VIS/NIR, Aug  7 2015 09:38:08

0
0
3350/servo 860,8/2
0
0
UV/VIS
1
1
1
DoubleDePol,CommonBeamDepol,RBeamAtt,SBeamAtt,60mm sphere, WB InGaAs Detector
0
0
0
0
Program
Program
3350/servo 860,8/2
3350/0,2 860,8/0,2
3350/0,2 860,8/0,2
0
15.00
 
 
 
0
 
860,8
319,2
860,8
Front
100
on
S:100 R:100
0
0
0
0
 
0
 
 
 
0
 
 
0
0
0
0
0
 
 
 
 
0
0


0
0
#HDR
-1
-1
#GR
nm
%R
1.0
0.0
2500,000000
-1,000000
2251
8
71,118700
4,659200
#DATA
250.000000	nan
251.000000	nan
252.000000	nan
253.000000	nan
254.000000	nan
255.000000	nan
256.000000	nan
257.000000	nan
258.000000	nan
259.000000	nan
260.000000	nan
261.000000	nan
262.000000	nan
263.000000	nan
264.000000	nan
265.000000	nan
266.000000	nan
267.000000	nan
268.000000	nan
269.000000	nan
270.000000	nan
271.000000	nan
272.000000	nan
273.000000	nan
274.000000	nan
275.000000	nan
276.000000	nan
277.000000	nan
278.000000	nan
279.000000	nan
280.000000	nan
281.000000	nan
282.000000	nan
283.000000	nan
284.000000	5.459483
285.000000	5.441320
286.000000	5.423178
287.000000	5.407411
288.000000	5.391002
289.000000	5.377103
290.000000	5.361871
291.000000	5.346959
292.000000	5.330613
293.000000	5.316088
294.000000	5.302125
295.000000	5.289561
296.000000	5.276643
297.000000	5.263759
298.000000	5.251680
299.000000	5.240914
300.000000	5.230022
301.000000	5.220745
302.000000	5.213226
303.000000	5.202827
304.000000	5.195490
305.000000	5.187438
306.000000	5.180520
307.000000	5.172791
308.000000	5.165769
309.000000	5.159998
310.000000	5.155455
311.000000	5.151453
312.000000	5.147594
313.000000	5.143707
314.000000	5.138031
315.000000	5.132983
316.000000	5.130293
317.000000	5.133038
318.000000	5.139446
319.000000	5.152258
320.000000	5.153734
321.000000	5.156627
322.000000	5.163441
323.000000	5.167203
324.000000	5.172595
325.000000	5.185331
326.000000	5.191350
327.000000	5.202041
328.000000	5.201238
329.000000	5.196941
330.000000	5.196061
331.000000	5.200171
332.000000	5.205707
333.000000	5.209422
334.000000	5.214048
335.000000	5.218133
336.000000	5.221247
337.000000	5.222196
338.000000	5.226091
339.000000	5.231845
340.000000	5.235434
341.000000	5.239632
342.000000	5.242735
343.000000	5.249879
344.000000	5.254028
345.000000	5.256689
346.000000	5.260670
347.000000	5.261597
348.000000	5.265858
349.000000	5.269565
350.000000	5.274486
351.000000	5.278450
352.000000	5.274395
353.000000	5.270208
354.000000	5.259550
355.000000	5.263100
356.000000	5.266989
357.000000	5.264154
358.000000	5.262995
359.000000	5.259509
360.000000	5.251024
361.000000	5.248610
362.000000	5.243022
363.000000	5.250436
364.000000	5.259903
365.000000	5.265193
366.000000	5.268280
367.000000	5.268857
368.000000	5.269786
369.000000	5.270815
370.000000	5.274398
371.000000	5.278756
372.000000	5.284336
373.000000	5.286378
374.000000	5.285263
375.000000	5.290419
376.000000	5.299560
377.000000	5.305678
378.000000	5.308375
379.000000	5.312496
380.000000	5.318170
381.000000	5.323174
382.000000	5.332130
383.000000	5.340083
384.000000	5.349853
385.000000	5.359364
386.000000	5.368896
387.000000	5.381364
388.000000	5.392847
389.000000	5.404661
390.000000	5.415422
391.000000	5.426541
392.000000	5.440834
393.000000	5.458838
394.000000	5.477327
395.000000	5.496854
396.000000	5.518664
397.000000	5.541691
398.000000	5.564298
399.000000	5.591007
400.000000	5.619694
401.000000	5.650174
402.000000	5.684805
403.000000	5.723579
404.000000	5.765286
405.000000	5.807577
406.000000	5.852836
407.000000	5.903661
408.000000	5.961228
409.000000	6.023007
410.000000	6.084819
411.000000	6.148829
412.000000	6.222938
413.000000	6.301912
414.000000	6.385940
415.000000	6.475616
416.000000	6.571025
417.000000	6.672323
418.000000	6.779730
419.000000	6.893570
420.000000	7.013799
421.000000	7.141041
422.000000	7.275580
423.000000	7.416948
424.000000	7.565375
425.000000	7.720745
426.000000	7.882892
427.000000	8.052307
428.000000	8.229148
429.000000	8.412706
430.000000	8.602935
431.000000	8.800221
432.000000	9.004513
433.000000	9.214782
434.000000	9.430960
435.000000	9.653487
436.000000	9.881090
437.000000	10.113603
438.000000	10.350380
439.000000	10.591363
440.000000	10.836219
441.000000	11.084741
442.000000	11.336546
443.000000	11.590540
444.000000	11.846987
445.000000	12.104830
446.000000	12.363108
447.000000	12.621850
448.000000	12.879905
449.000000	13.137143
450.000000	13.393750
451.000000	13.648139
452.000000	13.899425
453.000000	14.147834
454.000000	14.392903
455.000000	14.634736
456.000000	14.872142
457.000000	15.103981
458.000000	15.330514
459.000000	15.551507
460.000000	15.766549
461.000000	15.975152
462.000000	16.176815
463.000000	16.371671
464.000000	16.560069
465.000000	16.740997
466.000000	16.913593
467.000000	17.078366
468.000000	17.235424
469.000000	17.384300
470.000000	17.524717
471.000000	17.657201
472.000000	17.781346
473.000000	17.897216
474.000000	18.005123
475.000000	18.104592
476.000000	18.195220
477.000000	18.277758
478.000000	18.352970
479.000000	18.420553
480.000000	18.480657
481.000000	18.533552
482.000000	18.578893
483.000000	18.617913
484.000000	18.650539
485.000000	18.676277
486.000000	18.696896
487.000000	18.713076
488.000000	18.724463
489.000000	18.731949
490.000000	18.735954
491.000000	18.737217
492.000000	18.736842
493.000000	18.735924
494.000000	18.735038
495.000000	18.734611
496.000000	18.735551
497.000000	18.739143
498.000000	18.745388
499.000000	18.754954
500.000000	18.769896
501.000000	18.790801
502.000000	18.818318
503.000000	18.852704
504.000000	18.894584
505.000000	18.945244
506.000000	19.005550
507.000000	19.075667
508.000000	19.155698
509.000000	19.245631
510.000000	19.346612
511.000000	19.459053
512.000000	19.582393
513.000000	19.716482
514.000000	19.861685
515.000000	20.017807
516.000000	20.184917
517.000000	20.362996
518.000000	20.552078
519.000000	20.751358
520.000000	20.960436
521.000000	21.179162
522.000000	21.407364
523.000000	21.644433
524.000000	21.890343
525.000000	22.144986
526.000000	22.408091
527.000000	22.679165
528.000000	22.957505
529.000000	23.243028
530.000000	23.536437
531.000000	23.837279
532.000000	24.145012
533.000000	24.460728
534.000000	24.784354
535.000000	25.115720
536.000000	25.455224
537.000000	25.802600
538.000000	26.158629
539.000000	26.524055
540.000000	26.898273
541.000000	27.280793
542.000000	27.672622
543.000000	28.074415
544.000000	28.486604
545.000000	28.907595
546.000000	29.337476
547.000000	29.775546
548.000000	30.222656
549.000000	30.677867
550.000000	31.141433
551.000000	31.613875
552.000000	32.095459
553.000000	32.584623
554.000000	33.081567
555.000000	33.585825
556.000000	34.098235
557.000000	34.617239
558.000000	35.143213
559.000000	35.674844
560.000000	36.210596
561.000000	36.751241
562.000000	37.296730
563.000000	37.845287
564.000000	38.396491
565.000000	38.947814
566.000000	39.499363
567.000000	40.050529
568.000000	40.598834
569.000000	41.143035
570.000000	41.682189
571.000000	42.215511
572.000000	42.740246
573.000000	43.256383
574.000000	43.762447
575.000000	44.257321
576.000000	44.740647
577.000000	45.211956
578.000000	45.669456
579.000000	46.113808
580.000000	46.544456
581.000000	46.963047
582.000000	47.367843
583.000000	47.760230
584.000000	48.138248
585.000000	48.504475
586.000000	48.856460
587.000000	49.195086
588.000000	49.520556
589.000000	49.833571
590.000000	50.134959
591.000000	50.423646
592.000000	50.700595
593.000000	50.964495
594.000000	51.216885
595.000000	51.456685
596.000000	51.684141
597.000000	51.897632
598.000000	52.098542
599.000000	52.285650
600.000000	52.462193
601.000000	52.625465
602.000000	52.777254
603.000000	52.917586
604.000000	53.046861
605.000000	53.164453
606.000000	53.270376
607.000000	53.365854
608.000000	53.451763
609.000000	53.526892
610.000000	53.591355
611.000000	53.646086
612.000000	53.689927
613.000000	53.725628
614.000000	53.750688
615.000000	53.766582
616.000000	53.772247
617.000000	53.768104
618.000000	53.753237
619.000000	53.729482
620.000000	53.694423
621.000000	53.649200
622.000000	53.591123
623.000000	53.521405
624.000000	53.438958
625.000000	53.342557
626.000000	53.232537
627.000000	53.107926
628.000000	52.968714
629.000000	52.813673
630.000000	52.644470
631.000000	52.458943
632.000000	52.259120
633.000000	52.044004
634.000000	51.813643
635.000000	51.568221
636.000000	51.309880
637.000000	51.038427
638.000000	50.755464
639.000000	50.462969
640.000000	50.160634
641.000000	49.851119
642.000000	49.534551
643.000000	49.212252
644.000000	48.886460
645.000000	48.559606
646.000000	48.231605
647.000000	47.904398
648.000000	47.578146
649.000000	47.254936
650.000000	46.936178
651.000000	46.622533
652.000000	46.315783
653.000000	46.017243
654.000000	45.726077
655.000000	45.444618
656.000000	45.173568
657.000000	44.914672
658.000000	44.668428
659.000000	44.436898
660.000000	44.220717
661.000000	44.019159
662.000000	43.834898
663.000000	43.668343
664.000000	43.520479
665.000000	43.391261
666.000000	43.281807
667.000000	43.191998
668.000000	43.120526
669.000000	43.071080
670.000000	43.039734
671.000000	43.027087
672.000000	43.031337
673.000000	43.051460
674.000000	43.084229
675.000000	43.131104
676.000000	43.190293
677.000000	43.260330
678.000000	43.340234
679.000000	43.429288
680.000000	43.524583
681.000000	43.626019
682.000000	43.733658
683.000000	43.845951
684.000000	43.961346
685.000000	44.079112
686.000000	44.198714
687.000000	44.321858
688.000000	44.446019
689.000000	44.573977
690.000000	44.704629
691.000000	44.836746
692.000000	44.972128
693.000000	45.111864
694.000000	45.253544
695.000000	45.398942
696.000000	45.548334
697.000000	45.699324
698.000000	45.854818
699.000000	46.015718
700.000000	46.181636
701.000000	46.351407
702.000000	46.525520
703.000000	46.706291
704.000000	46.892080
705.000000	47.082726
706.000000	47.278489
707.000000	47.481167
708.000000	47.690626
709.000000	47.906930
710.000000	48.132428
711.000000	48.364671
712.000000	48.605599
713.000000	48.852695
714.000000	49.107625
715.000000	49.372247
716.000000	49.644552
717.000000	49.924566
718.000000	50.211642
719.000000	50.507185
720.000000	50.809564
721.000000	51.118897
722.000000	51.433870
723.000000	51.755064
724.000000	52.082177
725.000000	52.412986
726.000000	52.749525
727.000000	53.090065
728.000000	53.432537
729.000000	53.776873
730.000000	54.122544
731.000000	54.470411
732.000000	54.821414
733.000000	55.173587
734.000000	55.523492
735.000000	55.873202
736.000000	56.224884
737.000000	56.576907
738.000000	56.928641
739.000000	57.278141
740.000000	57.628047
741.000000	57.978002
742.000000	58.326834
743.000000	58.674359
744.000000	59.019699
745.000000	59.361533
746.000000	59.702987
747.000000	60.042328
748.000000	60.378086
749.000000	60.709813
750.000000	61.037762
751.000000	61.361725
752.000000	61.681374
753.000000	61.997109
754.000000	62.306828
755.000000	62.610228
756.000000	62.907117
757.000000	63.198667
758.000000	63.482339
759.000000	63.755942
760.000000	64.023566
761.000000	64.284826
762.000000	64.536261
763.000000	64.778991
764.000000	65.014386
765.000000	65.240687
766.000000	65.458128
767.000000	65.666916
768.000000	65.867586
769.000000	66.060714
770.000000	66.244920
771.000000	66.418520
772.000000	66.581183
773.000000	66.734726
774.000000	66.879258
775.000000	67.017256
776.000000	67.150046
777.000000	67.275463
778.000000	67.390061
779.000000	67.497345
780.000000	67.598529
781.000000	67.689326
782.000000	67.773064
783.000000	67.855095
784.000000	67.928599
785.000000	67.993051
786.000000	68.052761
787.000000	68.107774
788.000000	68.155471
789.000000	68.195955
790.000000	68.232446
791.000000	68.265684
792.000000	68.295882
793.000000	68.320283
794.000000	68.341274
795.000000	68.358271
796.000000	68.370689
797.000000	68.382323
798.000000	68.390168
799.000000	68.390372
800.000000	68.391329
801.000000	68.390505
802.000000	68.388571
803.000000	68.386844
804.000000	68.381507
805.000000	68.374912
806.000000	68.366744
807.000000	68.356304
808.000000	68.347943
809.000000	68.339693
810.000000	68.324630
811.000000	68.307307
812.000000	68.287684
813.000000	68.266710
814.000000	68.243840
815.000000	68.216866
816.000000	68.193594
817.000000	68.169092
818.000000	68.142868
819.000000	68.115434
820.000000	68.089359
821.000000	68.057621
822.000000	68.022419
823.000000	67.985355
824.000000	67.950925
825.000000	67.910309
826.000000	67.866238
827.000000	67.824913
828.000000	67.782401
829.000000	67.733948
830.000000	67.676905
831.000000	67.619005
832.000000	67.554683
833.000000	67.488786
834.000000	67.427567
835.000000	67.360064
836.000000	67.288013
837.000000	67.213993
838.000000	67.127207
839.000000	67.041502
840.000000	66.947605
841.000000	66.851672
842.000000	66.748717
843.000000	66.637075
844.000000	66.522615
845.000000	66.405749
846.000000	66.284423
847.000000	66.165002
848.000000	66.032822
849.000000	65.899020
850.000000	65.768641
851.000000	65.622633
852.000000	65.461959
853.000000	65.292985
854.000000	65.121493
855.000000	64.948823
856.000000	64.758918
857.000000	64.572881
858.000000	64.374644
859.000000	64.228794
860.000000	64.083959
861.000000	63.935964
862.000000	63.778355
863.000000	63.618039
864.000000	63.459337
865.000000	63.301137
866.000000	63.135490
867.000000	62.966484
868.000000	62.791383
869.000000	62.607779
870.000000	62.419771
871.000000	62.226341
872.000000	62.024591
873.000000	61.824459
874.000000	61.616952
875.000000	61.410467
876.000000	61.199391
877.000000	60.991613
878.000000	60.782869
879.000000	60.570764
880.000000	60.359714
881.000000	60.144830
882.000000	59.923289
883.000000	59.712600
884.000000	59.501693
885.000000	59.284667
886.000000	59.076897
887.000000	58.880302
888.000000	58.685990
889.000000	58.494665
890.000000	58.301074
891.000000	58.126714
892.000000	57.947458
893.000000	57.780280
894.000000	57.557003
895.000000	57.336191
896.000000	57.118803
897.000000	56.903183
898.000000	56.690823
899.000000	56.481394
900.000000	56.277117
901.000000	56.076931
902.000000	55.882757
903.000000	55.695217
904.000000	55.514471
905.000000	55.340014
906.000000	55.172240
907.000000	55.009746
908.000000	54.852511
909.000000	54.700469
910.000000	54.553654
911.000000	54.411549
912.000000	54.273129
913.000000	54.139669
914.000000	54.010083
915.000000	53.883571
916.000000	53.761040
917.000000	53.639283
918.000000	53.519986
919.000000	53.403426
920.000000	53.288706
921.000000	53.174717
922.000000	53.061394
923.000000	52.948569
924.000000	52.835754
925.000000	52.723514
926.000000	52.609654
927.000000	52.495680
928.000000	52.381234
929.000000	52.266871
930.000000	52.152823
931.000000	52.036006
932.000000	51.918471
933.000000	51.799337
934.000000	51.679577
935.000000	51.558766
936.000000	51.436737
937.000000	51.313449
938.000000	51.187766
939.000000	51.059566
940.000000	50.930109
941.000000	50.798434
942.000000	50.666146
943.000000	50.531889
944.000000	50.396274
945.000000	50.258954
946.000000	50.120669
947.000000	49.981526
948.000000	49.840003
949.000000	49.697643
950.000000	49.554554
951.000000	49.409797
952.000000	49.264783
953.000000	49.118423
954.000000	48.970049
955.000000	48.820523
956.000000	48.669406
957.000000	48.517806
958.000000	48.365469
959.000000	48.210871
960.000000	48.054886
961.000000	47.898397
962.000000	47.739406
963.000000	47.578683
964.000000	47.415671
965.000000	47.250291
966.000000	47.085091
967.000000	46.918160
968.000000	46.751217
969.000000	46.582974
970.000000	46.413634
971.000000	46.244280
972.000000	46.074569
973.000000	45.904854
974.000000	45.735534
975.000000	45.565537
976.000000	45.395897
977.000000	45.226134
978.000000	45.056594
979.000000	44.887274
980.000000	44.716986
981.000000	44.545611
982.000000	44.374231
983.000000	44.202477
984.000000	44.029271
985.000000	43.855314
986.000000	43.681537
987.000000	43.507577
988.000000	43.333357
989.000000	43.158609
990.000000	42.983909
991.000000	42.809569
992.000000	42.635289
993.000000	42.461386
994.000000	42.288866
995.000000	42.117120
996.000000	41.946283
997.000000	41.777389
998.000000	41.609889
999.000000	41.444043
1000.000000	41.279966
1001.000000	41.117303
1002.000000	40.956177
1003.000000	40.795991
1004.000000	40.637509
1005.000000	40.480174
1006.000000	40.324180
1007.000000	40.169057
1008.000000	40.015706
1009.000000	39.863291
1010.000000	39.712109
1011.000000	39.562531
1012.000000	39.415000
1013.000000	39.269206
1014.000000	39.125300
1015.000000	38.984114
1016.000000	38.845623
1017.000000	38.708780
1018.000000	38.575049
1019.000000	38.444626
1020.000000	38.316451
1021.000000	38.190591
1022.000000	38.067480
1023.000000	37.947469
1024.000000	37.830226
1025.000000	37.715600
1026.000000	37.603203
1027.000000	37.492900
1028.000000	37.385380
1029.000000	37.280289
1030.000000	37.177560
1031.000000	37.077306
1032.000000	36.979237
1033.000000	36.883777
1034.000000	36.791414
1035.000000	36.701546
1036.000000	36.614003
1037.000000	36.529226
1038.000000	36.447583
1039.000000	36.368380
1040.000000	36.291734
1041.000000	36.218503
1042.000000	36.148369
1043.000000	36.081251
1044.000000	36.017657
1045.000000	35.957357
1046.000000	35.899849
1047.000000	35.844954
1048.000000	35.793254
1049.000000	35.744834
1050.000000	35.699560
1051.000000	35.657743
1052.000000	35.619020
1053.000000	35.583134
1054.000000	35.549866
1055.000000	35.519769
1056.000000	35.493309
1057.000000	35.470369
1058.000000	35.450703
1059.000000	35.434326
1060.000000	35.421511
1061.000000	35.412494
1062.000000	35.407666
1063.000000	35.406006
1064.000000	35.407409
1065.000000	35.412374
1066.000000	35.420503
1067.000000	35.431869
1068.000000	35.446546
1069.000000	35.463711
1070.000000	35.483580
1071.000000	35.506843
1072.000000	35.532417
1073.000000	35.559777
1074.000000	35.589346
1075.000000	35.620786
1076.000000	35.653954
1077.000000	35.689134
1078.000000	35.725729
1079.000000	35.763780
1080.000000	35.802749
1081.000000	35.843443
1082.000000	35.885360
1083.000000	35.928286
1084.000000	35.971911
1085.000000	36.015894
1086.000000	36.060660
1087.000000	36.105703
1088.000000	36.151266
1089.000000	36.197420
1090.000000	36.244094
1091.000000	36.290403
1092.000000	36.336594
1093.000000	36.382637
1094.000000	36.429166
1095.000000	36.475980
1096.000000	36.522840
1097.000000	36.569046
1098.000000	36.615046
1099.000000	36.661206
1100.000000	36.706934
1101.000000	36.753023
1102.000000	36.798677
1103.000000	36.842920
1104.000000	36.887591
1105.000000	36.931831
1106.000000	36.975329
1107.000000	37.019223
1108.000000	37.063174
1109.000000	37.107203
1110.000000	37.151491
1111.000000	37.195454
1112.000000	37.239303
1113.000000	37.283546
1114.000000	37.327131
1115.000000	37.370640
1116.000000	37.413631
1117.000000	37.457029
1118.000000	37.500983
1119.000000	37.544517
1120.000000	37.587897
1121.000000	37.631120
1122.000000	37.674629
1123.000000	37.717531
1124.000000	37.760120
1125.000000	37.801974
1126.000000	37.842663
1127.000000	37.882434
1128.000000	37.920760
1129.000000	37.957111
1130.000000	37.990740
1131.000000	38.021520
1132.000000	38.049046
1133.000000	38.072809
1134.000000	38.094023
1135.000000	38.111560
1136.000000	38.124217
1137.000000	38.131543
1138.000000	38.133914
1139.000000	38.131106
1140.000000	38.124657
1141.000000	38.112549
1142.000000	38.095343
1143.000000	38.074106
1144.000000	38.048771
1145.000000	38.019340
1146.000000	37.986766
1147.000000	37.951746
1148.000000	37.914940
1149.000000	37.877683
1150.000000	37.840149
1151.000000	37.802420
1152.000000	37.763846
1153.000000	37.723663
1154.000000	37.682151
1155.000000	37.638614
1156.000000	37.592034
1157.000000	37.541577
1158.000000	37.488097
1159.000000	37.430723
1160.000000	37.369529
1161.000000	37.304014
1162.000000	37.234694
1163.000000	37.160977
1164.000000	37.084097
1165.000000	37.003563
1166.000000	36.920629
1167.000000	36.835157
1168.000000	36.748051
1169.000000	36.658089
1170.000000	36.565866
1171.000000	36.472851
1172.000000	36.378951
1173.000000	36.285534
1174.000000	36.190780
1175.000000	36.094994
1176.000000	35.998180
1177.000000	35.899923
1178.000000	35.798934
1179.000000	35.693889
1180.000000	35.583277
1181.000000	35.465966
1182.000000	35.341274
1183.000000	35.209437
1184.000000	35.070949
1185.000000	34.928506
1186.000000	34.783029
1187.000000	34.638006
1188.000000	34.494874
1189.000000	34.358177
1190.000000	34.229426
1191.000000	34.110323
1192.000000	34.002374
1193.000000	33.905040
1194.000000	33.817389
1195.000000	33.738703
1196.000000	33.669814
1197.000000	33.608417
1198.000000	33.555129
1199.000000	33.508071
1200.000000	33.468177
1201.000000	33.434123
1202.000000	33.405826
1203.000000	33.383954
1204.000000	33.367743
1205.000000	33.357903
1206.000000	33.353286
1207.000000	33.356189
1208.000000	33.365386
1209.000000	33.382226
1210.000000	33.405400
1211.000000	33.436737
1212.000000	33.476454
1213.000000	33.524606
1214.000000	33.582866
1215.000000	33.652174
1216.000000	33.733260
1217.000000	33.826400
1218.000000	33.930600
1219.000000	34.044594
1220.000000	34.165200
1221.000000	34.291206
1222.000000	34.419763
1223.000000	34.550314
1224.000000	34.678143
1225.000000	34.803106
1226.000000	34.923203
1227.000000	35.038486
1228.000000	35.149720
1229.000000	35.256951
1230.000000	35.362003
1231.000000	35.465240
1232.000000	35.567911
1233.000000	35.670111
1234.000000	35.772869
1235.000000	35.875917
1236.000000	35.979766
1237.000000	36.085343
1238.000000	36.191286
1239.000000	36.298517
1240.000000	36.406260
1241.000000	36.515277
1242.000000	36.624334
1243.000000	36.733520
1244.000000	36.841951
1245.000000	36.949946
1246.000000	37.057017
1247.000000	37.162766
1248.000000	37.267666
1249.000000	37.370466
1250.000000	37.472549
1251.000000	37.573157
1252.000000	37.671040
1253.000000	37.766460
1254.000000	37.860129
1255.000000	37.951754
1256.000000	38.041071
1257.000000	38.127980
1258.000000	38.211920
1259.000000	38.293951
1260.000000	38.373037
1261.000000	38.450251
1262.000000	38.525086
1263.000000	38.596874
1264.000000	38.667066
1265.000000	38.735394
1266.000000	38.801137
1267.000000	38.864206
1268.000000	38.926174
1269.000000	38.986511
1270.000000	39.045194
1271.000000	39.102531
1272.000000	39.158400
1273.000000	39.213043
1274.000000	39.266097
1275.000000	39.318577
1276.000000	39.370517
1277.000000	39.421557
1278.000000	39.471617
1279.000000	39.521029
1280.000000	39.569994
1281.000000	39.619057
1282.000000	39.667783
1283.000000	39.716640
1284.000000	39.766074
1285.000000	39.815106
1286.000000	39.864049
1287.000000	39.913766
1288.000000	39.963880
1289.000000	40.013574
1290.000000	40.063603
1291.000000	40.114166
1292.000000	40.164429
1293.000000	40.214374
1294.000000	40.263957
1295.000000	40.313269
1296.000000	40.362329
1297.000000	40.411280
1298.000000	40.459671
1299.000000	40.507546
1300.000000	40.554251
1301.000000	40.600420
1302.000000	40.646300
1303.000000	40.690877
1304.000000	40.734420
1305.000000	40.776809
1306.000000	40.817837
1307.000000	40.857637
1308.000000	40.895691
1309.000000	40.931597
1310.000000	40.965700
1311.000000	40.997511
1312.000000	41.026911
1313.000000	41.053860
1314.000000	41.077806
1315.000000	41.098494
1316.000000	41.115686
1317.000000	41.129471
1318.000000	41.139617
1319.000000	41.146414
1320.000000	41.149457
1321.000000	41.148863
1322.000000	41.144946
1323.000000	41.137469
1324.000000	41.126417
1325.000000	41.111517
1326.000000	41.092449
1327.000000	41.069623
1328.000000	41.043146
1329.000000	41.012920
1330.000000	40.978643
1331.000000	40.940100
1332.000000	40.897746
1333.000000	40.851546
1334.000000	40.800834
1335.000000	40.745986
1336.000000	40.687200
1337.000000	40.623709
1338.000000	40.555386
1339.000000	40.482294
1340.000000	40.404389
1341.000000	40.321674
1342.000000	40.233609
1343.000000	40.140386
1344.000000	40.043451
1345.000000	39.940246
1346.000000	39.831111
1347.000000	39.716591
1348.000000	39.595500
1349.000000	39.467966
1350.000000	39.333243
1351.000000	39.190214
1352.000000	39.038054
1353.000000	38.876591
1354.000000	38.707086
1355.000000	38.530409
1356.000000	38.348237
1357.000000	38.161511
1358.000000	37.973531
1359.000000	37.785311
1360.000000	37.597571
1361.000000	37.411780
1362.000000	37.226197
1363.000000	37.039414
1364.000000	36.851477
1365.000000	36.662274
1366.000000	36.470866
1367.000000	36.276311
1368.000000	36.078554
1369.000000	35.876849
1370.000000	35.669440
1371.000000	35.454894
1372.000000	35.232214
1373.000000	35.000389
1374.000000	34.759080
1375.000000	34.510029
1376.000000	34.254894
1377.000000	33.994443
1378.000000	33.730369
1379.000000	33.462963
1380.000000	33.195074
1381.000000	32.926129
1382.000000	32.654954
1383.000000	32.382163
1384.000000	32.108860
1385.000000	31.835097
1386.000000	31.563246
1387.000000	31.296551
1388.000000	31.037177
1389.000000	30.781954
1390.000000	30.532206
1391.000000	30.287557
1392.000000	30.047760
1393.000000	29.809174
1394.000000	29.571503
1395.000000	29.335383
1396.000000	29.097471
1397.000000	28.857783
1398.000000	28.617937
1399.000000	28.378849
1400.000000	28.140683
1401.000000	27.900914
1402.000000	27.659503
1403.000000	27.417011
1404.000000	27.176046
1405.000000	26.936466
1406.000000	26.699126
1407.000000	26.466863
1408.000000	26.240763
1409.000000	26.021006
1410.000000	25.806529
1411.000000	25.596249
1412.000000	25.391317
1413.000000	25.191149
1414.000000	24.994357
1415.000000	24.799180
1416.000000	24.606171
1417.000000	24.415937
1418.000000	24.231340
1419.000000	24.050149
1420.000000	23.872946
1421.000000	23.698229
1422.000000	23.523323
1423.000000	23.348240
1424.000000	23.174000
1425.000000	22.997846
1426.000000	22.819857
1427.000000	22.638129
1428.000000	22.455623
1429.000000	22.269946
1430.000000	22.081411
1431.000000	21.892029
1432.000000	21.703894
1433.000000	21.517457
1434.000000	21.332346
1435.000000	21.147211
1436.000000	20.966977
1437.000000	20.791883
1438.000000	20.622494
1439.000000	20.456277
1440.000000	20.296043
1441.000000	20.142297
1442.000000	19.993283
1443.000000	19.849563
1444.000000	19.711089
1445.000000	19.577983
1446.000000	19.449557
1447.000000	19.323880
1448.000000	19.200606
1449.000000	19.079911
1450.000000	18.962477
1451.000000	18.849489
1452.000000	18.738660
1453.000000	18.629457
1454.000000	18.523891
1455.000000	18.421174
1456.000000	18.322280
1457.000000	18.227077
1458.000000	18.133909
1459.000000	18.043649
1460.000000	17.957260
1461.000000	17.873369
1462.000000	17.793117
1463.000000	17.713891
1464.000000	17.637669
1465.000000	17.564297
1466.000000	17.493003
1467.000000	17.423477
1468.000000	17.354866
1469.000000	17.286980
1470.000000	17.222349
1471.000000	17.159254
1472.000000	17.097043
1473.000000	17.035303
1474.000000	16.975894
1475.000000	16.918151
1476.000000	16.860837
1477.000000	16.805689
1478.000000	16.751546
1479.000000	16.699497
1480.000000	16.648440
1481.000000	16.598671
1482.000000	16.550769
1483.000000	16.504340
1484.000000	16.459180
1485.000000	16.415337
1486.000000	16.372031
1487.000000	16.332020
1488.000000	16.293480
1489.000000	16.255940
1490.000000	16.219400
1491.000000	16.184060
1492.000000	16.150197
1493.000000	16.117966
1494.000000	16.087137
1495.000000	16.057760
1496.000000	16.029617
1497.000000	16.002951
1498.000000	15.977820
1499.000000	15.954031
1500.000000	15.930631
1501.000000	15.909177
1502.000000	15.888943
1503.000000	15.869389
1504.000000	15.850689
1505.000000	15.832817
1506.000000	15.816123
1507.000000	15.801474
1508.000000	15.789209
1509.000000	15.778540
1510.000000	15.769266
1511.000000	15.762157
1512.000000	15.756263
1513.000000	15.752377
1514.000000	15.749631
1515.000000	15.748723
1516.000000	15.749383
1517.000000	15.751757
1518.000000	15.756300
1519.000000	15.762300
1520.000000	15.770026
1521.000000	15.779166
1522.000000	15.789523
1523.000000	15.801543
1524.000000	15.814817
1525.000000	15.830471
1526.000000	15.847769
1527.000000	15.866423
1528.000000	15.886140
1529.000000	15.906837
1530.000000	15.928991
1531.000000	15.952123
1532.000000	15.975491
1533.000000	15.999937
1534.000000	16.024963
1535.000000	16.050474
1536.000000	16.076294
1537.000000	16.102537
1538.000000	16.129569
1539.000000	16.157466
1540.000000	16.185334
1541.000000	16.212806
1542.000000	16.239957
1543.000000	16.266611
1544.000000	16.293063
1545.000000	16.319057
1546.000000	16.345220
1547.000000	16.371283
1548.000000	16.396883
1549.000000	16.421903
1550.000000	16.447129
1551.000000	16.472249
1552.000000	16.496563
1553.000000	16.520097
1554.000000	16.543591
1555.000000	16.566280
1556.000000	16.587346
1557.000000	16.607451
1558.000000	16.626586
1559.000000	16.644511
1560.000000	16.660600
1561.000000	16.674786
1562.000000	16.687389
1563.000000	16.698371
1564.000000	16.707991
1565.000000	16.715509
1566.000000	16.721069
1567.000000	16.725331
1568.000000	16.728063
1569.000000	16.729211
1570.000000	16.728380
1571.000000	16.726140
1572.000000	16.722574
1573.000000	16.717866
1574.000000	16.712317
1575.000000	16.705971
1576.000000	16.698683
1577.000000	16.690709
1578.000000	16.682111
1579.000000	16.673180
1580.000000	16.663563
1581.000000	16.652977
1582.000000	16.642197
1583.000000	16.631137
1584.000000	16.620094
1585.000000	16.608371
1586.000000	16.596306
1587.000000	16.584600
1588.000000	16.572826
1589.000000	16.561100
1590.000000	16.550160
1591.000000	16.540454
1592.000000	16.531214
1593.000000	16.522843
1594.000000	16.515800
1595.000000	16.510546
1596.000000	16.507143
1597.000000	16.505826
1598.000000	16.506343
1599.000000	16.508980
1600.000000	16.513794
1601.000000	16.521486
1602.000000	16.531794
1603.000000	16.544334
1604.000000	16.559934
1605.000000	16.578134
1606.000000	16.597717
1607.000000	16.620089
1608.000000	16.645720
1609.000000	16.673360
1610.000000	16.702280
1611.000000	16.733997
1612.000000	16.767989
1613.000000	16.804220
1614.000000	16.842089
1615.000000	16.882209
1616.000000	16.924611
1617.000000	16.968534
1618.000000	17.014451
1619.000000	17.062317
1620.000000	17.112203
1621.000000	17.164129
1622.000000	17.217543
1623.000000	17.272637
1624.000000	17.329026
1625.000000	17.386974
1626.000000	17.446646
1627.000000	17.508346
1628.000000	17.571497
1629.000000	17.635877
1630.000000	17.701671
1631.000000	17.768686
1632.000000	17.836960
1633.000000	17.906011
1634.000000	17.975709
1635.000000	18.046034
1636.000000	18.116677
1637.000000	18.188026
1638.000000	18.259834
1639.000000	18.331297
1640.000000	18.403354
1641.000000	18.475866
1642.000000	18.548066
1643.000000	18.620151
1644.000000	18.692411
1645.000000	18.765043
1646.000000	18.837080
1647.000000	18.908689
1648.000000	18.980151
1649.000000	19.050831
1650.000000	19.120154
1651.000000	19.188217
1652.000000	19.254894
1653.000000	19.320186
1654.000000	19.384077
1655.000000	19.446326
1656.000000	19.505926
1657.000000	19.563091
1658.000000	19.617391
1659.000000	19.669706
1660.000000	19.718043
1661.000000	19.763311
1662.000000	19.804283
1663.000000	19.841331
1664.000000	19.873766
1665.000000	19.901466
1666.000000	19.923203
1667.000000	19.939586
1668.000000	19.949894
1669.000000	19.953826
1670.000000	19.950423
1671.000000	19.940423
1672.000000	19.921417
1673.000000	19.893400
1674.000000	19.856329
1675.000000	19.807383
1676.000000	19.745934
1677.000000	19.671306
1678.000000	19.581889
1679.000000	19.476509
1680.000000	19.355526
1681.000000	19.220571
1682.000000	19.073231
1683.000000	18.916194
1684.000000	18.752717
1685.000000	18.585083
1686.000000	18.416171
1687.000000	18.245689
1688.000000	18.072323
1689.000000	17.895574
1690.000000	17.714540
1691.000000	17.530000
1692.000000	17.341329
1693.000000	17.148820
1694.000000	16.953169
1695.000000	16.757726
1696.000000	16.562394
1697.000000	16.370263
1698.000000	16.181334
1699.000000	15.997877
1700.000000	15.819826
1701.000000	15.648583
1702.000000	15.482740
1703.000000	15.323534
1704.000000	15.169777
1705.000000	15.023040
1706.000000	14.881434
1707.000000	14.747806
1708.000000	14.621209
1709.000000	14.502117
1710.000000	14.392677
1711.000000	14.293777
1712.000000	14.206226
1713.000000	14.129186
1714.000000	14.064763
1715.000000	14.013574
1716.000000	13.972571
1717.000000	13.941960
1718.000000	13.918231
1719.000000	13.898923
1720.000000	13.882380
1721.000000	13.866591
1722.000000	13.851231
1723.000000	13.837414
1724.000000	13.825463
1725.000000	13.815600
1726.000000	13.808606
1727.000000	13.803431
1728.000000	13.800111
1729.000000	13.797786
1730.000000	13.793660
1731.000000	13.788254
1732.000000	13.779523
1733.000000	13.768146
1734.000000	13.753571
1735.000000	13.736963
1736.000000	13.719266
1737.000000	13.702129
1738.000000	13.686434
1739.000000	13.674631
1740.000000	13.665971
1741.000000	13.662983
1742.000000	13.664286
1743.000000	13.669620
1744.000000	13.679911
1745.000000	13.693897
1746.000000	13.712320
1747.000000	13.733597
1748.000000	13.759589
1749.000000	13.789249
1750.000000	13.821757
1751.000000	13.858517
1752.000000	13.897463
1753.000000	13.938474
1754.000000	13.980083
1755.000000	14.022131
1756.000000	14.064043
1757.000000	14.105986
1758.000000	14.147680
1759.000000	14.188703
1760.000000	14.230820
1761.000000	14.272637
1762.000000	14.317303
1763.000000	14.364363
1764.000000	14.414749
1765.000000	14.470040
1766.000000	14.528977
1767.000000	14.592051
1768.000000	14.658677
1769.000000	14.728234
1770.000000	14.800383
1771.000000	14.873277
1772.000000	14.945914
1773.000000	15.018123
1774.000000	15.088160
1775.000000	15.156540
1776.000000	15.222046
1777.000000	15.284777
1778.000000	15.345706
1779.000000	15.403449
1780.000000	15.459617
1781.000000	15.513717
1782.000000	15.567440
1783.000000	15.620303
1784.000000	15.672271
1785.000000	15.724700
1786.000000	15.776931
1787.000000	15.828646
1788.000000	15.880611
1789.000000	15.933851
1790.000000	15.988249
1791.000000	16.044489
1792.000000	16.102434
1793.000000	16.162589
1794.000000	16.224866
1795.000000	16.288477
1796.000000	16.353966
1797.000000	16.420066
1798.000000	16.487086
1799.000000	16.553580
1800.000000	16.619791
1801.000000	16.685054
1802.000000	16.748517
1803.000000	16.809791
1804.000000	16.869006
1805.000000	16.925580
1806.000000	16.979894
1807.000000	17.032134
1808.000000	17.081440
1809.000000	17.127686
1810.000000	17.171463
1811.000000	17.212946
1812.000000	17.251743
1813.000000	17.288591
1814.000000	17.323326
1815.000000	17.355557
1816.000000	17.385674
1817.000000	17.413389
1818.000000	17.439209
1819.000000	17.463734
1820.000000	17.486926
1821.000000	17.508634
1822.000000	17.529554
1823.000000	17.549200
1824.000000	17.568386
1825.000000	17.587557
1826.000000	17.606043
1827.000000	17.624811
1828.000000	17.643994
1829.000000	17.664040
1830.000000	17.684697
1831.000000	17.706129
1832.000000	17.728186
1833.000000	17.751209
1834.000000	17.775409
1835.000000	17.800003
1836.000000	17.825314
1837.000000	17.851166
1838.000000	17.877154
1839.000000	17.903780
1840.000000	17.930186
1841.000000	17.957149
1842.000000	17.983851
1843.000000	18.009517
1844.000000	18.035800
1845.000000	18.062709
1846.000000	18.090171
1847.000000	18.119523
1848.000000	18.149820
1849.000000	18.181243
1850.000000	18.213797
1851.000000	18.247354
1852.000000	18.281831
1853.000000	18.317371
1854.000000	18.353877
1855.000000	18.389903
1856.000000	18.426086
1857.000000	18.462360
1858.000000	18.498503
1859.000000	18.533603
1860.000000	18.566966
1861.000000	18.598006
1862.000000	18.626086
1863.000000	18.650851
1864.000000	18.672240
1865.000000	18.690620
1866.000000	18.706137
1867.000000	18.718194
1868.000000	18.725800
1869.000000	18.727786
1870.000000	18.723289
1871.000000	18.712217
1872.000000	18.693757
1873.000000	18.668029
1874.000000	18.633691
1875.000000	18.591563
1876.000000	18.540431
1877.000000	18.479889
1878.000000	18.410309
1879.000000	18.331460
1880.000000	18.242077
1881.000000	18.141677
1882.000000	18.029257
1883.000000	17.905714
1884.000000	17.771649
1885.000000	17.627757
1886.000000	17.474426
1887.000000	17.313226
1888.000000	17.145100
1889.000000	16.969689
1890.000000	16.787849
1891.000000	16.600211
1892.000000	16.405969
1893.000000	16.206017
1894.000000	16.001523
1895.000000	15.793291
1896.000000	15.582489
1897.000000	15.369594
1898.000000	15.153146
1899.000000	14.933497
1900.000000	14.710237
1901.000000	14.483700
1902.000000	14.255866
1903.000000	14.027046
1904.000000	13.798246
1905.000000	13.569946
1906.000000	13.341677
1907.000000	13.116114
1908.000000	12.892694
1909.000000	12.674229
1910.000000	12.460603
1911.000000	12.251583
1912.000000	12.048606
1913.000000	11.851617
1914.000000	11.659480
1915.000000	11.473063
1916.000000	11.293554
1917.000000	11.122180
1918.000000	10.958263
1919.000000	10.802063
1920.000000	10.652691
1921.000000	10.509631
1922.000000	10.371037
1923.000000	10.235814
1924.000000	10.105403
1925.000000	9.979803
1926.000000	9.857454
1927.000000	9.739980
1928.000000	9.627146
1929.000000	9.518326
1930.000000	9.411800
1931.000000	9.308006
1932.000000	9.207043
1933.000000	9.110057
1934.000000	9.017266
1935.000000	8.929780
1936.000000	8.846500
1937.000000	8.766160
1938.000000	8.689343
1939.000000	8.616006
1940.000000	8.546194
1941.000000	8.481294
1942.000000	8.420154
1943.000000	8.363377
1944.000000	8.308829
1945.000000	8.256706
1946.000000	8.208014
1947.000000	8.162914
1948.000000	8.121331
1949.000000	8.084106
1950.000000	8.050326
1951.000000	8.020020
1952.000000	7.991829
1953.000000	7.966771
1954.000000	7.944657
1955.000000	7.925057
1956.000000	7.908486
1957.000000	7.894949
1958.000000	7.884700
1959.000000	7.876111
1960.000000	7.869371
1961.000000	7.866000
1962.000000	7.863811
1963.000000	7.862794
1964.000000	7.863866
1965.000000	7.868103
1966.000000	7.873834
1967.000000	7.880871
1968.000000	7.889909
1969.000000	7.899931
1970.000000	7.910237
1971.000000	7.921823
1972.000000	7.935140
1973.000000	7.949383
1974.000000	7.965026
1975.000000	7.981911
1976.000000	7.999477
1977.000000	8.018109
1978.000000	8.037417
1979.000000	8.057711
1980.000000	8.078474
1981.000000	8.099880
1982.000000	8.121486
1983.000000	8.142783
1984.000000	8.164991
1985.000000	8.188003
1986.000000	8.211257
1987.000000	8.234883
1988.000000	8.257983
1989.000000	8.281217
1990.000000	8.305483
1991.000000	8.329094
1992.000000	8.353369
1993.000000	8.376911
1994.000000	8.400574
1995.000000	8.424231
1996.000000	8.447511
1997.000000	8.471594
1998.000000	8.496331
1999.000000	8.520494
2000.000000	8.543706
2001.000000	8.567337
2002.000000	8.590851
2003.000000	8.613640
2004.000000	8.636834
2005.000000	8.660080
2006.000000	8.682760
2007.000000	8.704317
2008.000000	8.725734
2009.000000	8.746594
2010.000000	8.766811
2011.000000	8.786414
2012.000000	8.804694
2013.000000	8.822546
2014.000000	8.838614
2015.000000	8.853680
2016.000000	8.868006
2017.000000	8.881111
2018.000000	8.894314
2019.000000	8.905726
2020.000000	8.915386
2021.000000	8.923811
2022.000000	8.931174
2023.000000	8.937340
2024.000000	8.942346
2025.000000	8.945751
2026.000000	8.948669
2027.000000	8.949640
2028.000000	8.950314
2029.000000	8.950320
2030.000000	8.948797
2031.000000	8.945103
2032.000000	8.940200
2033.000000	8.933794
2034.000000	8.925526
2035.000000	8.916086
2036.000000	8.904543
2037.000000	8.891117
2038.000000	8.876234
2039.000000	8.859509
2040.000000	8.841443
2041.000000	8.821377
2042.000000	8.799911
2043.000000	8.776486
2044.000000	8.750937
2045.000000	8.723883
2046.000000	8.695523
2047.000000	8.666566
2048.000000	8.636060
2049.000000	8.605220
2050.000000	8.573623
2051.000000	8.541080
2052.000000	8.508014
2053.000000	8.474143
2054.000000	8.440283
2055.000000	8.407346
2056.000000	8.374069
2057.000000	8.341140
2058.000000	8.309600
2059.000000	8.278511
2060.000000	8.247483
2061.000000	8.216926
2062.000000	8.187654
2063.000000	8.159306
2064.000000	8.131737
2065.000000	8.105540
2066.000000	8.081014
2067.000000	8.058080
2068.000000	8.036346
2069.000000	8.016429
2070.000000	7.998420
2071.000000	7.982466
2072.000000	7.968329
2073.000000	7.956043
2074.000000	7.945529
2075.000000	7.936431
2076.000000	7.930260
2077.000000	7.925751
2078.000000	7.922563
2079.000000	7.921720
2080.000000	7.923097
2081.000000	7.926117
2082.000000	7.930303
2083.000000	7.936191
2084.000000	7.943669
2085.000000	7.952854
2086.000000	7.963160
2087.000000	7.974309
2088.000000	7.986843
2089.000000	7.999923
2090.000000	8.013374
2091.000000	8.027580
2092.000000	8.042043
2093.000000	8.056566
2094.000000	8.071257
2095.000000	8.086603
2096.000000	8.102120
2097.000000	8.117051
2098.000000	8.131589
2099.000000	8.146103
2100.000000	8.160749
2101.000000	8.175463
2102.000000	8.189326
2103.000000	8.202949
2104.000000	8.216689
2105.000000	8.229809
2106.000000	8.242200
2107.000000	8.254377
2108.000000	8.266094
2109.000000	8.277440
2110.000000	8.288757
2111.000000	8.299389
2112.000000	8.309780
2113.000000	8.320520
2114.000000	8.330657
2115.000000	8.340277
2116.000000	8.349691
2117.000000	8.358820
2118.000000	8.367680
2119.000000	8.376223
2120.000000	8.383871
2121.000000	8.391254
2122.000000	8.398489
2123.000000	8.405086
2124.000000	8.411646
2125.000000	8.417777
2126.000000	8.423594
2127.000000	8.428660
2128.000000	8.432829
2129.000000	8.436543
2130.000000	8.439780
2131.000000	8.442349
2132.000000	8.444220
2133.000000	8.445491
2134.000000	8.445977
2135.000000	8.444923
2136.000000	8.442966
2137.000000	8.440174
2138.000000	8.436063
2139.000000	8.431089
2140.000000	8.425146
2141.000000	8.418257
2142.000000	8.410563
2143.000000	8.402203
2144.000000	8.392929
2145.000000	8.382589
2146.000000	8.370389
2147.000000	8.357000
2148.000000	8.342597
2149.000000	8.327629
2150.000000	8.311691
2151.000000	8.294929
2152.000000	8.276974
2153.000000	8.257849
2154.000000	8.237837
2155.000000	8.216529
2156.000000	8.193860
2157.000000	8.170523
2158.000000	8.146794
2159.000000	8.121726
2160.000000	8.096020
2161.000000	8.069800
2162.000000	8.043106
2163.000000	8.016094
2164.000000	7.987871
2165.000000	7.958731
2166.000000	7.929631
2167.000000	7.901074
2168.000000	7.872560
2169.000000	7.843926
2170.000000	7.815634
2171.000000	7.786974
2172.000000	7.758506
2173.000000	7.731017
2174.000000	7.703403
2175.000000	7.675866
2176.000000	7.648691
2177.000000	7.622066
2178.000000	7.595306
2179.000000	7.568800
2180.000000	7.542066
2181.000000	7.516420
2182.000000	7.491337
2183.000000	7.467000
2184.000000	7.442189
2185.000000	7.417017
2186.000000	7.391563
2187.000000	7.365574
2188.000000	7.339649
2189.000000	7.313297
2190.000000	7.286906
2191.000000	7.259743
2192.000000	7.231671
2193.000000	7.202086
2194.000000	7.172086
2195.000000	7.140514
2196.000000	7.107286
2197.000000	7.072974
2198.000000	7.036963
2199.000000	6.999260
2200.000000	6.960620
2201.000000	6.920143
2202.000000	6.876829
2203.000000	6.832151
2204.000000	6.785746
2205.000000	6.738097
2206.000000	6.690714
2207.000000	6.642866
2208.000000	6.593454
2209.000000	6.544294
2210.000000	6.494866
2211.000000	6.446114
2212.000000	6.398374
2213.000000	6.351806
2214.000000	6.306523
2215.000000	6.261871
2216.000000	6.218780
2217.000000	6.177203
2218.000000	6.137086
2219.000000	6.099040
2220.000000	6.062489
2221.000000	6.028620
2222.000000	5.997480
2223.000000	5.968594
2224.000000	5.942137
2225.000000	5.918209
2226.000000	5.897289
2227.000000	5.879040
2228.000000	5.862783
2229.000000	5.848400
2230.000000	5.837166
2231.000000	5.828900
2232.000000	5.822169
2233.000000	5.817794
2234.000000	5.816777
2235.000000	5.817594
2236.000000	5.819334
2237.000000	5.824166
2238.000000	5.830171
2239.000000	5.838126
2240.000000	5.846794
2241.000000	5.855671
2242.000000	5.864317
2243.000000	5.873700
2244.000000	5.882174
2245.000000	5.890469
2246.000000	5.897474
2247.000000	5.902423
2248.000000	5.905366
2249.000000	5.906077
2250.000000	5.905060
2251.000000	5.901389
2252.000000	5.894400
2253.000000	5.884440
2254.000000	5.871577
2255.000000	5.856457
2256.000000	5.838466
2257.000000	5.816814
2258.000000	5.792409
2259.000000	5.765343
2260.000000	5.735486
2261.000000	5.703929
2262.000000	5.669797
2263.000000	5.635160
2264.000000	5.598677
2265.000000	5.560811
2266.000000	5.521863
2267.000000	5.482737
2268.000000	5.443360
2269.000000	5.403846
2270.000000	5.364983
2271.000000	5.327737
2272.000000	5.290423
2273.000000	5.254526
2274.000000	5.219454
2275.000000	5.186011
2276.000000	5.153266
2277.000000	5.122831
2278.000000	5.094020
2279.000000	5.067354
2280.000000	5.042957
2281.000000	5.020271
2282.000000	4.999523
2283.000000	4.981377
2284.000000	4.965734
2285.000000	4.952231
2286.000000	4.940994
2287.000000	4.932240
2288.000000	4.925343
2289.000000	4.920651
2290.000000	4.918363
2291.000000	4.916754
2292.000000	4.917843
2293.000000	4.920200
2294.000000	4.923874
2295.000000	4.929129
2296.000000	4.934371
2297.000000	4.940740
2298.000000	4.947254
2299.000000	4.954583
2300.000000	4.961863
2301.000000	4.969049
2302.000000	4.976374
2303.000000	4.983880
2304.000000	4.990731
2305.000000	4.996826
2306.000000	5.002671
2307.000000	5.008443
2308.000000	5.013954
2309.000000	5.019451
2310.000000	5.024903
2311.000000	5.030314
2312.000000	5.035403
2313.000000	5.040683
2314.000000	5.046554
2315.000000	5.052551
2316.000000	5.058914
2317.000000	5.065734
2318.000000	5.072151
2319.000000	5.078600
2320.000000	5.085791
2321.000000	5.093494
2322.000000	5.102366
2323.000000	5.111969
2324.000000	5.122314
2325.000000	5.133243
2326.000000	5.145529
2327.000000	5.158217
2328.000000	5.172246
2329.000000	5.187317
2330.000000	5.203237
2331.000000	5.220526
2332.000000	5.238491
2333.000000	5.257231
2334.000000	5.277149
2335.000000	5.298351
2336.000000	5.320089
2337.000000	5.342483
2338.000000	5.364629
2339.000000	5.386937
2340.000000	5.409657
2341.000000	5.431800
2342.000000	5.453966
2343.000000	5.475314
2344.000000	5.494926
2345.000000	5.513691
2346.000000	5.532186
2347.000000	5.549420
2348.000000	5.565269
2349.000000	5.578774
2350.000000	5.590937
2351.000000	5.601954
2352.000000	5.611197
2353.000000	5.619860
2354.000000	5.628126
2355.000000	5.635697
2356.000000	5.642509
2357.000000	5.648563
2358.000000	5.653880
2359.000000	5.658537
2360.000000	5.662546
2361.000000	5.666657
2362.000000	5.671654
2363.000000	5.676123
2364.000000	5.680037
2365.000000	5.684174
2366.000000	5.688637
2367.000000	5.693343
2368.000000	5.698314
2369.000000	5.703669
2370.000000	5.709003
2371.000000	5.714354
2372.000000	5.719989
2373.000000	5.726131
2374.000000	5.732874
2375.000000	5.740320
2376.000000	5.748591
2377.000000	5.756966
2378.000000	5.765477
2379.000000	5.775320
2380.000000	5.785594
2381.000000	5.796000
2382.000000	5.807154
2383.000000	5.818731
2384.000000	5.830863
2385.000000	5.843091
2386.000000	5.855257
2387.000000	5.868231
2388.000000	5.881334
2389.000000	5.893054
2390.000000	5.904306
2391.000000	5.915143
2392.000000	5.925174
2393.000000	5.934380
2394.000000	5.942871
2395.000000	5.950451
2396.000000	5.956786
2397.000000	5.961611
2398.000000	5.965834
2399.000000	5.968934
2400.000000	5.970494
2401.000000	5.970611
2402.000000	5.969877
2403.000000	5.968334
2404.000000	5.966177
2405.000000	5.963480
2406.000000	5.960277
2407.000000	5.955606
2408.000000	5.950717
2409.000000	5.945131
2410.000000	5.938471
2411.000000	5.931709
2412.000000	5.924117
2413.000000	5.916466
2414.000000	5.908803
2415.000000	5.900509
2416.000000	5.891737
2417.000000	5.882369
2418.000000	5.872917
2419.000000	5.863637
2420.000000	5.853709
2421.000000	5.844091
2422.000000	5.833777
2423.000000	5.822720
2424.000000	5.811726
2425.000000	5.800769
2426.000000	5.789523
2427.000000	5.777806
2428.000000	5.766283
2429.000000	5.753909
2430.000000	5.741426
2431.000000	5.728614
2432.000000	5.715720
2433.000000	5.702466
2434.000000	5.689017
2435.000000	5.675557
2436.000000	5.662143
2437.000000	5.648466
2438.000000	5.634866
2439.000000	5.619337
2440.000000	5.603677
2441.000000	5.587254
2442.000000	5.571300
2443.000000	5.554820
2444.000000	5.537766
2445.000000	5.519920
2446.000000	5.501109
2447.000000	5.482503
2448.000000	5.463557
2449.000000	5.443514
2450.000000	5.422931
2451.000000	5.401811
2452.000000	5.380163
2453.000000	5.358060
2454.000000	5.335554
2455.000000	5.313026
2456.000000	5.289331
2457.000000	5.265914
2458.000000	5.241946
2459.000000	5.217723
2460.000000	5.194177
2461.000000	5.169711
2462.000000	5.145700
2463.000000	5.121906
2464.000000	5.099343
2465.000000	5.077151
2466.000000	5.054283
2467.000000	5.032303
2468.000000	5.011440
2469.000000	4.989489
2470.000000	4.969311
2471.000000	4.949629
2472.000000	4.930377
2473.000000	4.911974
2474.000000	4.893651
2475.000000	4.877220
2476.000000	4.862529
2477.000000	4.848006
2478.000000	4.834114
2479.000000	4.821694
2480.000000	4.810323
2481.000000	4.799514
2482.000000	4.789354
2483.000000	4.779711
2484.000000	4.771300
2485.000000	4.763263
2486.000000	4.758203
2487.000000	4.752723
2488.000000	4.746137
2489.000000	4.741974
2490.000000	4.739306
2491.000000	4.738043
2492.000000	4.735900
2493.000000	4.736026
2494.000000	4.737143
2495.000000	4.735623
2496.000000	4.736543
2497.000000	4.740869
2498.000000	4.746111
2499.000000	4.746400
2500.000000	4.750663
