PE UV       SUBTECH     SPECTRUM    ASCII       PEDS        4.00        
   -1
CICIMAUCR0021-1.Sample.ASC
24/03/08
13:20:54.00
24/03/08
13:20:54.00
Vinicio Soto Monge
C. resplendens. 
250,000000
1
Lambda 1050
1050L1511233
PerkinElmer UV WinLab 6.3.2.0749 / 2.02.05 Lambda 900 UV/VIS/NIR, Aug  7 2015 09:38:08

0
0
3350/servo 860,8/2
0
0
UV/VIS
1
1
1
DoubleDePol,CommonBeamDepol,RBeamAtt,SBeamAtt,60mm sphere, WB InGaAs Detector
0
0
0
0
Program
Program
3350/servo 860,8/2
3350/0,2 860,8/0,2
3350/0,2 860,8/0,2
0
15.00
 
 
 
0
 
860,8
319,2
860,8
Front
100
on
S:100 R:100
0
0
0
0
 
0
 
 
 
0
 
 
0
0
0
0
0
 
 
 
 
0
0


0
0
#HDR
-1
-1
#GR
nm
%R
1.0
0.0
2500,000000
-1,000000
2251
8
31,927300
2,181000
#DATA
250.000000	nan
251.000000	nan
252.000000	nan
253.000000	nan
254.000000	nan
255.000000	nan
256.000000	nan
257.000000	nan
258.000000	nan
259.000000	nan
260.000000	nan
261.000000	nan
262.000000	nan
263.000000	nan
264.000000	nan
265.000000	nan
266.000000	nan
267.000000	nan
268.000000	nan
269.000000	nan
270.000000	nan
271.000000	nan
272.000000	nan
273.000000	nan
274.000000	nan
275.000000	nan
276.000000	nan
277.000000	nan
278.000000	nan
279.000000	nan
280.000000	nan
281.000000	nan
282.000000	nan
283.000000	nan
284.000000	2.543167
285.000000	2.536844
286.000000	2.531134
287.000000	2.524726
288.000000	2.517289
289.000000	2.513027
290.000000	2.507795
291.000000	2.502786
292.000000	2.497503
293.000000	2.491751
294.000000	2.484937
295.000000	2.479175
296.000000	2.474871
297.000000	2.469696
298.000000	2.464320
299.000000	2.457981
300.000000	2.452422
301.000000	2.446997
302.000000	2.443813
303.000000	2.439594
304.000000	2.435630
305.000000	2.431342
306.000000	2.426969
307.000000	2.424402
308.000000	2.420412
309.000000	2.419100
310.000000	2.415226
311.000000	2.412587
312.000000	2.408940
313.000000	2.404878
314.000000	2.402089
315.000000	2.399833
316.000000	2.400806
317.000000	2.418185
318.000000	2.428407
319.000000	2.432687
320.000000	2.430550
321.000000	2.439502
322.000000	2.451188
323.000000	2.461650
324.000000	2.467592
325.000000	2.468304
326.000000	2.470789
327.000000	2.473395
328.000000	2.480325
329.000000	2.483808
330.000000	2.489181
331.000000	2.494429
332.000000	2.496165
333.000000	2.501850
334.000000	2.507687
335.000000	2.510069
336.000000	2.513022
337.000000	2.516579
338.000000	2.522125
339.000000	2.522360
340.000000	2.527280
341.000000	2.531890
342.000000	2.535728
343.000000	2.541094
344.000000	2.542038
345.000000	2.546666
346.000000	2.551496
347.000000	2.557464
348.000000	2.563959
349.000000	2.568289
350.000000	2.570035
351.000000	2.569763
352.000000	2.553132
353.000000	2.544358
354.000000	2.542367
355.000000	2.547749
356.000000	2.543316
357.000000	2.535306
358.000000	2.530125
359.000000	2.526606
360.000000	2.530084
361.000000	2.532515
362.000000	2.533917
363.000000	2.532404
364.000000	2.535468
365.000000	2.537274
366.000000	2.537583
367.000000	2.541114
368.000000	2.542645
369.000000	2.545024
370.000000	2.549189
371.000000	2.551730
372.000000	2.554228
373.000000	2.551409
374.000000	2.557006
375.000000	2.560283
376.000000	2.562064
377.000000	2.557788
378.000000	2.553516
379.000000	2.551923
380.000000	2.549233
381.000000	2.545822
382.000000	2.542038
383.000000	2.539689
384.000000	2.539139
385.000000	2.541032
386.000000	2.542411
387.000000	2.543314
388.000000	2.544520
389.000000	2.546346
390.000000	2.548343
391.000000	2.549703
392.000000	2.552530
393.000000	2.555627
394.000000	2.560438
395.000000	2.565042
396.000000	2.570161
397.000000	2.577732
398.000000	2.585765
399.000000	2.594215
400.000000	2.603715
401.000000	2.615311
402.000000	2.628800
403.000000	2.643388
404.000000	2.659869
405.000000	2.679964
406.000000	2.702431
407.000000	2.726035
408.000000	2.756129
409.000000	2.785299
410.000000	2.815542
411.000000	2.850660
412.000000	2.895069
413.000000	2.942470
414.000000	2.992970
415.000000	3.046575
416.000000	3.103643
417.000000	3.164478
418.000000	3.228509
419.000000	3.296154
420.000000	3.367475
421.000000	3.442891
422.000000	3.522415
423.000000	3.605901
424.000000	3.692949
425.000000	3.784090
426.000000	3.879261
427.000000	3.978204
428.000000	4.081041
429.000000	4.187354
430.000000	4.297370
431.000000	4.410703
432.000000	4.527436
433.000000	4.647536
434.000000	4.770720
435.000000	4.896703
436.000000	5.025046
437.000000	5.155952
438.000000	5.288912
439.000000	5.423453
440.000000	5.559731
441.000000	5.697706
442.000000	5.836723
443.000000	5.976204
444.000000	6.116026
445.000000	6.255751
446.000000	6.395305
447.000000	6.534642
448.000000	6.672970
449.000000	6.810235
450.000000	6.946232
451.000000	7.080316
452.000000	7.212267
453.000000	7.342579
454.000000	7.470597
455.000000	7.595701
456.000000	7.718003
457.000000	7.837408
458.000000	7.953874
459.000000	8.066967
460.000000	8.176392
461.000000	8.282290
462.000000	8.384616
463.000000	8.482998
464.000000	8.577603
465.000000	8.668335
466.000000	8.755206
467.000000	8.837629
468.000000	8.915638
469.000000	8.989395
470.000000	9.058815
471.000000	9.124029
472.000000	9.184633
473.000000	9.240541
474.000000	9.291771
475.000000	9.337899
476.000000	9.379048
477.000000	9.415596
478.000000	9.447231
479.000000	9.474212
480.000000	9.496353
481.000000	9.513436
482.000000	9.525577
483.000000	9.533279
484.000000	9.536952
485.000000	9.536638
486.000000	9.532996
487.000000	9.526480
488.000000	9.516407
489.000000	9.503769
490.000000	9.489716
491.000000	9.473783
492.000000	9.456736
493.000000	9.439393
494.000000	9.422382
495.000000	9.406488
496.000000	9.392077
497.000000	9.379540
498.000000	9.370079
499.000000	9.364252
500.000000	9.362285
501.000000	9.364931
502.000000	9.373302
503.000000	9.387432
504.000000	9.407349
505.000000	9.434050
506.000000	9.467501
507.000000	9.508070
508.000000	9.555715
509.000000	9.611113
510.000000	9.674338
511.000000	9.745160
512.000000	9.823298
513.000000	9.909026
514.000000	10.002207
515.000000	10.103264
516.000000	10.211917
517.000000	10.328162
518.000000	10.452007
519.000000	10.583444
520.000000	10.722582
521.000000	10.869334
522.000000	11.023181
523.000000	11.184729
524.000000	11.353977
525.000000	11.530820
526.000000	11.715497
527.000000	11.907821
528.000000	12.107648
529.000000	12.314902
530.000000	12.529500
531.000000	12.751205
532.000000	12.980486
533.000000	13.216450
534.000000	13.459490
535.000000	13.709512
536.000000	13.965826
537.000000	14.228020
538.000000	14.496181
539.000000	14.770033
540.000000	15.049395
541.000000	15.334226
542.000000	15.624615
543.000000	15.920054
544.000000	16.220759
545.000000	16.525823
546.000000	16.835884
547.000000	17.150345
548.000000	17.469167
549.000000	17.792233
550.000000	18.119054
551.000000	18.449467
552.000000	18.783118
553.000000	19.119627
554.000000	19.458665
555.000000	19.799014
556.000000	20.139763
557.000000	20.481285
558.000000	20.823379
559.000000	21.163757
560.000000	21.483386
561.000000	21.798668
562.000000	22.110115
563.000000	22.418199
564.000000	22.721924
565.000000	23.020517
566.000000	23.313095
567.000000	23.599618
568.000000	23.878314
569.000000	24.149828
570.000000	24.413583
571.000000	24.668868
572.000000	24.914830
573.000000	25.151880
574.000000	25.379861
575.000000	25.597515
576.000000	25.806230
577.000000	26.004440
578.000000	26.192946
579.000000	26.371452
580.000000	26.540699
581.000000	26.700027
582.000000	26.849969
583.000000	26.990535
584.000000	27.121884
585.000000	27.245414
586.000000	27.359885
587.000000	27.465686
588.000000	27.563463
589.000000	27.653912
590.000000	27.736397
591.000000	27.813040
592.000000	27.882324
593.000000	27.943767
594.000000	28.000171
595.000000	28.068279
596.000000	28.133467
597.000000	28.192991
598.000000	28.246215
599.000000	28.293457
600.000000	28.334992
601.000000	28.370979
602.000000	28.401014
603.000000	28.426138
604.000000	28.444821
605.000000	28.457158
606.000000	28.464574
607.000000	28.466925
608.000000	28.463226
609.000000	28.454187
610.000000	28.440307
611.000000	28.420016
612.000000	28.394570
613.000000	28.363898
614.000000	28.328934
615.000000	28.287990
616.000000	28.241606
617.000000	28.190280
618.000000	28.134321
619.000000	28.073328
620.000000	28.006082
621.000000	27.934360
622.000000	27.857691
623.000000	27.775664
624.000000	27.687772
625.000000	27.595731
626.000000	27.497079
627.000000	27.394407
628.000000	27.287526
629.000000	27.175744
630.000000	27.060820
631.000000	26.940591
632.000000	26.816943
633.000000	26.689041
634.000000	26.558124
635.000000	26.423562
636.000000	26.286014
637.000000	26.145636
638.000000	26.002860
639.000000	25.856769
640.000000	25.707933
641.000000	25.555360
642.000000	25.399792
643.000000	25.241546
644.000000	25.079967
645.000000	24.915291
646.000000	24.748202
647.000000	24.578831
648.000000	24.407191
649.000000	24.232117
650.000000	24.055973
651.000000	23.877054
652.000000	23.696436
653.000000	23.514422
654.000000	23.330502
655.000000	23.145769
656.000000	22.960957
657.000000	22.775912
658.000000	22.590513
659.000000	22.405387
660.000000	22.220152
661.000000	22.035872
662.000000	21.851532
663.000000	21.667293
664.000000	21.483137
665.000000	21.299932
666.000000	21.117894
667.000000	20.937555
668.000000	20.759281
669.000000	20.583323
670.000000	20.409779
671.000000	20.239431
672.000000	20.072532
673.000000	19.909589
674.000000	19.752386
675.000000	19.600918
676.000000	19.455696
677.000000	19.317258
678.000000	19.186223
679.000000	19.063301
680.000000	18.949240
681.000000	18.843916
682.000000	18.747826
683.000000	18.660898
684.000000	18.583507
685.000000	18.515319
686.000000	18.457760
687.000000	18.409747
688.000000	18.370630
689.000000	18.341310
690.000000	18.322038
691.000000	18.312016
692.000000	18.311216
693.000000	18.320605
694.000000	18.338584
695.000000	18.365318
696.000000	18.401344
697.000000	18.445966
698.000000	18.499106
699.000000	18.561462
700.000000	18.631427
701.000000	18.708458
702.000000	18.791761
703.000000	18.882048
704.000000	18.977981
705.000000	19.079527
706.000000	19.185739
707.000000	19.295290
708.000000	19.407756
709.000000	19.522883
710.000000	19.639897
711.000000	19.759148
712.000000	19.879431
713.000000	20.000545
714.000000	20.121767
715.000000	20.240804
716.000000	20.358224
717.000000	20.474404
718.000000	20.589216
719.000000	20.701241
720.000000	20.811101
721.000000	20.918929
722.000000	21.023260
723.000000	21.124745
724.000000	21.223860
725.000000	21.319008
726.000000	21.409851
727.000000	21.497014
728.000000	21.579669
729.000000	21.659036
730.000000	21.735394
731.000000	21.806671
732.000000	21.874277
733.000000	21.938591
734.000000	21.998148
735.000000	22.054033
736.000000	22.106827
737.000000	22.156659
738.000000	22.202225
739.000000	22.243954
740.000000	22.283491
741.000000	22.319293
742.000000	22.351648
743.000000	22.382524
744.000000	22.410282
745.000000	22.435172
746.000000	22.456196
747.000000	22.474302
748.000000	22.489621
749.000000	22.502320
750.000000	22.514933
751.000000	22.526344
752.000000	22.535645
753.000000	22.543429
754.000000	22.551061
755.000000	22.557646
756.000000	22.562603
757.000000	22.567918
758.000000	22.573091
759.000000	22.578271
760.000000	22.584237
761.000000	22.592329
762.000000	22.600566
763.000000	22.607789
764.000000	22.615907
765.000000	22.624990
766.000000	22.637577
767.000000	22.651213
768.000000	22.665098
769.000000	22.682755
770.000000	22.703310
771.000000	22.726487
772.000000	22.752015
773.000000	22.779776
774.000000	22.810570
775.000000	22.845235
776.000000	22.885083
777.000000	22.928139
778.000000	22.973512
779.000000	23.025085
780.000000	23.081214
781.000000	23.141785
782.000000	23.207320
783.000000	23.276478
784.000000	23.350371
785.000000	23.427950
786.000000	23.508347
787.000000	23.592233
788.000000	23.681813
789.000000	23.773370
790.000000	23.868776
791.000000	23.968037
792.000000	24.070340
793.000000	24.175109
794.000000	24.282828
795.000000	24.391283
796.000000	24.500109
797.000000	24.612413
798.000000	24.729048
799.000000	24.846730
800.000000	24.965626
801.000000	25.084163
802.000000	25.203514
803.000000	25.325559
804.000000	25.446146
805.000000	25.566207
806.000000	25.685533
807.000000	25.804085
808.000000	25.923395
809.000000	26.042191
810.000000	26.157034
811.000000	26.269430
812.000000	26.382312
813.000000	26.493149
814.000000	26.601975
815.000000	26.706819
816.000000	26.810165
817.000000	26.909890
818.000000	27.007155
819.000000	27.101987
820.000000	27.193156
821.000000	27.280768
822.000000	27.366396
823.000000	27.447528
824.000000	27.525624
825.000000	27.599968
826.000000	27.671981
827.000000	27.741956
828.000000	27.806375
829.000000	27.871185
830.000000	27.929964
831.000000	27.983340
832.000000	28.034478
833.000000	28.081894
834.000000	28.124724
835.000000	28.161570
836.000000	28.198059
837.000000	28.232814
838.000000	28.260795
839.000000	28.286648
840.000000	28.307985
841.000000	28.322447
842.000000	28.335067
843.000000	28.339180
844.000000	28.343332
845.000000	28.347980
846.000000	28.345045
847.000000	28.340050
848.000000	28.330311
849.000000	28.315568
850.000000	28.296523
851.000000	28.274156
852.000000	28.254023
853.000000	28.228387
854.000000	28.198851
855.000000	28.159741
856.000000	28.120621
857.000000	28.086352
858.000000	27.992641
859.000000	27.969406
860.000000	27.948082
861.000000	27.929811
862.000000	27.915488
863.000000	27.908859
864.000000	27.903441
865.000000	27.904762
866.000000	27.913173
867.000000	27.922609
868.000000	27.937067
869.000000	27.955627
870.000000	27.981262
871.000000	28.008894
872.000000	28.040564
873.000000	28.078917
874.000000	28.122007
875.000000	28.169776
876.000000	28.224053
877.000000	28.280054
878.000000	28.346133
879.000000	28.412263
880.000000	28.481044
881.000000	28.557348
882.000000	28.633499
883.000000	28.714645
884.000000	28.799746
885.000000	28.890270
886.000000	28.982105
887.000000	29.071155
888.000000	29.164377
889.000000	29.260713
890.000000	29.365962
891.000000	29.471434
892.000000	29.569453
893.000000	29.724803
894.000000	29.808546
895.000000	29.888891
896.000000	29.962646
897.000000	30.030351
898.000000	30.091040
899.000000	30.144837
900.000000	30.193663
901.000000	30.235503
902.000000	30.273220
903.000000	30.305123
904.000000	30.332357
905.000000	30.352923
906.000000	30.367731
907.000000	30.376806
908.000000	30.379894
909.000000	30.377237
910.000000	30.369223
911.000000	30.358023
912.000000	30.344229
913.000000	30.324243
914.000000	30.301014
915.000000	30.271057
916.000000	30.237206
917.000000	30.201226
918.000000	30.161614
919.000000	30.117454
920.000000	30.069811
921.000000	30.020117
922.000000	29.968371
923.000000	29.914826
924.000000	29.857217
925.000000	29.798354
926.000000	29.737846
927.000000	29.676051
928.000000	29.612286
929.000000	29.547809
930.000000	29.482351
931.000000	29.416931
932.000000	29.349306
933.000000	29.281357
934.000000	29.212974
935.000000	29.144403
936.000000	29.076626
937.000000	29.009240
938.000000	28.941097
939.000000	28.873780
940.000000	28.807680
941.000000	28.741823
942.000000	28.676811
943.000000	28.613183
944.000000	28.550066
945.000000	28.488349
946.000000	28.427103
947.000000	28.366289
948.000000	28.307737
949.000000	28.249531
950.000000	28.194020
951.000000	28.140717
952.000000	28.088483
953.000000	28.038920
954.000000	27.990917
955.000000	27.945063
956.000000	27.900520
957.000000	27.857669
958.000000	27.817026
959.000000	27.778723
960.000000	27.741406
961.000000	27.705523
962.000000	27.671194
963.000000	27.638109
964.000000	27.606871
965.000000	27.576577
966.000000	27.547300
967.000000	27.520014
968.000000	27.494209
969.000000	27.469614
970.000000	27.446740
971.000000	27.424397
972.000000	27.402811
973.000000	27.382306
974.000000	27.362506
975.000000	27.343009
976.000000	27.324040
977.000000	27.304969
978.000000	27.286829
979.000000	27.268669
980.000000	27.251351
981.000000	27.234166
982.000000	27.217031
983.000000	27.199337
984.000000	27.181443
985.000000	27.162986
986.000000	27.143749
987.000000	27.124569
988.000000	27.104106
989.000000	27.083017
990.000000	27.061800
991.000000	27.040543
992.000000	27.019077
993.000000	26.997186
994.000000	26.975220
995.000000	26.952454
996.000000	26.930000
997.000000	26.908051
998.000000	26.886749
999.000000	26.864934
1000.000000	26.843354
1001.000000	26.821914
1002.000000	26.800303
1003.000000	26.778857
1004.000000	26.757446
1005.000000	26.736014
1006.000000	26.715109
1007.000000	26.693320
1008.000000	26.671109
1009.000000	26.649563
1010.000000	26.628703
1011.000000	26.608320
1012.000000	26.587611
1013.000000	26.566734
1014.000000	26.546437
1015.000000	26.526469
1016.000000	26.507420
1017.000000	26.489417
1018.000000	26.472309
1019.000000	26.456360
1020.000000	26.441380
1021.000000	26.427540
1022.000000	26.415097
1023.000000	26.404280
1024.000000	26.394771
1025.000000	26.386651
1026.000000	26.379991
1027.000000	26.374474
1028.000000	26.370423
1029.000000	26.368043
1030.000000	26.367511
1031.000000	26.367969
1032.000000	26.369543
1033.000000	26.372540
1034.000000	26.376783
1035.000000	26.382014
1036.000000	26.388306
1037.000000	26.395411
1038.000000	26.403289
1039.000000	26.411831
1040.000000	26.421274
1041.000000	26.431729
1042.000000	26.443263
1043.000000	26.455997
1044.000000	26.469683
1045.000000	26.483911
1046.000000	26.498471
1047.000000	26.514034
1048.000000	26.530557
1049.000000	26.547437
1050.000000	26.564257
1051.000000	26.581123
1052.000000	26.597343
1053.000000	26.613543
1054.000000	26.630191
1055.000000	26.647129
1056.000000	26.663654
1057.000000	26.679274
1058.000000	26.694400
1059.000000	26.709191
1060.000000	26.723449
1061.000000	26.737623
1062.000000	26.751923
1063.000000	26.765763
1064.000000	26.779034
1065.000000	26.792326
1066.000000	26.805400
1067.000000	26.817897
1068.000000	26.830046
1069.000000	26.842037
1070.000000	26.854217
1071.000000	26.866746
1072.000000	26.879669
1073.000000	26.892900
1074.000000	26.906657
1075.000000	26.920669
1076.000000	26.934794
1077.000000	26.948777
1078.000000	26.963197
1079.000000	26.977657
1080.000000	26.992509
1081.000000	27.007837
1082.000000	27.023657
1083.000000	27.040326
1084.000000	27.057260
1085.000000	27.074691
1086.000000	27.093163
1087.000000	27.112786
1088.000000	27.132217
1089.000000	27.151143
1090.000000	27.170423
1091.000000	27.190634
1092.000000	27.211294
1093.000000	27.231926
1094.000000	27.253214
1095.000000	27.274740
1096.000000	27.296094
1097.000000	27.317466
1098.000000	27.338383
1099.000000	27.359140
1100.000000	27.379943
1101.000000	27.400114
1102.000000	27.420563
1103.000000	27.441054
1104.000000	27.461469
1105.000000	27.480946
1106.000000	27.499871
1107.000000	27.518403
1108.000000	27.535931
1109.000000	27.552777
1110.000000	27.569266
1111.000000	27.584806
1112.000000	27.600271
1113.000000	27.615237
1114.000000	27.629909
1115.000000	27.643749
1116.000000	27.656937
1117.000000	27.669269
1118.000000	27.680223
1119.000000	27.690129
1120.000000	27.699106
1121.000000	27.706323
1122.000000	27.712034
1123.000000	27.716669
1124.000000	27.720054
1125.000000	27.721466
1126.000000	27.720326
1127.000000	27.716760
1128.000000	27.711543
1129.000000	27.703529
1130.000000	27.691923
1131.000000	27.675849
1132.000000	27.655749
1133.000000	27.631411
1134.000000	27.602491
1135.000000	27.569834
1136.000000	27.532011
1137.000000	27.488011
1138.000000	27.438237
1139.000000	27.382720
1140.000000	27.322949
1141.000000	27.258714
1142.000000	27.189109
1143.000000	27.115343
1144.000000	27.036917
1145.000000	26.955691
1146.000000	26.871414
1147.000000	26.785894
1148.000000	26.699531
1149.000000	26.612914
1150.000000	26.525997
1151.000000	26.440197
1152.000000	26.354391
1153.000000	26.268406
1154.000000	26.181994
1155.000000	26.094826
1156.000000	26.005957
1157.000000	25.913814
1158.000000	25.818503
1159.000000	25.719511
1160.000000	25.616403
1161.000000	25.509960
1162.000000	25.400554
1163.000000	25.286940
1164.000000	25.170526
1165.000000	25.050951
1166.000000	24.929820
1167.000000	24.806634
1168.000000	24.682689
1169.000000	24.559183
1170.000000	24.432634
1171.000000	24.306209
1172.000000	24.181069
1173.000000	24.056511
1174.000000	23.933271
1175.000000	23.809929
1176.000000	23.686563
1177.000000	23.564134
1178.000000	23.440874
1179.000000	23.316400
1180.000000	23.187574
1181.000000	23.055494
1182.000000	22.918029
1183.000000	22.774880
1184.000000	22.626414
1185.000000	22.474669
1186.000000	22.320026
1187.000000	22.166774
1188.000000	22.015671
1189.000000	21.869203
1190.000000	21.729417
1191.000000	21.597720
1192.000000	21.475826
1193.000000	21.363866
1194.000000	21.262091
1195.000000	21.169400
1196.000000	21.085060
1197.000000	21.007980
1198.000000	20.938677
1199.000000	20.875280
1200.000000	20.819257
1201.000000	20.769243
1202.000000	20.724811
1203.000000	20.685643
1204.000000	20.650829
1205.000000	20.621720
1206.000000	20.599140
1207.000000	20.581351
1208.000000	20.568866
1209.000000	20.561814
1210.000000	20.560586
1211.000000	20.565157
1212.000000	20.575837
1213.000000	20.592817
1214.000000	20.616837
1215.000000	20.650020
1216.000000	20.691603
1217.000000	20.741863
1218.000000	20.799700
1219.000000	20.864849
1220.000000	20.936066
1221.000000	21.011234
1222.000000	21.087917
1223.000000	21.165237
1224.000000	21.240614
1225.000000	21.312891
1226.000000	21.381911
1227.000000	21.447017
1228.000000	21.508100
1229.000000	21.565851
1230.000000	21.622131
1231.000000	21.677520
1232.000000	21.732457
1233.000000	21.787169
1234.000000	21.842940
1235.000000	21.899469
1236.000000	21.957257
1237.000000	22.016934
1238.000000	22.078103
1239.000000	22.140951
1240.000000	22.206340
1241.000000	22.271920
1242.000000	22.339146
1243.000000	22.407523
1244.000000	22.475803
1245.000000	22.544354
1246.000000	22.613163
1247.000000	22.681960
1248.000000	22.750871
1249.000000	22.819900
1250.000000	22.887774
1251.000000	22.955131
1252.000000	23.021689
1253.000000	23.088300
1254.000000	23.153809
1255.000000	23.217769
1256.000000	23.280949
1257.000000	23.341840
1258.000000	23.401494
1259.000000	23.460134
1260.000000	23.517891
1261.000000	23.574049
1262.000000	23.629194
1263.000000	23.682997
1264.000000	23.735189
1265.000000	23.785280
1266.000000	23.833480
1267.000000	23.880997
1268.000000	23.927340
1269.000000	23.972160
1270.000000	24.015474
1271.000000	24.057906
1272.000000	24.098957
1273.000000	24.138643
1274.000000	24.176729
1275.000000	24.213411
1276.000000	24.249554
1277.000000	24.284314
1278.000000	24.317966
1279.000000	24.351637
1280.000000	24.384849
1281.000000	24.416860
1282.000000	24.447720
1283.000000	24.478666
1284.000000	24.509349
1285.000000	24.539911
1286.000000	24.570291
1287.000000	24.600317
1288.000000	24.630069
1289.000000	24.660177
1290.000000	24.689923
1291.000000	24.718694
1292.000000	24.747331
1293.000000	24.775274
1294.000000	24.802891
1295.000000	24.829469
1296.000000	24.856063
1297.000000	24.881846
1298.000000	24.907074
1299.000000	24.931891
1300.000000	24.956834
1301.000000	24.981346
1302.000000	25.004386
1303.000000	25.026703
1304.000000	25.048754
1305.000000	25.070529
1306.000000	25.091737
1307.000000	25.111709
1308.000000	25.130654
1309.000000	25.148989
1310.000000	25.166171
1311.000000	25.181800
1312.000000	25.195923
1313.000000	25.208894
1314.000000	25.220309
1315.000000	25.229814
1316.000000	25.237614
1317.000000	25.243649
1318.000000	25.247174
1319.000000	25.248680
1320.000000	25.248149
1321.000000	25.245034
1322.000000	25.239849
1323.000000	25.231863
1324.000000	25.220534
1325.000000	25.207189
1326.000000	25.192157
1327.000000	25.175369
1328.000000	25.156029
1329.000000	25.133891
1330.000000	25.109240
1331.000000	25.081511
1332.000000	25.050814
1333.000000	25.016811
1334.000000	24.980354
1335.000000	24.941306
1336.000000	24.899083
1337.000000	24.853549
1338.000000	24.804523
1339.000000	24.751457
1340.000000	24.694480
1341.000000	24.633769
1342.000000	24.569923
1343.000000	24.502740
1344.000000	24.432043
1345.000000	24.357326
1346.000000	24.277877
1347.000000	24.194363
1348.000000	24.106066
1349.000000	24.012083
1350.000000	23.912877
1351.000000	23.808034
1352.000000	23.697011
1353.000000	23.579220
1354.000000	23.454260
1355.000000	23.323411
1356.000000	23.189117
1357.000000	23.052351
1358.000000	22.914614
1359.000000	22.777320
1360.000000	22.639763
1361.000000	22.503371
1362.000000	22.368000
1363.000000	22.232703
1364.000000	22.096220
1365.000000	21.959557
1366.000000	21.821097
1367.000000	21.681391
1368.000000	21.540969
1369.000000	21.397569
1370.000000	21.250903
1371.000000	21.101329
1372.000000	20.948517
1373.000000	20.790837
1374.000000	20.628671
1375.000000	20.461906
1376.000000	20.292029
1377.000000	20.119991
1378.000000	19.946826
1379.000000	19.773006
1380.000000	19.599069
1381.000000	19.427920
1382.000000	19.258791
1383.000000	19.091874
1384.000000	18.927071
1385.000000	18.764146
1386.000000	18.604714
1387.000000	18.450700
1388.000000	18.303371
1389.000000	18.163329
1390.000000	18.029309
1391.000000	17.899777
1392.000000	17.774817
1393.000000	17.652597
1394.000000	17.532169
1395.000000	17.414577
1396.000000	17.298717
1397.000000	17.182349
1398.000000	17.065749
1399.000000	16.950834
1400.000000	16.837171
1401.000000	16.727274
1402.000000	16.617214
1403.000000	16.506031
1404.000000	16.397091
1405.000000	16.290729
1406.000000	16.186051
1407.000000	16.084483
1408.000000	15.987346
1409.000000	15.895620
1410.000000	15.808906
1411.000000	15.726091
1412.000000	15.645686
1413.000000	15.568511
1414.000000	15.494060
1415.000000	15.422194
1416.000000	15.349451
1417.000000	15.277729
1418.000000	15.206660
1419.000000	15.137560
1420.000000	15.069929
1421.000000	15.002466
1422.000000	14.934277
1423.000000	14.864837
1424.000000	14.793549
1425.000000	14.720480
1426.000000	14.645060
1427.000000	14.566317
1428.000000	14.484971
1429.000000	14.401620
1430.000000	14.314723
1431.000000	14.223860
1432.000000	14.132643
1433.000000	14.041823
1434.000000	13.950897
1435.000000	13.859329
1436.000000	13.765966
1437.000000	13.674603
1438.000000	13.586969
1439.000000	13.500929
1440.000000	13.415626
1441.000000	13.332200
1442.000000	13.251800
1443.000000	13.172760
1444.000000	13.094763
1445.000000	13.018294
1446.000000	12.942986
1447.000000	12.869600
1448.000000	12.795986
1449.000000	12.722669
1450.000000	12.649491
1451.000000	12.578400
1452.000000	12.508263
1453.000000	12.438611
1454.000000	12.369711
1455.000000	12.302071
1456.000000	12.236140
1457.000000	12.171874
1458.000000	12.109143
1459.000000	12.047737
1460.000000	11.987146
1461.000000	11.928674
1462.000000	11.871729
1463.000000	11.816914
1464.000000	11.762563
1465.000000	11.709889
1466.000000	11.659060
1467.000000	11.608783
1468.000000	11.559460
1469.000000	11.510903
1470.000000	11.464180
1471.000000	11.418871
1472.000000	11.375043
1473.000000	11.332017
1474.000000	11.290114
1475.000000	11.249474
1476.000000	11.209591
1477.000000	11.170266
1478.000000	11.132863
1479.000000	11.096751
1480.000000	11.061186
1481.000000	11.026980
1482.000000	10.994140
1483.000000	10.961871
1484.000000	10.931180
1485.000000	10.901469
1486.000000	10.873329
1487.000000	10.845614
1488.000000	10.819706
1489.000000	10.794814
1490.000000	10.771577
1491.000000	10.749431
1492.000000	10.727989
1493.000000	10.706751
1494.000000	10.686983
1495.000000	10.669137
1496.000000	10.651563
1497.000000	10.635737
1498.000000	10.619674
1499.000000	10.604554
1500.000000	10.590586
1501.000000	10.577629
1502.000000	10.566091
1503.000000	10.555614
1504.000000	10.545800
1505.000000	10.536251
1506.000000	10.527806
1507.000000	10.520574
1508.000000	10.513977
1509.000000	10.508134
1510.000000	10.502803
1511.000000	10.499689
1512.000000	10.497103
1513.000000	10.495520
1514.000000	10.494086
1515.000000	10.494791
1516.000000	10.496154
1517.000000	10.497586
1518.000000	10.500686
1519.000000	10.503709
1520.000000	10.507809
1521.000000	10.512417
1522.000000	10.517969
1523.000000	10.523474
1524.000000	10.529223
1525.000000	10.535286
1526.000000	10.542449
1527.000000	10.550134
1528.000000	10.558529
1529.000000	10.566994
1530.000000	10.575546
1531.000000	10.584526
1532.000000	10.593071
1533.000000	10.602400
1534.000000	10.611949
1535.000000	10.621040
1536.000000	10.629906
1537.000000	10.638083
1538.000000	10.646077
1539.000000	10.654660
1540.000000	10.662726
1541.000000	10.670146
1542.000000	10.677000
1543.000000	10.683320
1544.000000	10.688974
1545.000000	10.695297
1546.000000	10.700757
1547.000000	10.705729
1548.000000	10.710111
1549.000000	10.714477
1550.000000	10.717914
1551.000000	10.721266
1552.000000	10.724774
1553.000000	10.728040
1554.000000	10.730949
1555.000000	10.733691
1556.000000	10.735906
1557.000000	10.736914
1558.000000	10.737729
1559.000000	10.738289
1560.000000	10.737897
1561.000000	10.736311
1562.000000	10.734180
1563.000000	10.732243
1564.000000	10.729486
1565.000000	10.725917
1566.000000	10.722003
1567.000000	10.717271
1568.000000	10.712311
1569.000000	10.707357
1570.000000	10.702054
1571.000000	10.696006
1572.000000	10.689637
1573.000000	10.682809
1574.000000	10.675900
1575.000000	10.669020
1576.000000	10.662063
1577.000000	10.654940
1578.000000	10.648211
1579.000000	10.641526
1580.000000	10.634700
1581.000000	10.628363
1582.000000	10.622409
1583.000000	10.616917
1584.000000	10.612186
1585.000000	10.607614
1586.000000	10.602440
1587.000000	10.597403
1588.000000	10.593203
1589.000000	10.589909
1590.000000	10.587546
1591.000000	10.585177
1592.000000	10.583909
1593.000000	10.583874
1594.000000	10.584643
1595.000000	10.586866
1596.000000	10.590434
1597.000000	10.595000
1598.000000	10.600171
1599.000000	10.606517
1600.000000	10.614503
1601.000000	10.623860
1602.000000	10.634709
1603.000000	10.646460
1604.000000	10.659189
1605.000000	10.673523
1606.000000	10.689211
1607.000000	10.705809
1608.000000	10.724191
1609.000000	10.743886
1610.000000	10.764534
1611.000000	10.785800
1612.000000	10.808194
1613.000000	10.831337
1614.000000	10.856034
1615.000000	10.881449
1616.000000	10.907520
1617.000000	10.934814
1618.000000	10.962671
1619.000000	10.990931
1620.000000	11.019560
1621.000000	11.049791
1622.000000	11.080637
1623.000000	11.112043
1624.000000	11.143543
1625.000000	11.175203
1626.000000	11.208154
1627.000000	11.241709
1628.000000	11.275849
1629.000000	11.310529
1630.000000	11.345477
1631.000000	11.380737
1632.000000	11.416211
1633.000000	11.451746
1634.000000	11.487397
1635.000000	11.523440
1636.000000	11.559691
1637.000000	11.596197
1638.000000	11.632783
1639.000000	11.668883
1640.000000	11.704569
1641.000000	11.740811
1642.000000	11.776963
1643.000000	11.812777
1644.000000	11.848003
1645.000000	11.882809
1646.000000	11.917814
1647.000000	11.952700
1648.000000	11.987346
1649.000000	12.021389
1650.000000	12.054720
1651.000000	12.088126
1652.000000	12.119486
1653.000000	12.150186
1654.000000	12.180349
1655.000000	12.209871
1656.000000	12.238374
1657.000000	12.265691
1658.000000	12.291580
1659.000000	12.316200
1660.000000	12.338983
1661.000000	12.360143
1662.000000	12.379880
1663.000000	12.396800
1664.000000	12.412197
1665.000000	12.425760
1666.000000	12.436011
1667.000000	12.444034
1668.000000	12.449260
1669.000000	12.451486
1670.000000	12.449743
1671.000000	12.444280
1672.000000	12.433931
1673.000000	12.419466
1674.000000	12.400840
1675.000000	12.377594
1676.000000	12.347271
1677.000000	12.309649
1678.000000	12.264289
1679.000000	12.210263
1680.000000	12.148180
1681.000000	12.077520
1682.000000	12.000080
1683.000000	11.917894
1684.000000	11.831754
1685.000000	11.744306
1686.000000	11.655417
1687.000000	11.567346
1688.000000	11.478969
1689.000000	11.389071
1690.000000	11.298006
1691.000000	11.204231
1692.000000	11.108834
1693.000000	11.011823
1694.000000	10.913477
1695.000000	10.814837
1696.000000	10.716409
1697.000000	10.619666
1698.000000	10.525740
1699.000000	10.434074
1700.000000	10.345254
1701.000000	10.260849
1702.000000	10.179869
1703.000000	10.101634
1704.000000	10.027434
1705.000000	9.956223
1706.000000	9.887591
1707.000000	9.823246
1708.000000	9.762837
1709.000000	9.706549
1710.000000	9.653703
1711.000000	9.606814
1712.000000	9.566286
1713.000000	9.532031
1714.000000	9.504814
1715.000000	9.484629
1716.000000	9.471640
1717.000000	9.463460
1718.000000	9.459166
1719.000000	9.458217
1720.000000	9.457697
1721.000000	9.457040
1722.000000	9.455500
1723.000000	9.454389
1724.000000	9.454169
1725.000000	9.454611
1726.000000	9.456283
1727.000000	9.458554
1728.000000	9.461406
1729.000000	9.464666
1730.000000	9.466551
1731.000000	9.467386
1732.000000	9.465920
1733.000000	9.462017
1734.000000	9.456066
1735.000000	9.448303
1736.000000	9.440269
1737.000000	9.431646
1738.000000	9.425280
1739.000000	9.420186
1740.000000	9.418140
1741.000000	9.419254
1742.000000	9.423717
1743.000000	9.429766
1744.000000	9.438240
1745.000000	9.449666
1746.000000	9.463109
1747.000000	9.478340
1748.000000	9.495586
1749.000000	9.515180
1750.000000	9.536274
1751.000000	9.559483
1752.000000	9.583854
1753.000000	9.608380
1754.000000	9.632869
1755.000000	9.657909
1756.000000	9.683466
1757.000000	9.708931
1758.000000	9.733620
1759.000000	9.757823
1760.000000	9.780794
1761.000000	9.804011
1762.000000	9.827840
1763.000000	9.853157
1764.000000	9.880143
1765.000000	9.909597
1766.000000	9.941323
1767.000000	9.975803
1768.000000	10.012534
1769.000000	10.050943
1770.000000	10.091271
1771.000000	10.131563
1772.000000	10.172031
1773.000000	10.211880
1774.000000	10.249909
1775.000000	10.286563
1776.000000	10.321946
1777.000000	10.354500
1778.000000	10.386634
1779.000000	10.417469
1780.000000	10.446369
1781.000000	10.474291
1782.000000	10.502386
1783.000000	10.530049
1784.000000	10.557543
1785.000000	10.585506
1786.000000	10.613206
1787.000000	10.641463
1788.000000	10.670597
1789.000000	10.700666
1790.000000	10.731500
1791.000000	10.762769
1792.000000	10.795583
1793.000000	10.830043
1794.000000	10.865886
1795.000000	10.903954
1796.000000	10.943249
1797.000000	10.983863
1798.000000	11.024817
1799.000000	11.065951
1800.000000	11.107214
1801.000000	11.148480
1802.000000	11.189040
1803.000000	11.228609
1804.000000	11.266786
1805.000000	11.303257
1806.000000	11.338937
1807.000000	11.374057
1808.000000	11.407200
1809.000000	11.438943
1810.000000	11.468866
1811.000000	11.498060
1812.000000	11.526854
1813.000000	11.553940
1814.000000	11.579011
1815.000000	11.604051
1816.000000	11.628329
1817.000000	11.650566
1818.000000	11.670989
1819.000000	11.689780
1820.000000	11.708349
1821.000000	11.727280
1822.000000	11.746166
1823.000000	11.764277
1824.000000	11.780857
1825.000000	11.796837
1826.000000	11.813326
1827.000000	11.829957
1828.000000	11.846911
1829.000000	11.864623
1830.000000	11.882717
1831.000000	11.902009
1832.000000	11.921786
1833.000000	11.941000
1834.000000	11.959931
1835.000000	11.979457
1836.000000	11.999034
1837.000000	12.019134
1838.000000	12.040146
1839.000000	12.061569
1840.000000	12.083260
1841.000000	12.105223
1842.000000	12.127340
1843.000000	12.149389
1844.000000	12.171217
1845.000000	12.191671
1846.000000	12.210874
1847.000000	12.231203
1848.000000	12.254377
1849.000000	12.280409
1850.000000	12.306131
1851.000000	12.331303
1852.000000	12.356866
1853.000000	12.383703
1854.000000	12.412077
1855.000000	12.440269
1856.000000	12.467749
1857.000000	12.494357
1858.000000	12.521049
1859.000000	12.549566
1860.000000	12.578857
1861.000000	12.607317
1862.000000	12.634611
1863.000000	12.659894
1864.000000	12.682303
1865.000000	12.702074
1866.000000	12.718637
1867.000000	12.732814
1868.000000	12.745746
1869.000000	12.756260
1870.000000	12.764934
1871.000000	12.771766
1872.000000	12.775183
1873.000000	12.774731
1874.000000	12.771251
1875.000000	12.763386
1876.000000	12.750051
1877.000000	12.731286
1878.000000	12.707857
1879.000000	12.679186
1880.000000	12.646017
1881.000000	12.607360
1882.000000	12.560926
1883.000000	12.506351
1884.000000	12.444071
1885.000000	12.376477
1886.000000	12.304794
1887.000000	12.228640
1888.000000	12.147360
1889.000000	12.060757
1890.000000	11.969614
1891.000000	11.874749
1892.000000	11.777009
1893.000000	11.675834
1894.000000	11.569429
1895.000000	11.458857
1896.000000	11.344306
1897.000000	11.226000
1898.000000	11.104471
1899.000000	10.981077
1900.000000	10.855797
1901.000000	10.728609
1902.000000	10.599917
1903.000000	10.468706
1904.000000	10.335940
1905.000000	10.201071
1906.000000	10.064549
1907.000000	9.927114
1908.000000	9.788914
1909.000000	9.650026
1910.000000	9.512009
1911.000000	9.374297
1912.000000	9.238866
1913.000000	9.104940
1914.000000	8.975106
1915.000000	8.847974
1916.000000	8.723909
1917.000000	8.602700
1918.000000	8.484157
1919.000000	8.368960
1920.000000	8.257531
1921.000000	8.148817
1922.000000	8.042726
1923.000000	7.939357
1924.000000	7.837829
1925.000000	7.738237
1926.000000	7.640420
1927.000000	7.544589
1928.000000	7.451191
1929.000000	7.360457
1930.000000	7.272763
1931.000000	7.187640
1932.000000	7.105997
1933.000000	7.027031
1934.000000	6.950211
1935.000000	6.876531
1936.000000	6.806591
1937.000000	6.739106
1938.000000	6.675011
1939.000000	6.614406
1940.000000	6.557646
1941.000000	6.503637
1942.000000	6.451663
1943.000000	6.403371
1944.000000	6.358257
1945.000000	6.316580
1946.000000	6.279149
1947.000000	6.243657
1948.000000	6.211680
1949.000000	6.181091
1950.000000	6.153914
1951.000000	6.130771
1952.000000	6.110997
1953.000000	6.093886
1954.000000	6.079860
1955.000000	6.067977
1956.000000	6.057689
1957.000000	6.050989
1958.000000	6.045634
1959.000000	6.043686
1960.000000	6.044483
1961.000000	6.047046
1962.000000	6.051331
1963.000000	6.057651
1964.000000	6.065760
1965.000000	6.074614
1966.000000	6.085843
1967.000000	6.098311
1968.000000	6.111714
1969.000000	6.127863
1970.000000	6.144949
1971.000000	6.162829
1972.000000	6.181609
1973.000000	6.201331
1974.000000	6.222326
1975.000000	6.242794
1976.000000	6.263534
1977.000000	6.285569
1978.000000	6.308540
1979.000000	6.333200
1980.000000	6.357411
1981.000000	6.381929
1982.000000	6.406929
1983.000000	6.431274
1984.000000	6.456923
1985.000000	6.482854
1986.000000	6.508080
1987.000000	6.533823
1988.000000	6.559931
1989.000000	6.585560
1990.000000	6.611620
1991.000000	6.637389
1992.000000	6.662200
1993.000000	6.688323
1994.000000	6.713657
1995.000000	6.737871
1996.000000	6.762431
1997.000000	6.786766
1998.000000	6.810266
1999.000000	6.833017
2000.000000	6.855880
2001.000000	6.877406
2002.000000	6.898554
2003.000000	6.919666
2004.000000	6.939951
2005.000000	6.959449
2006.000000	6.977591
2007.000000	6.994991
2008.000000	7.011743
2009.000000	7.026437
2010.000000	7.040774
2011.000000	7.054371
2012.000000	7.066554
2013.000000	7.077506
2014.000000	7.085489
2015.000000	7.092623
2016.000000	7.098169
2017.000000	7.102523
2018.000000	7.105794
2019.000000	7.107214
2020.000000	7.106903
2021.000000	7.105114
2022.000000	7.101314
2023.000000	7.095789
2024.000000	7.088903
2025.000000	7.079343
2026.000000	7.068903
2027.000000	7.057077
2028.000000	7.043366
2029.000000	7.027923
2030.000000	7.011111
2031.000000	6.992291
2032.000000	6.971477
2033.000000	6.948869
2034.000000	6.925103
2035.000000	6.899571
2036.000000	6.872434
2037.000000	6.843440
2038.000000	6.813217
2039.000000	6.780611
2040.000000	6.746649
2041.000000	6.711506
2042.000000	6.674803
2043.000000	6.636243
2044.000000	6.597511
2045.000000	6.557197
2046.000000	6.514997
2047.000000	6.472011
2048.000000	6.427977
2049.000000	6.383526
2050.000000	6.338609
2051.000000	6.293963
2052.000000	6.248626
2053.000000	6.203586
2054.000000	6.158457
2055.000000	6.113669
2056.000000	6.069046
2057.000000	6.025303
2058.000000	5.982380
2059.000000	5.939763
2060.000000	5.898246
2061.000000	5.857871
2062.000000	5.818534
2063.000000	5.780080
2064.000000	5.743026
2065.000000	5.707389
2066.000000	5.672634
2067.000000	5.639749
2068.000000	5.608671
2069.000000	5.579000
2070.000000	5.550506
2071.000000	5.524094
2072.000000	5.499354
2073.000000	5.476354
2074.000000	5.454863
2075.000000	5.435117
2076.000000	5.416897
2077.000000	5.400906
2078.000000	5.387143
2079.000000	5.374551
2080.000000	5.364117
2081.000000	5.355717
2082.000000	5.348797
2083.000000	5.342949
2084.000000	5.339109
2085.000000	5.336134
2086.000000	5.333560
2087.000000	5.332540
2088.000000	5.332534
2089.000000	5.333289
2090.000000	5.334794
2091.000000	5.336954
2092.000000	5.339054
2093.000000	5.341657
2094.000000	5.345383
2095.000000	5.350026
2096.000000	5.354629
2097.000000	5.358811
2098.000000	5.363189
2099.000000	5.367749
2100.000000	5.372397
2101.000000	5.377380
2102.000000	5.382449
2103.000000	5.387494
2104.000000	5.392717
2105.000000	5.398129
2106.000000	5.403066
2107.000000	5.408306
2108.000000	5.413640
2109.000000	5.419000
2110.000000	5.424557
2111.000000	5.430483
2112.000000	5.436169
2113.000000	5.441660
2114.000000	5.447297
2115.000000	5.452423
2116.000000	5.457483
2117.000000	5.463486
2118.000000	5.469840
2119.000000	5.475709
2120.000000	5.481629
2121.000000	5.487537
2122.000000	5.493440
2123.000000	5.499337
2124.000000	5.505123
2125.000000	5.510757
2126.000000	5.516149
2127.000000	5.521914
2128.000000	5.527609
2129.000000	5.532491
2130.000000	5.536623
2131.000000	5.540554
2132.000000	5.544451
2133.000000	5.547866
2134.000000	5.550831
2135.000000	5.553874
2136.000000	5.556591
2137.000000	5.558517
2138.000000	5.559766
2139.000000	5.560643
2140.000000	5.561180
2141.000000	5.561480
2142.000000	5.560486
2143.000000	5.558917
2144.000000	5.556820
2145.000000	5.554331
2146.000000	5.551149
2147.000000	5.547117
2148.000000	5.542137
2149.000000	5.536691
2150.000000	5.530929
2151.000000	5.524914
2152.000000	5.517069
2153.000000	5.508383
2154.000000	5.499434
2155.000000	5.490040
2156.000000	5.480140
2157.000000	5.469671
2158.000000	5.459014
2159.000000	5.447794
2160.000000	5.436197
2161.000000	5.424037
2162.000000	5.412103
2163.000000	5.399426
2164.000000	5.386520
2165.000000	5.373354
2166.000000	5.360240
2167.000000	5.346923
2168.000000	5.333174
2169.000000	5.319666
2170.000000	5.305794
2171.000000	5.291911
2172.000000	5.278320
2173.000000	5.264446
2174.000000	5.250431
2175.000000	5.236551
2176.000000	5.223220
2177.000000	5.209929
2178.000000	5.196249
2179.000000	5.182669
2180.000000	5.169200
2181.000000	5.156217
2182.000000	5.143209
2183.000000	5.131077
2184.000000	5.118700
2185.000000	5.105546
2186.000000	5.091929
2187.000000	5.078523
2188.000000	5.065069
2189.000000	5.051043
2190.000000	5.036234
2191.000000	5.020857
2192.000000	5.004483
2193.000000	4.986797
2194.000000	4.967991
2195.000000	4.947323
2196.000000	4.925700
2197.000000	4.902831
2198.000000	4.878240
2199.000000	4.852274
2200.000000	4.825211
2201.000000	4.796534
2202.000000	4.767209
2203.000000	4.736929
2204.000000	4.705323
2205.000000	4.672597
2206.000000	4.639146
2207.000000	4.605000
2208.000000	4.571194
2209.000000	4.537137
2210.000000	4.503063
2211.000000	4.468586
2212.000000	4.434940
2213.000000	4.401997
2214.000000	4.369689
2215.000000	4.338289
2216.000000	4.306683
2217.000000	4.277337
2218.000000	4.248240
2219.000000	4.220917
2220.000000	4.194869
2221.000000	4.169671
2222.000000	4.146046
2223.000000	4.123563
2224.000000	4.102883
2225.000000	4.084746
2226.000000	4.067563
2227.000000	4.052257
2228.000000	4.038386
2229.000000	4.026289
2230.000000	4.016640
2231.000000	4.008137
2232.000000	4.000714
2233.000000	3.995037
2234.000000	3.990794
2235.000000	3.987994
2236.000000	3.985897
2237.000000	3.984226
2238.000000	3.983674
2239.000000	3.984154
2240.000000	3.984760
2241.000000	3.985983
2242.000000	3.986320
2243.000000	3.985583
2244.000000	3.984763
2245.000000	3.983646
2246.000000	3.981414
2247.000000	3.977223
2248.000000	3.972437
2249.000000	3.965677
2250.000000	3.956643
2251.000000	3.946163
2252.000000	3.932000
2253.000000	3.916046
2254.000000	3.897237
2255.000000	3.876591
2256.000000	3.853480
2257.000000	3.828380
2258.000000	3.800983
2259.000000	3.771246
2260.000000	3.738386
2261.000000	3.704180
2262.000000	3.667797
2263.000000	3.630317
2264.000000	3.591766
2265.000000	3.552317
2266.000000	3.512600
2267.000000	3.472083
2268.000000	3.432600
2269.000000	3.393149
2270.000000	3.353677
2271.000000	3.315297
2272.000000	3.277486
2273.000000	3.240654
2274.000000	3.203960
2275.000000	3.169023
2276.000000	3.135609
2277.000000	3.103789
2278.000000	3.073717
2279.000000	3.045203
2280.000000	3.017831
2281.000000	2.992191
2282.000000	2.969126
2283.000000	2.946951
2284.000000	2.927371
2285.000000	2.909114
2286.000000	2.893131
2287.000000	2.879797
2288.000000	2.868083
2289.000000	2.858237
2290.000000	2.850454
2291.000000	2.844849
2292.000000	2.840423
2293.000000	2.837194
2294.000000	2.834671
2295.000000	2.833823
2296.000000	2.833991
2297.000000	2.835546
2298.000000	2.837034
2299.000000	2.839026
2300.000000	2.841066
2301.000000	2.843320
2302.000000	2.845917
2303.000000	2.847654
2304.000000	2.849086
2305.000000	2.850303
2306.000000	2.851709
2307.000000	2.853166
2308.000000	2.855106
2309.000000	2.857411
2310.000000	2.859289
2311.000000	2.860440
2312.000000	2.862429
2313.000000	2.865277
2314.000000	2.867926
2315.000000	2.871043
2316.000000	2.875186
2317.000000	2.879551
2318.000000	2.883703
2319.000000	2.888206
2320.000000	2.893983
2321.000000	2.899769
2322.000000	2.905863
2323.000000	2.912709
2324.000000	2.920566
2325.000000	2.928314
2326.000000	2.936823
2327.000000	2.946731
2328.000000	2.957363
2329.000000	2.968886
2330.000000	2.981549
2331.000000	2.995154
2332.000000	3.009297
2333.000000	3.024497
2334.000000	3.040520
2335.000000	3.057377
2336.000000	3.074877
2337.000000	3.092863
2338.000000	3.111640
2339.000000	3.130620
2340.000000	3.149503
2341.000000	3.167266
2342.000000	3.184366
2343.000000	3.200831
2344.000000	3.216394
2345.000000	3.231083
2346.000000	3.244594
2347.000000	3.257060
2348.000000	3.268403
2349.000000	3.278443
2350.000000	3.286880
2351.000000	3.293523
2352.000000	3.299391
2353.000000	3.305023
2354.000000	3.309391
2355.000000	3.313209
2356.000000	3.316709
2357.000000	3.319757
2358.000000	3.322103
2359.000000	3.323683
2360.000000	3.325969
2361.000000	3.327971
2362.000000	3.328803
2363.000000	3.330046
2364.000000	3.332109
2365.000000	3.334166
2366.000000	3.335837
2367.000000	3.337343
2368.000000	3.339166
2369.000000	3.340954
2370.000000	3.343066
2371.000000	3.345549
2372.000000	3.347880
2373.000000	3.349471
2374.000000	3.351666
2375.000000	3.354729
2376.000000	3.358209
2377.000000	3.362437
2378.000000	3.367389
2379.000000	3.373194
2380.000000	3.379157
2381.000000	3.385520
2382.000000	3.392143
2383.000000	3.398886
2384.000000	3.406089
2385.000000	3.413320
2386.000000	3.421183
2387.000000	3.428657
2388.000000	3.435711
2389.000000	3.442503
2390.000000	3.448329
2391.000000	3.453346
2392.000000	3.458014
2393.000000	3.462149
2394.000000	3.465697
2395.000000	3.467534
2396.000000	3.467920
2397.000000	3.467889
2398.000000	3.466886
2399.000000	3.464606
2400.000000	3.461011
2401.000000	3.457589
2402.000000	3.453120
2403.000000	3.447663
2404.000000	3.441894
2405.000000	3.435074
2406.000000	3.427351
2407.000000	3.419917
2408.000000	3.412234
2409.000000	3.403180
2410.000000	3.393829
2411.000000	3.385086
2412.000000	3.375466
2413.000000	3.364700
2414.000000	3.352777
2415.000000	3.340900
2416.000000	3.328866
2417.000000	3.316474
2418.000000	3.303789
2419.000000	3.290886
2420.000000	3.278094
2421.000000	3.263957
2422.000000	3.249889
2423.000000	3.235017
2424.000000	3.219443
2425.000000	3.203343
2426.000000	3.187154
2427.000000	3.170380
2428.000000	3.153543
2429.000000	3.136300
2430.000000	3.119651
2431.000000	3.103749
2432.000000	3.087823
2433.000000	3.071234
2434.000000	3.054583
2435.000000	3.038186
2436.000000	3.020689
2437.000000	3.003997
2438.000000	2.987209
2439.000000	2.969757
2440.000000	2.952217
2441.000000	2.934206
2442.000000	2.916131
2443.000000	2.898120
2444.000000	2.880774
2445.000000	2.862286
2446.000000	2.843123
2447.000000	2.824431
2448.000000	2.805369
2449.000000	2.787160
2450.000000	2.768851
2451.000000	2.749517
2452.000000	2.730091
2453.000000	2.709849
2454.000000	2.689960
2455.000000	2.669860
2456.000000	2.650494
2457.000000	2.631200
2458.000000	2.612663
2459.000000	2.594931
2460.000000	2.577740
2461.000000	2.560520
2462.000000	2.544329
2463.000000	2.527669
2464.000000	2.510823
2465.000000	2.493674
2466.000000	2.475980
2467.000000	2.460540
2468.000000	2.445454
2469.000000	2.430203
2470.000000	2.415634
2471.000000	2.401014
2472.000000	2.386286
2473.000000	2.374169
2474.000000	2.360869
2475.000000	2.348337
2476.000000	2.336317
2477.000000	2.325734
2478.000000	2.314511
2479.000000	2.304631
2480.000000	2.294529
2481.000000	2.286111
2482.000000	2.277083
2483.000000	2.268914
2484.000000	2.260903
2485.000000	2.253274
2486.000000	2.249089
2487.000000	2.244966
2488.000000	2.242003
2489.000000	2.238609
2490.000000	2.234420
2491.000000	2.231600
2492.000000	2.227740
2493.000000	2.227020
2494.000000	2.228700
2495.000000	2.231046
2496.000000	2.233391
2497.000000	2.236183
2498.000000	2.234523
2499.000000	2.235734
2500.000000	2.239754
