PE UV       SUBTECH     SPECTRUM    ASCII       PEDS        4.00        
   -1
CICIMAUCR0020-1.Sample.ASC
24/03/08
12:01:00.00
24/03/08
12:01:00.00
Vinicio Soto Monge
C. resplendens
250,000000
1
Lambda 1050
1050L1511233
PerkinElmer UV WinLab 6.3.2.0749 / 2.02.05 Lambda 900 UV/VIS/NIR, Aug  7 2015 09:38:08

0
0
3350/servo 860,8/2
0
0
UV/VIS
1
1
1
DoubleDePol,CommonBeamDepol,RBeamAtt,SBeamAtt,60mm sphere, WB InGaAs Detector
0
0
0
0
Program
Program
3350/servo 860,8/2
3350/0,2 860,8/0,2
3350/0,2 860,8/0,2
0
15.00
 
 
 
0
 
860,8
319,2
860,8
Front
100
on
S:100 R:100
0
0
0
0
 
0
 
 
 
0
 
 
0
0
0
0
0
 
 
 
 
0
0


0
0
#HDR
-1
-1
#GR
nm
%R
1.0
0.0
2500,000000
-1,000000
2251
8
26,391500
2,064300
#DATA
250.000000	nan
251.000000	nan
252.000000	nan
253.000000	nan
254.000000	nan
255.000000	nan
256.000000	nan
257.000000	nan
258.000000	nan
259.000000	nan
260.000000	nan
261.000000	nan
262.000000	nan
263.000000	nan
264.000000	nan
265.000000	nan
266.000000	nan
267.000000	nan
268.000000	nan
269.000000	nan
270.000000	nan
271.000000	nan
272.000000	nan
273.000000	nan
274.000000	nan
275.000000	nan
276.000000	nan
277.000000	nan
278.000000	nan
279.000000	nan
280.000000	nan
281.000000	nan
282.000000	nan
283.000000	nan
284.000000	2.313948
285.000000	2.311444
286.000000	2.308265
287.000000	2.305667
288.000000	2.302762
289.000000	2.300839
290.000000	2.296901
291.000000	2.293592
292.000000	2.290377
293.000000	2.289420
294.000000	2.286764
295.000000	2.284929
296.000000	2.281610
297.000000	2.280270
298.000000	2.276685
299.000000	2.273339
300.000000	2.269389
301.000000	2.267639
302.000000	2.265627
303.000000	2.264564
304.000000	2.264479
305.000000	2.265062
306.000000	2.264530
307.000000	2.262728
308.000000	2.260963
309.000000	2.260610
310.000000	2.260717
311.000000	2.258936
312.000000	2.256815
313.000000	2.257526
314.000000	2.258389
315.000000	2.258016
316.000000	2.259395
317.000000	2.278681
318.000000	2.293370
319.000000	2.303164
320.000000	2.320441
321.000000	2.338123
322.000000	2.348062
323.000000	2.358549
324.000000	2.371220
325.000000	2.386690
326.000000	2.391457
327.000000	2.398723
328.000000	2.407249
329.000000	2.416213
330.000000	2.425554
331.000000	2.432989
332.000000	2.439592
333.000000	2.446362
334.000000	2.454232
335.000000	2.465108
336.000000	2.474072
337.000000	2.481902
338.000000	2.487353
339.000000	2.493112
340.000000	2.498159
341.000000	2.504042
342.000000	2.512626
343.000000	2.522301
344.000000	2.528566
345.000000	2.536005
346.000000	2.544872
347.000000	2.551575
348.000000	2.557856
349.000000	2.562997
350.000000	2.570345
351.000000	2.574693
352.000000	2.560144
353.000000	2.550457
354.000000	2.546771
355.000000	2.535993
356.000000	2.523966
357.000000	2.521058
358.000000	2.518320
359.000000	2.512632
360.000000	2.506615
361.000000	2.510711
362.000000	2.511653
363.000000	2.509909
364.000000	2.509730
365.000000	2.511000
366.000000	2.514883
367.000000	2.518949
368.000000	2.524619
369.000000	2.526248
370.000000	2.526600
371.000000	2.526652
372.000000	2.526819
373.000000	2.530174
374.000000	2.532064
375.000000	2.530967
376.000000	2.532152
377.000000	2.527147
378.000000	2.520076
379.000000	2.516500
380.000000	2.512088
381.000000	2.507490
382.000000	2.504087
383.000000	2.501058
384.000000	2.499155
385.000000	2.495664
386.000000	2.493327
387.000000	2.492589
388.000000	2.492154
389.000000	2.491319
390.000000	2.489751
391.000000	2.489711
392.000000	2.489192
393.000000	2.488077
394.000000	2.487973
395.000000	2.486843
396.000000	2.485403
397.000000	2.486229
398.000000	2.488298
399.000000	2.488970
400.000000	2.488630
401.000000	2.489681
402.000000	2.490854
403.000000	2.492677
404.000000	2.497970
405.000000	2.503233
406.000000	2.510119
407.000000	2.519481
408.000000	2.529682
409.000000	2.542012
410.000000	2.558482
411.000000	2.574170
412.000000	2.596623
413.000000	2.620388
414.000000	2.645952
415.000000	2.673640
416.000000	2.703701
417.000000	2.736063
418.000000	2.770481
419.000000	2.807228
420.000000	2.846870
421.000000	2.889672
422.000000	2.935312
423.000000	2.984258
424.000000	3.036201
425.000000	3.091613
426.000000	3.150803
427.000000	3.213806
428.000000	3.280914
429.000000	3.351526
430.000000	3.425477
431.000000	3.503515
432.000000	3.585115
433.000000	3.670342
434.000000	3.759323
435.000000	3.851810
436.000000	3.947916
437.000000	4.047504
438.000000	4.150252
439.000000	4.256070
440.000000	4.364907
441.000000	4.476851
442.000000	4.591128
443.000000	4.707046
444.000000	4.824808
445.000000	4.944618
446.000000	5.066227
447.000000	5.189186
448.000000	5.313326
449.000000	5.438171
450.000000	5.563214
451.000000	5.688111
452.000000	5.812835
453.000000	5.937364
454.000000	6.061344
455.000000	6.184238
456.000000	6.305857
457.000000	6.425606
458.000000	6.543317
459.000000	6.659028
460.000000	6.772038
461.000000	6.882307
462.000000	6.989862
463.000000	7.094097
464.000000	7.195305
465.000000	7.293170
466.000000	7.387179
467.000000	7.477676
468.000000	7.564535
469.000000	7.647274
470.000000	7.725607
471.000000	7.799492
472.000000	7.869009
473.000000	7.933884
474.000000	7.994080
475.000000	8.049711
476.000000	8.100629
477.000000	8.146759
478.000000	8.188525
479.000000	8.226298
480.000000	8.259164
481.000000	8.285825
482.000000	8.306849
483.000000	8.322924
484.000000	8.334771
485.000000	8.342991
486.000000	8.347455
487.000000	8.348539
488.000000	8.346063
489.000000	8.340429
490.000000	8.331979
491.000000	8.321818
492.000000	8.310289
493.000000	8.297618
494.000000	8.284136
495.000000	8.270519
496.000000	8.256897
497.000000	8.243953
498.000000	8.232147
499.000000	8.221719
500.000000	8.213259
501.000000	8.207544
502.000000	8.204651
503.000000	8.204636
504.000000	8.208592
505.000000	8.216909
506.000000	8.229066
507.000000	8.245150
508.000000	8.265691
509.000000	8.291130
510.000000	8.321149
511.000000	8.355583
512.000000	8.394635
513.000000	8.438209
514.000000	8.485989
515.000000	8.538521
516.000000	8.596650
517.000000	8.660856
518.000000	8.730885
519.000000	8.806428
520.000000	8.886709
521.000000	8.972772
522.000000	9.064496
523.000000	9.162158
524.000000	9.266149
525.000000	9.376443
526.000000	9.492306
527.000000	9.614425
528.000000	9.742154
529.000000	9.875888
530.000000	10.015495
531.000000	10.161565
532.000000	10.314038
533.000000	10.472922
534.000000	10.638178
535.000000	10.810076
536.000000	10.988174
537.000000	11.172750
538.000000	11.364524
539.000000	11.562862
540.000000	11.768419
541.000000	11.982224
542.000000	12.203916
543.000000	12.433546
544.000000	12.671590
545.000000	12.917525
546.000000	13.171691
547.000000	13.433585
548.000000	13.703315
549.000000	13.981341
550.000000	14.267845
551.000000	14.561730
552.000000	14.863071
553.000000	15.170967
554.000000	15.484205
555.000000	15.802915
556.000000	16.126320
557.000000	16.453985
558.000000	16.784631
559.000000	17.116744
560.000000	17.435707
561.000000	17.752873
562.000000	18.068849
563.000000	18.382858
564.000000	18.694385
565.000000	19.002934
566.000000	19.307579
567.000000	19.606483
568.000000	19.899089
569.000000	20.185638
570.000000	20.465776
571.000000	20.738092
572.000000	21.001378
573.000000	21.256082
574.000000	21.502397
575.000000	21.740805
576.000000	21.969013
577.000000	22.187819
578.000000	22.397472
579.000000	22.597934
580.000000	22.788976
581.000000	22.970528
582.000000	23.144311
583.000000	23.309758
584.000000	23.466996
585.000000	23.615403
586.000000	23.756143
587.000000	23.889013
588.000000	24.013968
589.000000	24.131089
590.000000	24.241866
591.000000	24.344790
592.000000	24.439632
593.000000	24.528406
594.000000	24.610601
595.000000	24.702009
596.000000	24.789276
597.000000	24.870875
598.000000	24.948759
599.000000	25.021929
600.000000	25.090322
601.000000	25.154307
602.000000	25.214785
603.000000	25.272477
604.000000	25.326054
605.000000	25.375037
606.000000	25.420537
607.000000	25.463458
608.000000	25.503322
609.000000	25.538703
610.000000	25.569163
611.000000	25.595629
612.000000	25.618364
613.000000	25.638064
614.000000	25.653260
615.000000	25.664409
616.000000	25.672726
617.000000	25.676424
618.000000	25.676493
619.000000	25.671841
620.000000	25.662455
621.000000	25.648766
622.000000	25.629674
623.000000	25.605326
624.000000	25.576881
625.000000	25.542584
626.000000	25.502674
627.000000	25.457873
628.000000	25.406802
629.000000	25.349187
630.000000	25.283625
631.000000	25.212284
632.000000	25.134310
633.000000	25.048174
634.000000	24.954584
635.000000	24.853807
636.000000	24.745757
637.000000	24.629304
638.000000	24.505975
639.000000	24.375274
640.000000	24.237879
641.000000	24.094225
642.000000	23.945325
643.000000	23.789653
644.000000	23.629803
645.000000	23.463358
646.000000	23.292128
647.000000	23.115094
648.000000	22.930224
649.000000	22.738340
650.000000	22.539580
651.000000	22.332883
652.000000	22.118611
653.000000	21.897125
654.000000	21.667960
655.000000	21.432502
656.000000	21.191262
657.000000	20.946278
658.000000	20.698538
659.000000	20.449012
660.000000	20.200409
661.000000	19.955565
662.000000	19.714944
663.000000	19.480486
664.000000	19.255497
665.000000	19.041753
666.000000	18.839957
667.000000	18.652343
668.000000	18.480940
669.000000	18.325766
670.000000	18.187556
671.000000	18.065953
672.000000	17.962685
673.000000	17.876415
674.000000	17.807350
675.000000	17.754882
676.000000	17.718081
677.000000	17.695185
678.000000	17.686653
679.000000	17.690515
680.000000	17.709044
681.000000	17.740436
682.000000	17.784955
683.000000	17.842370
684.000000	17.912937
685.000000	17.996545
686.000000	18.092733
687.000000	18.203394
688.000000	18.328351
689.000000	18.466986
690.000000	18.619085
691.000000	18.783937
692.000000	18.959576
693.000000	19.145899
694.000000	19.341253
695.000000	19.542717
696.000000	19.748178
697.000000	19.956501
698.000000	20.166154
699.000000	20.375492
700.000000	20.580484
701.000000	20.779351
702.000000	20.971702
703.000000	21.156558
704.000000	21.333582
705.000000	21.500555
706.000000	21.657787
707.000000	21.804711
708.000000	21.942224
709.000000	22.070315
710.000000	22.189554
711.000000	22.300734
712.000000	22.405348
713.000000	22.503575
714.000000	22.595530
715.000000	22.681439
716.000000	22.762835
717.000000	22.839287
718.000000	22.912102
719.000000	22.981455
720.000000	23.046753
721.000000	23.107531
722.000000	23.161710
723.000000	23.208657
724.000000	23.249903
725.000000	23.284933
726.000000	23.312721
727.000000	23.334429
728.000000	23.350039
729.000000	23.359407
730.000000	23.364293
731.000000	23.365836
732.000000	23.363761
733.000000	23.358699
734.000000	23.351722
735.000000	23.345201
736.000000	23.340066
737.000000	23.336793
738.000000	23.335599
739.000000	23.335866
740.000000	23.339136
741.000000	23.346401
742.000000	23.357620
743.000000	23.370789
744.000000	23.386715
745.000000	23.405324
746.000000	23.427269
747.000000	23.451171
748.000000	23.476151
749.000000	23.502192
750.000000	23.528862
751.000000	23.555614
752.000000	23.581349
753.000000	23.608736
754.000000	23.637579
755.000000	23.667154
756.000000	23.698795
757.000000	23.733590
758.000000	23.772114
759.000000	23.814634
760.000000	23.860526
761.000000	23.910646
762.000000	23.963004
763.000000	24.016758
764.000000	24.074413
765.000000	24.135034
766.000000	24.196405
767.000000	24.258727
768.000000	24.321502
769.000000	24.383646
770.000000	24.445330
771.000000	24.506656
772.000000	24.565210
773.000000	24.620562
774.000000	24.674640
775.000000	24.727051
776.000000	24.776429
777.000000	24.823698
778.000000	24.870380
779.000000	24.915774
780.000000	24.958814
781.000000	25.001069
782.000000	25.041407
783.000000	25.080982
784.000000	25.119384
785.000000	25.157862
786.000000	25.196827
787.000000	25.235824
788.000000	25.272355
789.000000	25.304291
790.000000	25.334714
791.000000	25.361077
792.000000	25.385100
793.000000	25.406216
794.000000	25.422236
795.000000	25.434849
796.000000	25.443062
797.000000	25.450370
798.000000	25.458693
799.000000	25.462194
800.000000	25.465952
801.000000	25.469109
802.000000	25.471972
803.000000	25.475275
804.000000	25.480431
805.000000	25.484774
806.000000	25.487463
807.000000	25.493686
808.000000	25.503999
809.000000	25.516166
810.000000	25.528472
811.000000	25.542435
812.000000	25.556136
813.000000	25.569099
814.000000	25.580770
815.000000	25.593669
816.000000	25.604353
817.000000	25.614001
818.000000	25.624660
819.000000	25.635469
820.000000	25.643111
821.000000	25.647183
822.000000	25.651914
823.000000	25.659592
824.000000	25.668502
825.000000	25.678587
826.000000	25.693066
827.000000	25.708897
828.000000	25.723100
829.000000	25.737454
830.000000	25.753833
831.000000	25.772241
832.000000	25.793526
833.000000	25.812995
834.000000	25.833150
835.000000	25.850841
836.000000	25.868201
837.000000	25.883248
838.000000	25.893142
839.000000	25.902477
840.000000	25.913303
841.000000	25.921347
842.000000	25.924874
843.000000	25.925209
844.000000	25.922322
845.000000	25.923501
846.000000	25.920137
847.000000	25.915467
848.000000	25.914270
849.000000	25.907180
850.000000	25.902045
851.000000	25.893598
852.000000	25.891285
853.000000	25.887493
854.000000	25.885035
855.000000	25.879462
856.000000	25.866821
857.000000	25.863309
858.000000	25.912835
859.000000	25.922919
860.000000	25.932412
861.000000	25.940596
862.000000	25.948058
863.000000	25.957895
864.000000	25.970152
865.000000	25.980832
866.000000	25.991211
867.000000	25.998836
868.000000	26.006825
869.000000	26.015807
870.000000	26.024256
871.000000	26.032707
872.000000	26.042209
873.000000	26.056186
874.000000	26.069047
875.000000	26.080658
876.000000	26.095480
877.000000	26.111405
878.000000	26.126829
879.000000	26.142980
880.000000	26.154385
881.000000	26.167875
882.000000	26.182221
883.000000	26.192976
884.000000	26.210789
885.000000	26.225764
886.000000	26.244909
887.000000	26.258279
888.000000	26.272168
889.000000	26.285640
890.000000	26.304399
891.000000	26.331779
892.000000	26.349912
893.000000	26.311949
894.000000	26.313669
895.000000	26.315229
896.000000	26.315006
897.000000	26.313500
898.000000	26.310094
899.000000	26.305494
900.000000	26.301177
901.000000	26.296129
902.000000	26.288980
903.000000	26.281000
904.000000	26.273549
905.000000	26.264577
906.000000	26.255426
907.000000	26.247157
908.000000	26.238637
909.000000	26.231260
910.000000	26.223286
911.000000	26.215923
912.000000	26.209020
913.000000	26.202603
914.000000	26.196660
915.000000	26.190846
916.000000	26.185903
917.000000	26.180600
918.000000	26.174511
919.000000	26.167146
920.000000	26.158460
921.000000	26.147831
922.000000	26.135786
923.000000	26.122377
924.000000	26.106694
925.000000	26.089943
926.000000	26.072334
927.000000	26.053423
928.000000	26.033346
929.000000	26.011711
930.000000	25.988683
931.000000	25.966229
932.000000	25.943343
933.000000	25.921777
934.000000	25.900963
935.000000	25.879951
936.000000	25.859489
937.000000	25.840323
938.000000	25.821009
939.000000	25.801797
940.000000	25.782486
941.000000	25.761791
942.000000	25.740206
943.000000	25.718000
944.000000	25.693186
945.000000	25.668089
946.000000	25.641694
947.000000	25.614117
948.000000	25.584886
949.000000	25.555120
950.000000	25.525357
951.000000	25.495354
952.000000	25.466083
953.000000	25.437217
954.000000	25.409160
955.000000	25.382757
956.000000	25.357811
957.000000	25.334794
958.000000	25.312811
959.000000	25.291843
960.000000	25.271660
961.000000	25.251511
962.000000	25.231897
963.000000	25.213351
964.000000	25.195469
965.000000	25.178309
966.000000	25.160951
967.000000	25.143429
968.000000	25.125046
969.000000	25.105437
970.000000	25.085537
971.000000	25.065189
972.000000	25.043786
973.000000	25.022409
974.000000	25.000054
975.000000	24.979051
976.000000	24.958577
977.000000	24.938331
978.000000	24.919171
979.000000	24.900811
980.000000	24.882586
981.000000	24.864797
982.000000	24.847694
983.000000	24.831180
984.000000	24.813857
985.000000	24.795746
986.000000	24.777274
987.000000	24.757834
988.000000	24.737214
989.000000	24.716109
990.000000	24.693351
991.000000	24.668974
992.000000	24.643551
993.000000	24.617169
994.000000	24.590597
995.000000	24.563120
996.000000	24.535357
997.000000	24.506837
998.000000	24.477666
999.000000	24.448920
1000.000000	24.420226
1001.000000	24.391389
1002.000000	24.362957
1003.000000	24.334497
1004.000000	24.306369
1005.000000	24.278294
1006.000000	24.250563
1007.000000	24.223643
1008.000000	24.196417
1009.000000	24.169514
1010.000000	24.142369
1011.000000	24.115489
1012.000000	24.088714
1013.000000	24.060774
1014.000000	24.032300
1015.000000	24.004277
1016.000000	23.976420
1017.000000	23.948066
1018.000000	23.919583
1019.000000	23.891974
1020.000000	23.865654
1021.000000	23.839900
1022.000000	23.815083
1023.000000	23.791509
1024.000000	23.768857
1025.000000	23.747586
1026.000000	23.728223
1027.000000	23.710040
1028.000000	23.693029
1029.000000	23.677466
1030.000000	23.663491
1031.000000	23.651549
1032.000000	23.641129
1033.000000	23.631917
1034.000000	23.623920
1035.000000	23.616943
1036.000000	23.611200
1037.000000	23.606906
1038.000000	23.604089
1039.000000	23.602846
1040.000000	23.602514
1041.000000	23.602797
1042.000000	23.604034
1043.000000	23.606800
1044.000000	23.610626
1045.000000	23.615400
1046.000000	23.621491
1047.000000	23.628951
1048.000000	23.637691
1049.000000	23.647434
1050.000000	23.657706
1051.000000	23.669063
1052.000000	23.681986
1053.000000	23.695854
1054.000000	23.709780
1055.000000	23.723917
1056.000000	23.738880
1057.000000	23.754300
1058.000000	23.769443
1059.000000	23.784409
1060.000000	23.800023
1061.000000	23.815729
1062.000000	23.831486
1063.000000	23.846811
1064.000000	23.861909
1065.000000	23.876766
1066.000000	23.890871
1067.000000	23.904671
1068.000000	23.918169
1069.000000	23.930903
1070.000000	23.943811
1071.000000	23.956603
1072.000000	23.969023
1073.000000	23.980803
1074.000000	23.992271
1075.000000	24.004014
1076.000000	24.015689
1077.000000	24.027029
1078.000000	24.038271
1079.000000	24.049689
1080.000000	24.061509
1081.000000	24.073223
1082.000000	24.084877
1083.000000	24.096403
1084.000000	24.107837
1085.000000	24.119471
1086.000000	24.130517
1087.000000	24.140789
1088.000000	24.151797
1089.000000	24.163486
1090.000000	24.174871
1091.000000	24.185003
1092.000000	24.194223
1093.000000	24.203954
1094.000000	24.213726
1095.000000	24.223320
1096.000000	24.232257
1097.000000	24.240589
1098.000000	24.248923
1099.000000	24.256923
1100.000000	24.264469
1101.000000	24.271849
1102.000000	24.279171
1103.000000	24.286877
1104.000000	24.294789
1105.000000	24.302066
1106.000000	24.308903
1107.000000	24.315720
1108.000000	24.322849
1109.000000	24.329420
1110.000000	24.335240
1111.000000	24.341546
1112.000000	24.348126
1113.000000	24.354909
1114.000000	24.360851
1115.000000	24.366069
1116.000000	24.371817
1117.000000	24.377083
1118.000000	24.381549
1119.000000	24.386500
1120.000000	24.390500
1121.000000	24.393526
1122.000000	24.396517
1123.000000	24.397534
1124.000000	24.397740
1125.000000	24.396206
1126.000000	24.394111
1127.000000	24.391217
1128.000000	24.385126
1129.000000	24.376963
1130.000000	24.365929
1131.000000	24.351486
1132.000000	24.333460
1133.000000	24.310983
1134.000000	24.284491
1135.000000	24.254023
1136.000000	24.218986
1137.000000	24.178700
1138.000000	24.131689
1139.000000	24.078800
1140.000000	24.020737
1141.000000	23.957874
1142.000000	23.889440
1143.000000	23.815883
1144.000000	23.738434
1145.000000	23.657100
1146.000000	23.572700
1147.000000	23.486714
1148.000000	23.399540
1149.000000	23.313240
1150.000000	23.227423
1151.000000	23.140443
1152.000000	23.053914
1153.000000	22.967371
1154.000000	22.879526
1155.000000	22.791129
1156.000000	22.700723
1157.000000	22.606500
1158.000000	22.508897
1159.000000	22.406189
1160.000000	22.300214
1161.000000	22.189480
1162.000000	22.074466
1163.000000	21.956851
1164.000000	21.835354
1165.000000	21.710443
1166.000000	21.583343
1167.000000	21.454169
1168.000000	21.323643
1169.000000	21.191511
1170.000000	21.058709
1171.000000	20.924711
1172.000000	20.790729
1173.000000	20.658571
1174.000000	20.527646
1175.000000	20.397414
1176.000000	20.267637
1177.000000	20.138591
1178.000000	20.009280
1179.000000	19.878374
1180.000000	19.745120
1181.000000	19.607289
1182.000000	19.464029
1183.000000	19.315691
1184.000000	19.161860
1185.000000	19.004171
1186.000000	18.845029
1187.000000	18.685517
1188.000000	18.528194
1189.000000	18.375071
1190.000000	18.228117
1191.000000	18.090451
1192.000000	17.962734
1193.000000	17.845229
1194.000000	17.738177
1195.000000	17.640617
1196.000000	17.552660
1197.000000	17.472880
1198.000000	17.400591
1199.000000	17.335566
1200.000000	17.277889
1201.000000	17.226149
1202.000000	17.180789
1203.000000	17.140986
1204.000000	17.106866
1205.000000	17.077537
1206.000000	17.054803
1207.000000	17.037711
1208.000000	17.025377
1209.000000	17.018603
1210.000000	17.018326
1211.000000	17.023274
1212.000000	17.034680
1213.000000	17.052611
1214.000000	17.077414
1215.000000	17.110426
1216.000000	17.151883
1217.000000	17.202594
1218.000000	17.261154
1219.000000	17.326037
1220.000000	17.396794
1221.000000	17.471177
1222.000000	17.547657
1223.000000	17.625029
1224.000000	17.701049
1225.000000	17.774671
1226.000000	17.843900
1227.000000	17.909317
1228.000000	17.971271
1229.000000	18.030437
1230.000000	18.086597
1231.000000	18.140971
1232.000000	18.194457
1233.000000	18.248060
1234.000000	18.302311
1235.000000	18.357671
1236.000000	18.413937
1237.000000	18.471463
1238.000000	18.531071
1239.000000	18.592083
1240.000000	18.655103
1241.000000	18.719049
1242.000000	18.783737
1243.000000	18.850274
1244.000000	18.918114
1245.000000	18.985306
1246.000000	19.053189
1247.000000	19.120909
1248.000000	19.188323
1249.000000	19.255891
1250.000000	19.323203
1251.000000	19.390149
1252.000000	19.455714
1253.000000	19.520794
1254.000000	19.585606
1255.000000	19.649403
1256.000000	19.712360
1257.000000	19.774551
1258.000000	19.835031
1259.000000	19.894500
1260.000000	19.952677
1261.000000	20.010046
1262.000000	20.065903
1263.000000	20.120069
1264.000000	20.172603
1265.000000	20.224240
1266.000000	20.274734
1267.000000	20.324460
1268.000000	20.372594
1269.000000	20.419154
1270.000000	20.464274
1271.000000	20.509474
1272.000000	20.553220
1273.000000	20.595451
1274.000000	20.636731
1275.000000	20.676503
1276.000000	20.715489
1277.000000	20.753929
1278.000000	20.791346
1279.000000	20.827209
1280.000000	20.862563
1281.000000	20.897857
1282.000000	20.932691
1283.000000	20.967177
1284.000000	21.001271
1285.000000	21.035069
1286.000000	21.068951
1287.000000	21.102551
1288.000000	21.135449
1289.000000	21.168231
1290.000000	21.200100
1291.000000	21.231694
1292.000000	21.262511
1293.000000	21.292654
1294.000000	21.322323
1295.000000	21.351283
1296.000000	21.379277
1297.000000	21.406634
1298.000000	21.433640
1299.000000	21.460154
1300.000000	21.485809
1301.000000	21.510500
1302.000000	21.534294
1303.000000	21.557260
1304.000000	21.579503
1305.000000	21.600357
1306.000000	21.619869
1307.000000	21.638686
1308.000000	21.656331
1309.000000	21.672754
1310.000000	21.687817
1311.000000	21.701223
1312.000000	21.712869
1313.000000	21.722329
1314.000000	21.730346
1315.000000	21.736803
1316.000000	21.740754
1317.000000	21.742309
1318.000000	21.741689
1319.000000	21.738789
1320.000000	21.733591
1321.000000	21.726183
1322.000000	21.716909
1323.000000	21.705154
1324.000000	21.691126
1325.000000	21.675157
1326.000000	21.656863
1327.000000	21.636357
1328.000000	21.613751
1329.000000	21.588649
1330.000000	21.560600
1331.000000	21.529949
1332.000000	21.496931
1333.000000	21.460966
1334.000000	21.422323
1335.000000	21.381377
1336.000000	21.337660
1337.000000	21.291066
1338.000000	21.241720
1339.000000	21.189097
1340.000000	21.133097
1341.000000	21.073083
1342.000000	21.009617
1343.000000	20.943831
1344.000000	20.874040
1345.000000	20.800194
1346.000000	20.722643
1347.000000	20.641420
1348.000000	20.556174
1349.000000	20.466071
1350.000000	20.370660
1351.000000	20.269594
1352.000000	20.161891
1353.000000	20.046889
1354.000000	19.926229
1355.000000	19.800034
1356.000000	19.669700
1357.000000	19.537014
1358.000000	19.403100
1359.000000	19.268914
1360.000000	19.134980
1361.000000	19.002049
1362.000000	18.871569
1363.000000	18.741266
1364.000000	18.609711
1365.000000	18.478194
1366.000000	18.346694
1367.000000	18.214297
1368.000000	18.080486
1369.000000	17.944860
1370.000000	17.806489
1371.000000	17.665166
1372.000000	17.520551
1373.000000	17.371220
1374.000000	17.217791
1375.000000	17.060546
1376.000000	16.902023
1377.000000	16.741914
1378.000000	16.580714
1379.000000	16.419557
1380.000000	16.259777
1381.000000	16.101809
1382.000000	15.946271
1383.000000	15.793291
1384.000000	15.642823
1385.000000	15.494326
1386.000000	15.349217
1387.000000	15.209146
1388.000000	15.076791
1389.000000	14.950820
1390.000000	14.830771
1391.000000	14.714131
1392.000000	14.601657
1393.000000	14.492226
1394.000000	14.384606
1395.000000	14.278469
1396.000000	14.175017
1397.000000	14.070597
1398.000000	13.965311
1399.000000	13.860546
1400.000000	13.756680
1401.000000	13.654911
1402.000000	13.553460
1403.000000	13.451840
1404.000000	13.350346
1405.000000	13.251611
1406.000000	13.154691
1407.000000	13.060109
1408.000000	12.969746
1409.000000	12.883989
1410.000000	12.802634
1411.000000	12.724234
1412.000000	12.648340
1413.000000	12.574814
1414.000000	12.504371
1415.000000	12.436383
1416.000000	12.368331
1417.000000	12.299497
1418.000000	12.230917
1419.000000	12.163743
1420.000000	12.099160
1421.000000	12.035431
1422.000000	11.971497
1423.000000	11.906491
1424.000000	11.840423
1425.000000	11.773243
1426.000000	11.704500
1427.000000	11.632829
1428.000000	11.559837
1429.000000	11.484277
1430.000000	11.407463
1431.000000	11.326706
1432.000000	11.244911
1433.000000	11.164346
1434.000000	11.085117
1435.000000	11.006111
1436.000000	10.925629
1437.000000	10.847057
1438.000000	10.771611
1439.000000	10.699226
1440.000000	10.627526
1441.000000	10.558483
1442.000000	10.492134
1443.000000	10.427214
1444.000000	10.364440
1445.000000	10.302940
1446.000000	10.242551
1447.000000	10.184126
1448.000000	10.125643
1449.000000	10.067117
1450.000000	10.008626
1451.000000	9.952480
1452.000000	9.897766
1453.000000	9.844423
1454.000000	9.791414
1455.000000	9.738794
1456.000000	9.688046
1457.000000	9.639303
1458.000000	9.591257
1459.000000	9.543177
1460.000000	9.496814
1461.000000	9.453254
1462.000000	9.410823
1463.000000	9.369529
1464.000000	9.329511
1465.000000	9.289714
1466.000000	9.250951
1467.000000	9.212717
1468.000000	9.175471
1469.000000	9.138403
1470.000000	9.102386
1471.000000	9.067431
1472.000000	9.032986
1473.000000	8.999000
1474.000000	8.965277
1475.000000	8.932209
1476.000000	8.899031
1477.000000	8.866423
1478.000000	8.835331
1479.000000	8.804526
1480.000000	8.774397
1481.000000	8.744949
1482.000000	8.716066
1483.000000	8.687977
1484.000000	8.660383
1485.000000	8.634229
1486.000000	8.607891
1487.000000	8.582554
1488.000000	8.557666
1489.000000	8.533331
1490.000000	8.509880
1491.000000	8.485843
1492.000000	8.463220
1493.000000	8.441191
1494.000000	8.420203
1495.000000	8.399171
1496.000000	8.379094
1497.000000	8.360500
1498.000000	8.341657
1499.000000	8.323149
1500.000000	8.305557
1501.000000	8.288534
1502.000000	8.272226
1503.000000	8.256500
1504.000000	8.241989
1505.000000	8.227337
1506.000000	8.213343
1507.000000	8.200120
1508.000000	8.187431
1509.000000	8.175531
1510.000000	8.164494
1511.000000	8.155014
1512.000000	8.146137
1513.000000	8.138094
1514.000000	8.130671
1515.000000	8.124557
1516.000000	8.119074
1517.000000	8.114194
1518.000000	8.110431
1519.000000	8.107537
1520.000000	8.104971
1521.000000	8.102683
1522.000000	8.101043
1523.000000	8.099814
1524.000000	8.099917
1525.000000	8.100311
1526.000000	8.102174
1527.000000	8.103586
1528.000000	8.105754
1529.000000	8.109411
1530.000000	8.113740
1531.000000	8.117994
1532.000000	8.121760
1533.000000	8.126326
1534.000000	8.131854
1535.000000	8.137383
1536.000000	8.143091
1537.000000	8.149246
1538.000000	8.155203
1539.000000	8.160817
1540.000000	8.166549
1541.000000	8.172634
1542.000000	8.178354
1543.000000	8.183789
1544.000000	8.189426
1545.000000	8.195334
1546.000000	8.201363
1547.000000	8.207520
1548.000000	8.213166
1549.000000	8.218760
1550.000000	8.224320
1551.000000	8.229869
1552.000000	8.235326
1553.000000	8.240577
1554.000000	8.245720
1555.000000	8.249954
1556.000000	8.255049
1557.000000	8.260380
1558.000000	8.265357
1559.000000	8.269623
1560.000000	8.273334
1561.000000	8.276697
1562.000000	8.280009
1563.000000	8.283086
1564.000000	8.285063
1565.000000	8.286023
1566.000000	8.286906
1567.000000	8.287737
1568.000000	8.287500
1569.000000	8.287254
1570.000000	8.286714
1571.000000	8.285754
1572.000000	8.284166
1573.000000	8.282143
1574.000000	8.280071
1575.000000	8.278437
1576.000000	8.276394
1577.000000	8.273997
1578.000000	8.271803
1579.000000	8.269197
1580.000000	8.266426
1581.000000	8.263369
1582.000000	8.259620
1583.000000	8.256300
1584.000000	8.253117
1585.000000	8.249674
1586.000000	8.246229
1587.000000	8.242594
1588.000000	8.239443
1589.000000	8.237043
1590.000000	8.235040
1591.000000	8.232957
1592.000000	8.230683
1593.000000	8.228903
1594.000000	8.228077
1595.000000	8.228034
1596.000000	8.228243
1597.000000	8.229120
1598.000000	8.231011
1599.000000	8.233506
1600.000000	8.237163
1601.000000	8.241140
1602.000000	8.246131
1603.000000	8.252331
1604.000000	8.258874
1605.000000	8.266217
1606.000000	8.274580
1607.000000	8.283897
1608.000000	8.294409
1609.000000	8.305771
1610.000000	8.317454
1611.000000	8.329734
1612.000000	8.343026
1613.000000	8.357397
1614.000000	8.372560
1615.000000	8.388483
1616.000000	8.405026
1617.000000	8.422177
1618.000000	8.439414
1619.000000	8.456946
1620.000000	8.475340
1621.000000	8.494931
1622.000000	8.515677
1623.000000	8.536529
1624.000000	8.557809
1625.000000	8.579126
1626.000000	8.600866
1627.000000	8.623497
1628.000000	8.646486
1629.000000	8.669994
1630.000000	8.694171
1631.000000	8.718600
1632.000000	8.743631
1633.000000	8.768423
1634.000000	8.793817
1635.000000	8.819223
1636.000000	8.844874
1637.000000	8.871060
1638.000000	8.897803
1639.000000	8.924157
1640.000000	8.950823
1641.000000	8.977654
1642.000000	9.004286
1643.000000	9.030840
1644.000000	9.057720
1645.000000	9.084409
1646.000000	9.111449
1647.000000	9.138386
1648.000000	9.165097
1649.000000	9.191646
1650.000000	9.217269
1651.000000	9.242646
1652.000000	9.268560
1653.000000	9.294071
1654.000000	9.319074
1655.000000	9.343671
1656.000000	9.366694
1657.000000	9.388637
1658.000000	9.410157
1659.000000	9.430334
1660.000000	9.449737
1661.000000	9.467454
1662.000000	9.484103
1663.000000	9.499411
1664.000000	9.512354
1665.000000	9.523660
1666.000000	9.533060
1667.000000	9.540349
1668.000000	9.545154
1669.000000	9.547774
1670.000000	9.547811
1671.000000	9.545009
1672.000000	9.538849
1673.000000	9.528823
1674.000000	9.515960
1675.000000	9.498611
1676.000000	9.476406
1677.000000	9.448874
1678.000000	9.415591
1679.000000	9.375569
1680.000000	9.328749
1681.000000	9.274931
1682.000000	9.215691
1683.000000	9.152237
1684.000000	9.086163
1685.000000	9.018763
1686.000000	8.951346
1687.000000	8.883291
1688.000000	8.814831
1689.000000	8.746214
1690.000000	8.676191
1691.000000	8.605174
1692.000000	8.532571
1693.000000	8.458611
1694.000000	8.384440
1695.000000	8.310071
1696.000000	8.236731
1697.000000	8.163334
1698.000000	8.092726
1699.000000	8.024289
1700.000000	7.958057
1701.000000	7.895049
1702.000000	7.834929
1703.000000	7.778109
1704.000000	7.724000
1705.000000	7.671614
1706.000000	7.621971
1707.000000	7.574403
1708.000000	7.530291
1709.000000	7.488794
1710.000000	7.450866
1711.000000	7.417326
1712.000000	7.387686
1713.000000	7.363277
1714.000000	7.343423
1715.000000	7.328197
1716.000000	7.318900
1717.000000	7.313723
1718.000000	7.310777
1719.000000	7.309877
1720.000000	7.310357
1721.000000	7.310080
1722.000000	7.309100
1723.000000	7.308257
1724.000000	7.306686
1725.000000	7.306063
1726.000000	7.305866
1727.000000	7.306349
1728.000000	7.307446
1729.000000	7.307640
1730.000000	7.307417
1731.000000	7.305971
1732.000000	7.303857
1733.000000	7.298503
1734.000000	7.291986
1735.000000	7.284580
1736.000000	7.275843
1737.000000	7.267249
1738.000000	7.258457
1739.000000	7.250269
1740.000000	7.244220
1741.000000	7.240423
1742.000000	7.239291
1743.000000	7.239651
1744.000000	7.242986
1745.000000	7.247851
1746.000000	7.254077
1747.000000	7.262431
1748.000000	7.272163
1749.000000	7.283980
1750.000000	7.297623
1751.000000	7.312671
1752.000000	7.328877
1753.000000	7.346483
1754.000000	7.364249
1755.000000	7.382086
1756.000000	7.399849
1757.000000	7.417500
1758.000000	7.434677
1759.000000	7.451520
1760.000000	7.467417
1761.000000	7.483526
1762.000000	7.500040
1763.000000	7.516980
1764.000000	7.535669
1765.000000	7.555831
1766.000000	7.577846
1767.000000	7.601489
1768.000000	7.626937
1769.000000	7.654091
1770.000000	7.682091
1771.000000	7.711311
1772.000000	7.739966
1773.000000	7.768406
1774.000000	7.796663
1775.000000	7.824703
1776.000000	7.851446
1777.000000	7.877203
1778.000000	7.901983
1779.000000	7.924537
1780.000000	7.946954
1781.000000	7.968909
1782.000000	7.990111
1783.000000	8.010949
1784.000000	8.031846
1785.000000	8.053497
1786.000000	8.075180
1787.000000	8.097689
1788.000000	8.120811
1789.000000	8.144226
1790.000000	8.168606
1791.000000	8.194043
1792.000000	8.220409
1793.000000	8.247997
1794.000000	8.277663
1795.000000	8.308874
1796.000000	8.341503
1797.000000	8.374723
1798.000000	8.408577
1799.000000	8.442543
1800.000000	8.476946
1801.000000	8.511629
1802.000000	8.546580
1803.000000	8.581257
1804.000000	8.614417
1805.000000	8.646294
1806.000000	8.677400
1807.000000	8.708194
1808.000000	8.738843
1809.000000	8.767763
1810.000000	8.794900
1811.000000	8.821111
1812.000000	8.846414
1813.000000	8.870811
1814.000000	8.894277
1815.000000	8.916526
1816.000000	8.938140
1817.000000	8.959420
1818.000000	8.979006
1819.000000	8.997086
1820.000000	9.015460
1821.000000	9.034423
1822.000000	9.053360
1823.000000	9.071720
1824.000000	9.088751
1825.000000	9.104449
1826.000000	9.120369
1827.000000	9.137509
1828.000000	9.155077
1829.000000	9.172446
1830.000000	9.190463
1831.000000	9.209600
1832.000000	9.229703
1833.000000	9.249617
1834.000000	9.269020
1835.000000	9.287843
1836.000000	9.306846
1837.000000	9.326483
1838.000000	9.347103
1839.000000	9.368329
1840.000000	9.389514
1841.000000	9.411277
1842.000000	9.434209
1843.000000	9.457491
1844.000000	9.479831
1845.000000	9.500137
1846.000000	9.519146
1847.000000	9.539374
1848.000000	9.562534
1849.000000	9.588766
1850.000000	9.616360
1851.000000	9.642943
1852.000000	9.668303
1853.000000	9.695134
1854.000000	9.723906
1855.000000	9.752917
1856.000000	9.781003
1857.000000	9.807577
1858.000000	9.833800
1859.000000	9.861837
1860.000000	9.891500
1861.000000	9.920760
1862.000000	9.948711
1863.000000	9.974589
1864.000000	9.998494
1865.000000	10.020143
1866.000000	10.038517
1867.000000	10.054209
1868.000000	10.068863
1869.000000	10.082403
1870.000000	10.095066
1871.000000	10.106434
1872.000000	10.114954
1873.000000	10.120580
1874.000000	10.123694
1875.000000	10.124274
1876.000000	10.120200
1877.000000	10.110571
1878.000000	10.096051
1879.000000	10.078100
1880.000000	10.057629
1881.000000	10.032800
1882.000000	10.001209
1883.000000	9.961809
1884.000000	9.915854
1885.000000	9.864660
1886.000000	9.810369
1887.000000	9.753797
1888.000000	9.692823
1889.000000	9.627009
1890.000000	9.557406
1891.000000	9.484414
1892.000000	9.409426
1893.000000	9.332314
1894.000000	9.251666
1895.000000	9.166671
1896.000000	9.077914
1897.000000	8.985577
1898.000000	8.891586
1899.000000	8.796117
1900.000000	8.699283
1901.000000	8.601557
1902.000000	8.503203
1903.000000	8.402640
1904.000000	8.300314
1905.000000	8.196537
1906.000000	8.091443
1907.000000	7.985723
1908.000000	7.878497
1909.000000	7.770366
1910.000000	7.661543
1911.000000	7.553043
1912.000000	7.445903
1913.000000	7.341080
1914.000000	7.239460
1915.000000	7.140129
1916.000000	7.043797
1917.000000	6.950417
1918.000000	6.859300
1919.000000	6.769851
1920.000000	6.682643
1921.000000	6.598771
1922.000000	6.517063
1923.000000	6.437831
1924.000000	6.360183
1925.000000	6.283060
1926.000000	6.207537
1927.000000	6.133469
1928.000000	6.061051
1929.000000	5.990377
1930.000000	5.922617
1931.000000	5.857263
1932.000000	5.795009
1933.000000	5.734743
1934.000000	5.676631
1935.000000	5.619783
1936.000000	5.564823
1937.000000	5.511394
1938.000000	5.461143
1939.000000	5.414666
1940.000000	5.369591
1941.000000	5.326114
1942.000000	5.284740
1943.000000	5.246180
1944.000000	5.209851
1945.000000	5.176637
1946.000000	5.147563
1947.000000	5.120257
1948.000000	5.094600
1949.000000	5.070751
1950.000000	5.049157
1951.000000	5.030120
1952.000000	5.013449
1953.000000	4.999409
1954.000000	4.987854
1955.000000	4.977949
1956.000000	4.969771
1957.000000	4.962629
1958.000000	4.956660
1959.000000	4.953691
1960.000000	4.953194
1961.000000	4.954160
1962.000000	4.956683
1963.000000	4.960286
1964.000000	4.965920
1965.000000	4.971854
1966.000000	4.979846
1967.000000	4.987429
1968.000000	4.996697
1969.000000	5.007011
1970.000000	5.018957
1971.000000	5.031709
1972.000000	5.045494
1973.000000	5.060394
1974.000000	5.075046
1975.000000	5.090843
1976.000000	5.106823
1977.000000	5.122971
1978.000000	5.140071
1979.000000	5.158406
1980.000000	5.176966
1981.000000	5.195337
1982.000000	5.214774
1983.000000	5.234283
1984.000000	5.253517
1985.000000	5.273271
1986.000000	5.293289
1987.000000	5.313626
1988.000000	5.333503
1989.000000	5.353820
1990.000000	5.374291
1991.000000	5.394083
1992.000000	5.413949
1993.000000	5.434223
1994.000000	5.454000
1995.000000	5.472977
1996.000000	5.491820
1997.000000	5.510009
1998.000000	5.527871
1999.000000	5.544986
2000.000000	5.562163
2001.000000	5.578091
2002.000000	5.594994
2003.000000	5.611146
2004.000000	5.626460
2005.000000	5.641063
2006.000000	5.655437
2007.000000	5.668577
2008.000000	5.680697
2009.000000	5.691786
2010.000000	5.701986
2011.000000	5.711723
2012.000000	5.720783
2013.000000	5.728066
2014.000000	5.734163
2015.000000	5.739280
2016.000000	5.742877
2017.000000	5.744760
2018.000000	5.745526
2019.000000	5.745049
2020.000000	5.743797
2021.000000	5.740751
2022.000000	5.736314
2023.000000	5.730960
2024.000000	5.723740
2025.000000	5.715109
2026.000000	5.704911
2027.000000	5.694011
2028.000000	5.681486
2029.000000	5.667460
2030.000000	5.652971
2031.000000	5.635734
2032.000000	5.617797
2033.000000	5.598780
2034.000000	5.578483
2035.000000	5.557026
2036.000000	5.534151
2037.000000	5.509709
2038.000000	5.484094
2039.000000	5.457120
2040.000000	5.428934
2041.000000	5.399586
2042.000000	5.369574
2043.000000	5.338074
2044.000000	5.305863
2045.000000	5.272303
2046.000000	5.237689
2047.000000	5.202343
2048.000000	5.167091
2049.000000	5.131191
2050.000000	5.094920
2051.000000	5.058323
2052.000000	5.021880
2053.000000	4.985146
2054.000000	4.948777
2055.000000	4.912926
2056.000000	4.878006
2057.000000	4.843211
2058.000000	4.809183
2059.000000	4.776211
2060.000000	4.744351
2061.000000	4.713126
2062.000000	4.682980
2063.000000	4.653969
2064.000000	4.625917
2065.000000	4.599077
2066.000000	4.574877
2067.000000	4.551106
2068.000000	4.528569
2069.000000	4.506834
2070.000000	4.486397
2071.000000	4.467923
2072.000000	4.450666
2073.000000	4.434746
2074.000000	4.420963
2075.000000	4.408380
2076.000000	4.397037
2077.000000	4.387206
2078.000000	4.379037
2079.000000	4.372171
2080.000000	4.366877
2081.000000	4.363057
2082.000000	4.360417
2083.000000	4.358414
2084.000000	4.357666
2085.000000	4.357800
2086.000000	4.359109
2087.000000	4.361163
2088.000000	4.363837
2089.000000	4.367174
2090.000000	4.370106
2091.000000	4.372966
2092.000000	4.376511
2093.000000	4.380617
2094.000000	4.384523
2095.000000	4.388331
2096.000000	4.392491
2097.000000	4.396503
2098.000000	4.400797
2099.000000	4.405434
2100.000000	4.409480
2101.000000	4.412957
2102.000000	4.416574
2103.000000	4.420300
2104.000000	4.424543
2105.000000	4.428497
2106.000000	4.432206
2107.000000	4.435997
2108.000000	4.439849
2109.000000	4.443986
2110.000000	4.448180
2111.000000	4.451866
2112.000000	4.455609
2113.000000	4.459469
2114.000000	4.463500
2115.000000	4.467383
2116.000000	4.470817
2117.000000	4.474209
2118.000000	4.478154
2119.000000	4.481854
2120.000000	4.485743
2121.000000	4.489609
2122.000000	4.493406
2123.000000	4.497223
2124.000000	4.500697
2125.000000	4.504771
2126.000000	4.509066
2127.000000	4.512914
2128.000000	4.516694
2129.000000	4.520386
2130.000000	4.523880
2131.000000	4.527806
2132.000000	4.531489
2133.000000	4.533766
2134.000000	4.535620
2135.000000	4.537794
2136.000000	4.539397
2137.000000	4.540626
2138.000000	4.540977
2139.000000	4.541003
2140.000000	4.540751
2141.000000	4.539409
2142.000000	4.537663
2143.000000	4.535471
2144.000000	4.532126
2145.000000	4.528160
2146.000000	4.523929
2147.000000	4.519740
2148.000000	4.514469
2149.000000	4.508443
2150.000000	4.501863
2151.000000	4.495097
2152.000000	4.487371
2153.000000	4.479306
2154.000000	4.470617
2155.000000	4.461480
2156.000000	4.452451
2157.000000	4.442049
2158.000000	4.431320
2159.000000	4.420683
2160.000000	4.409211
2161.000000	4.397337
2162.000000	4.385711
2163.000000	4.373586
2164.000000	4.361369
2165.000000	4.349411
2166.000000	4.336551
2167.000000	4.323600
2168.000000	4.311020
2169.000000	4.298194
2170.000000	4.284946
2171.000000	4.272400
2172.000000	4.259994
2173.000000	4.247989
2174.000000	4.234789
2175.000000	4.221731
2176.000000	4.209823
2177.000000	4.198143
2178.000000	4.186349
2179.000000	4.175309
2180.000000	4.164634
2181.000000	4.154137
2182.000000	4.142746
2183.000000	4.131937
2184.000000	4.121589
2185.000000	4.110954
2186.000000	4.100037
2187.000000	4.089629
2188.000000	4.078871
2189.000000	4.066997
2190.000000	4.054997
2191.000000	4.041289
2192.000000	4.027977
2193.000000	4.014406
2194.000000	3.999351
2195.000000	3.983343
2196.000000	3.966426
2197.000000	3.948380
2198.000000	3.928529
2199.000000	3.907809
2200.000000	3.886326
2201.000000	3.864203
2202.000000	3.840851
2203.000000	3.816906
2204.000000	3.792357
2205.000000	3.766754
2206.000000	3.740806
2207.000000	3.714040
2208.000000	3.687160
2209.000000	3.661560
2210.000000	3.635551
2211.000000	3.608411
2212.000000	3.582140
2213.000000	3.556783
2214.000000	3.531686
2215.000000	3.507071
2216.000000	3.483611
2217.000000	3.461131
2218.000000	3.439269
2219.000000	3.418363
2220.000000	3.399163
2221.000000	3.381537
2222.000000	3.364377
2223.000000	3.348374
2224.000000	3.334277
2225.000000	3.321017
2226.000000	3.309303
2227.000000	3.298769
2228.000000	3.289466
2229.000000	3.281897
2230.000000	3.275543
2231.000000	3.271174
2232.000000	3.267377
2233.000000	3.265486
2234.000000	3.264649
2235.000000	3.264214
2236.000000	3.264851
2237.000000	3.266443
2238.000000	3.268400
2239.000000	3.271054
2240.000000	3.274334
2241.000000	3.277389
2242.000000	3.280574
2243.000000	3.283246
2244.000000	3.285857
2245.000000	3.287629
2246.000000	3.289520
2247.000000	3.290131
2248.000000	3.288857
2249.000000	3.285609
2250.000000	3.281497
2251.000000	3.275597
2252.000000	3.268491
2253.000000	3.259357
2254.000000	3.248046
2255.000000	3.235611
2256.000000	3.220280
2257.000000	3.203146
2258.000000	3.184146
2259.000000	3.163954
2260.000000	3.142754
2261.000000	3.120369
2262.000000	3.096749
2263.000000	3.071834
2264.000000	3.045660
2265.000000	3.019857
2266.000000	2.993269
2267.000000	2.967097
2268.000000	2.940431
2269.000000	2.913883
2270.000000	2.887989
2271.000000	2.862120
2272.000000	2.836734
2273.000000	2.812414
2274.000000	2.788954
2275.000000	2.766151
2276.000000	2.744723
2277.000000	2.725077
2278.000000	2.706460
2279.000000	2.687997
2280.000000	2.671506
2281.000000	2.656020
2282.000000	2.641520
2283.000000	2.627794
2284.000000	2.616669
2285.000000	2.606586
2286.000000	2.597814
2287.000000	2.590231
2288.000000	2.584631
2289.000000	2.580326
2290.000000	2.576394
2291.000000	2.574226
2292.000000	2.573643
2293.000000	2.573900
2294.000000	2.574851
2295.000000	2.576054
2296.000000	2.577917
2297.000000	2.580417
2298.000000	2.583474
2299.000000	2.587094
2300.000000	2.590271
2301.000000	2.592974
2302.000000	2.595531
2303.000000	2.598469
2304.000000	2.601226
2305.000000	2.604140
2306.000000	2.607117
2307.000000	2.609680
2308.000000	2.612337
2309.000000	2.614834
2310.000000	2.617746
2311.000000	2.620580
2312.000000	2.623194
2313.000000	2.626620
2314.000000	2.630177
2315.000000	2.634074
2316.000000	2.638354
2317.000000	2.642957
2318.000000	2.648751
2319.000000	2.654057
2320.000000	2.659957
2321.000000	2.665477
2322.000000	2.671854
2323.000000	2.678414
2324.000000	2.685554
2325.000000	2.693134
2326.000000	2.701077
2327.000000	2.709220
2328.000000	2.718391
2329.000000	2.728340
2330.000000	2.739240
2331.000000	2.750486
2332.000000	2.762549
2333.000000	2.775129
2334.000000	2.788283
2335.000000	2.802120
2336.000000	2.816603
2337.000000	2.831180
2338.000000	2.845771
2339.000000	2.860411
2340.000000	2.874597
2341.000000	2.888326
2342.000000	2.902391
2343.000000	2.915700
2344.000000	2.928120
2345.000000	2.939617
2346.000000	2.950414
2347.000000	2.960849
2348.000000	2.969940
2349.000000	2.978031
2350.000000	2.984860
2351.000000	2.990911
2352.000000	2.996197
2353.000000	3.001211
2354.000000	3.005943
2355.000000	3.010114
2356.000000	3.014460
2357.000000	3.018334
2358.000000	3.022029
2359.000000	3.025474
2360.000000	3.029151
2361.000000	3.032526
2362.000000	3.036214
2363.000000	3.039646
2364.000000	3.042783
2365.000000	3.046034
2366.000000	3.049917
2367.000000	3.053529
2368.000000	3.057054
2369.000000	3.060823
2370.000000	3.064337
2371.000000	3.067929
2372.000000	3.071794
2373.000000	3.075826
2374.000000	3.080329
2375.000000	3.084871
2376.000000	3.089977
2377.000000	3.095769
2378.000000	3.101566
2379.000000	3.107563
2380.000000	3.114077
2381.000000	3.120980
2382.000000	3.128106
2383.000000	3.135017
2384.000000	3.141894
2385.000000	3.148997
2386.000000	3.156477
2387.000000	3.163983
2388.000000	3.170709
2389.000000	3.176646
2390.000000	3.182183
2391.000000	3.187223
2392.000000	3.191400
2393.000000	3.195460
2394.000000	3.198809
2395.000000	3.200769
2396.000000	3.202374
2397.000000	3.203366
2398.000000	3.203906
2399.000000	3.203814
2400.000000	3.202783
2401.000000	3.200854
2402.000000	3.198803
2403.000000	3.196426
2404.000000	3.193437
2405.000000	3.189926
2406.000000	3.185906
2407.000000	3.181403
2408.000000	3.177131
2409.000000	3.171671
2410.000000	3.166180
2411.000000	3.160097
2412.000000	3.153054
2413.000000	3.146306
2414.000000	3.139051
2415.000000	3.131940
2416.000000	3.124126
2417.000000	3.115349
2418.000000	3.106426
2419.000000	3.097903
2420.000000	3.089620
2421.000000	3.080963
2422.000000	3.071537
2423.000000	3.061234
2424.000000	3.050991
2425.000000	3.040423
2426.000000	3.029569
2427.000000	3.018206
2428.000000	3.005849
2429.000000	2.993986
2430.000000	2.982574
2431.000000	2.971389
2432.000000	2.959206
2433.000000	2.946306
2434.000000	2.933686
2435.000000	2.920603
2436.000000	2.907257
2437.000000	2.893214
2438.000000	2.879237
2439.000000	2.865209
2440.000000	2.850520
2441.000000	2.835923
2442.000000	2.821223
2443.000000	2.805769
2444.000000	2.789931
2445.000000	2.774417
2446.000000	2.758466
2447.000000	2.742694
2448.000000	2.726800
2449.000000	2.710951
2450.000000	2.693337
2451.000000	2.675954
2452.000000	2.659394
2453.000000	2.642129
2454.000000	2.624526
2455.000000	2.606514
2456.000000	2.589154
2457.000000	2.571483
2458.000000	2.554257
2459.000000	2.537480
2460.000000	2.520183
2461.000000	2.502474
2462.000000	2.485983
2463.000000	2.470854
2464.000000	2.455157
2465.000000	2.439229
2466.000000	2.424091
2467.000000	2.409760
2468.000000	2.395589
2469.000000	2.381189
2470.000000	2.367240
2471.000000	2.354274
2472.000000	2.342589
2473.000000	2.330709
2474.000000	2.319960
2475.000000	2.308931
2476.000000	2.298683
2477.000000	2.289577
2478.000000	2.281760
2479.000000	2.274454
2480.000000	2.266560
2481.000000	2.258669
2482.000000	2.250386
2483.000000	2.240786
2484.000000	2.235297
2485.000000	2.231140
2486.000000	2.228229
2487.000000	2.224966
2488.000000	2.223671
2489.000000	2.224137
2490.000000	2.221803
2491.000000	2.218586
2492.000000	2.217406
2493.000000	2.217777
2494.000000	2.219886
2495.000000	2.221037
2496.000000	2.225866
2497.000000	2.229563
2498.000000	2.233117
2499.000000	2.234931
2500.000000	2.237663
