PE UV       SUBTECH     SPECTRUM    ASCII       PEDS        4.00        
   -1
CICIMAUCR0071-1.ASC
24/04/03
15:28:35.00
24/04/03
15:28:35.00
Vinicio Soto Monge
C. resplendens
250,000000
1
Lambda 1050
1050L1511233
PerkinElmer UV WinLab 6.3.2.0749 / 2.02.05 Lambda 900 UV/VIS/NIR, Aug  7 2015 09:38:08

0
0
3350/servo 860,8/2
0
0
UV/VIS
1
1
1
DoubleDePol,CommonBeamDepol,RBeamAtt,SBeamAtt,60mm sphere, WB InGaAs Detector
0
0
0
0
Program
Program
3350/servo 860,8/2
3350/0,2 860,8/0,2
3350/0,2 860,8/0,2
0
15.00
 
 
 
0
 
860,8
319,2
860,8
Front
100
on
S:100 R:100
0
0
0
0
 
0
 
 
 
0
 
 
0
0
0
0
0
 
 
 
 
0
0


0
0
#HDR
-1
-1
#GR
nm
%R
1.0
0.0
2500,000000
-1,000000
2251
8
72,736100
5,101300
#DATA
250.000000	nan
251.000000	nan
252.000000	nan
253.000000	nan
254.000000	nan
255.000000	nan
256.000000	nan
257.000000	nan
258.000000	nan
259.000000	nan
260.000000	nan
261.000000	nan
262.000000	nan
263.000000	nan
264.000000	nan
265.000000	nan
266.000000	nan
267.000000	nan
268.000000	nan
269.000000	nan
270.000000	nan
271.000000	nan
272.000000	nan
273.000000	nan
274.000000	nan
275.000000	nan
276.000000	nan
277.000000	nan
278.000000	nan
279.000000	nan
280.000000	nan
281.000000	nan
282.000000	nan
283.000000	nan
284.000000	5.480841
285.000000	5.466806
286.000000	5.452424
287.000000	5.436892
288.000000	5.422241
289.000000	5.407769
290.000000	5.393036
291.000000	5.376776
292.000000	5.363347
293.000000	5.348259
294.000000	5.335165
295.000000	5.321084
296.000000	5.307745
297.000000	5.295436
298.000000	5.283248
299.000000	5.269607
300.000000	5.258238
301.000000	5.247541
302.000000	5.239319
303.000000	5.232003
304.000000	5.223007
305.000000	5.213546
306.000000	5.207549
307.000000	5.201018
308.000000	5.194788
309.000000	5.188085
310.000000	5.181739
311.000000	5.175027
312.000000	5.166729
313.000000	5.159680
314.000000	5.153044
315.000000	5.147106
316.000000	5.142172
317.000000	5.148084
318.000000	5.158676
319.000000	5.166216
320.000000	5.179469
321.000000	5.185977
322.000000	5.190772
323.000000	5.197580
324.000000	5.196872
325.000000	5.195863
326.000000	5.196495
327.000000	5.203042
328.000000	5.202671
329.000000	5.203365
330.000000	5.207336
331.000000	5.207534
332.000000	5.211732
333.000000	5.215057
334.000000	5.220760
335.000000	5.224084
336.000000	5.230629
337.000000	5.237017
338.000000	5.240608
339.000000	5.240470
340.000000	5.242128
341.000000	5.244863
342.000000	5.247269
343.000000	5.253550
344.000000	5.257646
345.000000	5.257498
346.000000	5.260355
347.000000	5.267404
348.000000	5.272503
349.000000	5.278756
350.000000	5.283362
351.000000	5.287375
352.000000	5.285893
353.000000	5.279413
354.000000	5.274074
355.000000	5.261534
356.000000	5.258405
357.000000	5.261004
358.000000	5.262804
359.000000	5.271557
360.000000	5.282174
361.000000	5.293560
362.000000	5.294991
363.000000	5.303644
364.000000	5.312062
365.000000	5.318567
366.000000	5.328666
367.000000	5.335508
368.000000	5.345281
369.000000	5.354801
370.000000	5.364911
371.000000	5.370623
372.000000	5.377465
373.000000	5.387022
374.000000	5.401409
375.000000	5.415748
376.000000	5.427516
377.000000	5.443068
378.000000	5.455281
379.000000	5.472095
380.000000	5.492678
381.000000	5.511798
382.000000	5.528943
383.000000	5.549526
384.000000	5.568800
385.000000	5.591851
386.000000	5.615722
387.000000	5.636741
388.000000	5.659980
389.000000	5.687093
390.000000	5.717395
391.000000	5.745129
392.000000	5.773439
393.000000	5.801737
394.000000	5.832796
395.000000	5.864608
396.000000	5.897750
397.000000	5.936844
398.000000	5.979337
399.000000	6.024011
400.000000	6.071382
401.000000	6.122748
402.000000	6.176522
403.000000	6.234433
404.000000	6.296624
405.000000	6.363852
406.000000	6.438808
407.000000	6.519091
408.000000	6.606026
409.000000	6.700747
410.000000	6.801224
411.000000	6.910596
412.000000	7.026316
413.000000	7.150131
414.000000	7.282965
415.000000	7.425348
416.000000	7.578230
417.000000	7.740176
418.000000	7.912002
419.000000	8.094564
420.000000	8.286840
421.000000	8.489005
422.000000	8.701484
423.000000	8.923969
424.000000	9.156387
425.000000	9.398434
426.000000	9.649650
427.000000	9.909780
428.000000	10.178280
429.000000	10.455147
430.000000	10.739661
431.000000	11.031220
432.000000	11.329302
433.000000	11.633509
434.000000	11.943197
435.000000	12.258047
436.000000	12.577341
437.000000	12.900402
438.000000	13.226416
439.000000	13.554565
440.000000	13.884111
441.000000	14.214399
442.000000	14.544305
443.000000	14.873612
444.000000	15.201398
445.000000	15.526290
446.000000	15.847987
447.000000	16.165246
448.000000	16.477401
449.000000	16.784232
450.000000	17.084936
451.000000	17.378797
452.000000	17.665797
453.000000	17.944832
454.000000	18.215605
455.000000	18.477962
456.000000	18.731046
457.000000	18.975134
458.000000	19.209933
459.000000	19.434852
460.000000	19.650404
461.000000	19.856381
462.000000	20.051984
463.000000	20.238101
464.000000	20.415372
465.000000	20.583145
466.000000	20.741871
467.000000	20.892060
468.000000	21.032887
469.000000	21.164500
470.000000	21.286495
471.000000	21.398993
472.000000	21.502316
473.000000	21.596858
474.000000	21.683152
475.000000	21.761156
476.000000	21.830963
477.000000	21.893979
478.000000	21.950992
479.000000	22.001831
480.000000	22.047229
481.000000	22.087423
482.000000	22.123830
483.000000	22.156558
484.000000	22.185738
485.000000	22.213083
486.000000	22.239298
487.000000	22.266165
488.000000	22.295775
489.000000	22.329688
490.000000	22.369646
491.000000	22.416835
492.000000	22.471839
493.000000	22.535478
494.000000	22.609690
495.000000	22.694175
496.000000	22.789826
497.000000	22.898007
498.000000	23.018132
499.000000	23.150734
500.000000	23.296858
501.000000	23.455743
502.000000	23.627770
503.000000	23.814270
504.000000	24.015681
505.000000	24.232666
506.000000	24.466100
507.000000	24.716581
508.000000	24.984656
509.000000	25.271888
510.000000	25.579371
511.000000	25.908739
512.000000	26.259888
513.000000	26.633658
514.000000	27.030958
515.000000	27.452521
516.000000	27.897538
517.000000	28.366389
518.000000	28.859059
519.000000	29.375714
520.000000	29.916055
521.000000	30.480383
522.000000	31.067029
523.000000	31.675177
524.000000	32.304000
525.000000	32.951556
526.000000	33.618255
527.000000	34.302836
528.000000	35.004703
529.000000	35.722143
530.000000	36.454757
531.000000	37.201095
532.000000	37.959491
533.000000	38.728294
534.000000	39.505725
535.000000	40.290202
536.000000	41.081034
537.000000	41.876814
538.000000	42.676064
539.000000	43.477145
540.000000	44.279660
541.000000	45.083181
542.000000	45.887232
543.000000	46.689341
544.000000	47.487372
545.000000	48.280741
546.000000	49.066689
547.000000	49.844644
548.000000	50.613138
549.000000	51.370170
550.000000	52.115571
551.000000	52.848607
552.000000	53.568218
553.000000	54.274419
554.000000	54.964853
555.000000	55.638773
556.000000	56.293939
557.000000	56.931516
558.000000	57.547970
559.000000	58.143318
560.000000	58.721636
561.000000	59.278292
562.000000	59.812318
563.000000	60.324038
564.000000	60.814096
565.000000	61.282425
566.000000	61.729752
567.000000	62.157108
568.000000	62.567648
569.000000	62.960354
570.000000	63.336901
571.000000	63.698098
572.000000	64.045169
573.000000	64.378141
574.000000	64.698521
575.000000	65.005409
576.000000	65.298738
577.000000	65.577299
578.000000	65.842188
579.000000	66.094926
580.000000	66.334028
581.000000	66.559438
582.000000	66.773005
583.000000	66.972783
584.000000	67.159535
585.000000	67.333890
586.000000	67.497026
587.000000	67.648266
588.000000	67.788946
589.000000	67.920286
590.000000	68.039637
591.000000	68.150176
592.000000	68.249727
593.000000	68.340959
594.000000	68.422471
595.000000	68.489600
596.000000	68.545023
597.000000	68.590925
598.000000	68.625268
599.000000	68.645704
600.000000	68.653612
601.000000	68.647388
602.000000	68.627148
603.000000	68.590188
604.000000	68.537574
605.000000	68.468989
606.000000	68.385634
607.000000	68.286687
608.000000	68.170856
609.000000	68.041440
610.000000	67.897186
611.000000	67.739846
612.000000	67.568406
613.000000	67.383346
614.000000	67.184146
615.000000	66.971142
616.000000	66.745951
617.000000	66.502714
618.000000	66.245356
619.000000	65.973886
620.000000	65.685296
621.000000	65.379210
622.000000	65.057348
623.000000	64.715584
624.000000	64.353738
625.000000	63.974747
626.000000	63.576559
627.000000	63.159639
628.000000	62.724466
629.000000	62.269724
630.000000	61.797226
631.000000	61.307256
632.000000	60.798830
633.000000	60.274766
634.000000	59.735805
635.000000	59.183452
636.000000	58.620226
637.000000	58.046397
638.000000	57.467058
639.000000	56.885404
640.000000	56.301408
641.000000	55.717676
642.000000	55.136996
643.000000	54.565338
644.000000	54.002263
645.000000	53.452571
646.000000	52.917972
647.000000	52.402255
648.000000	51.909157
649.000000	51.440255
650.000000	50.999050
651.000000	50.587124
652.000000	50.210197
653.000000	49.866859
654.000000	49.559628
655.000000	49.289028
656.000000	49.057488
657.000000	48.863840
658.000000	48.711106
659.000000	48.599334
660.000000	48.526551
661.000000	48.492916
662.000000	48.499186
663.000000	48.544107
664.000000	48.627712
665.000000	48.749432
666.000000	48.907883
667.000000	49.104003
668.000000	49.337269
669.000000	49.606987
670.000000	49.908774
671.000000	50.241987
672.000000	50.606234
673.000000	50.996647
674.000000	51.412221
675.000000	51.852036
676.000000	52.311270
677.000000	52.788111
678.000000	53.277638
679.000000	53.776539
680.000000	54.282205
681.000000	54.791850
682.000000	55.304500
683.000000	55.813221
684.000000	56.316798
685.000000	56.810217
686.000000	57.292610
687.000000	57.762374
688.000000	58.217895
689.000000	58.655874
690.000000	59.079143
691.000000	59.483784
692.000000	59.869733
693.000000	60.237103
694.000000	60.585279
695.000000	60.916058
696.000000	61.230310
697.000000	61.526768
698.000000	61.808804
699.000000	62.075700
700.000000	62.327621
701.000000	62.568529
702.000000	62.796333
703.000000	63.010743
704.000000	63.213812
705.000000	63.409319
706.000000	63.596802
707.000000	63.773908
708.000000	63.943359
709.000000	64.105526
710.000000	64.262537
711.000000	64.416155
712.000000	64.563816
713.000000	64.707625
714.000000	64.848304
715.000000	64.984970
716.000000	65.118936
717.000000	65.249091
718.000000	65.380145
719.000000	65.509156
720.000000	65.637855
721.000000	65.766764
722.000000	65.895686
723.000000	66.025292
724.000000	66.155995
725.000000	66.284269
726.000000	66.412534
727.000000	66.544149
728.000000	66.677448
729.000000	66.814381
730.000000	66.955471
731.000000	67.098313
732.000000	67.245095
733.000000	67.392336
734.000000	67.543367
735.000000	67.699063
736.000000	67.856193
737.000000	68.016228
738.000000	68.179401
739.000000	68.345513
740.000000	68.513128
741.000000	68.680634
742.000000	68.849904
743.000000	69.018267
744.000000	69.184673
745.000000	69.347994
746.000000	69.507763
747.000000	69.664805
748.000000	69.818174
749.000000	69.966597
750.000000	70.111939
751.000000	70.251400
752.000000	70.384883
753.000000	70.510467
754.000000	70.627298
755.000000	70.737492
756.000000	70.841101
757.000000	70.937863
758.000000	71.027530
759.000000	71.110032
760.000000	71.187871
761.000000	71.259628
762.000000	71.322916
763.000000	71.377290
764.000000	71.423084
765.000000	71.460923
766.000000	71.490465
767.000000	71.513786
768.000000	71.529732
769.000000	71.538408
770.000000	71.539981
771.000000	71.534324
772.000000	71.521226
773.000000	71.500799
774.000000	71.473969
775.000000	71.441800
776.000000	71.408071
777.000000	71.369566
778.000000	71.327947
779.000000	71.285307
780.000000	71.236650
781.000000	71.185859
782.000000	71.132701
783.000000	71.078239
784.000000	71.020979
785.000000	70.958944
786.000000	70.895699
787.000000	70.829880
788.000000	70.762255
789.000000	70.697088
790.000000	70.630728
791.000000	70.562568
792.000000	70.491009
793.000000	70.417067
794.000000	70.342379
795.000000	70.264432
796.000000	70.187896
797.000000	70.109167
798.000000	70.028414
799.000000	69.945158
800.000000	69.860496
801.000000	69.775112
802.000000	69.684520
803.000000	69.591160
804.000000	69.496227
805.000000	69.398419
806.000000	69.299181
807.000000	69.202569
808.000000	69.105825
809.000000	69.002388
810.000000	68.897487
811.000000	68.787452
812.000000	68.678591
813.000000	68.565787
814.000000	68.449091
815.000000	68.332949
816.000000	68.213113
817.000000	68.092007
818.000000	67.967469
819.000000	67.837892
820.000000	67.708272
821.000000	67.578669
822.000000	67.445818
823.000000	67.303673
824.000000	67.157543
825.000000	67.013581
826.000000	66.868380
827.000000	66.722024
828.000000	66.570979
829.000000	66.409696
830.000000	66.251359
831.000000	66.089782
832.000000	65.929882
833.000000	65.765780
834.000000	65.603052
835.000000	65.440925
836.000000	65.272534
837.000000	65.105192
838.000000	64.935684
839.000000	64.765352
840.000000	64.595079
841.000000	64.425103
842.000000	64.248711
843.000000	64.066959
844.000000	63.888855
845.000000	63.719574
846.000000	63.539103
847.000000	63.364474
848.000000	63.201080
849.000000	63.040078
850.000000	62.869499
851.000000	62.703302
852.000000	62.538479
853.000000	62.386802
854.000000	62.232830
855.000000	62.082887
856.000000	61.931664
857.000000	61.790661
858.000000	61.682200
859.000000	61.595397
860.000000	61.508853
861.000000	61.425212
862.000000	61.345890
863.000000	61.273915
864.000000	61.213788
865.000000	61.153805
866.000000	61.097073
867.000000	61.040681
868.000000	60.992687
869.000000	60.946466
870.000000	60.900595
871.000000	60.863174
872.000000	60.828576
873.000000	60.799028
874.000000	60.772013
875.000000	60.746232
876.000000	60.721886
877.000000	60.701237
878.000000	60.685472
879.000000	60.671787
880.000000	60.648468
881.000000	60.637513
882.000000	60.618532
883.000000	60.591629
884.000000	60.562045
885.000000	60.543179
886.000000	60.522252
887.000000	60.500437
888.000000	60.467054
889.000000	60.441855
890.000000	60.415073
891.000000	60.389503
892.000000	60.357732
893.000000	60.304266
894.000000	60.233094
895.000000	60.161569
896.000000	60.090323
897.000000	60.018917
898.000000	59.948129
899.000000	59.878163
900.000000	59.809717
901.000000	59.742163
902.000000	59.676891
903.000000	59.613331
904.000000	59.551389
905.000000	59.491954
906.000000	59.433823
907.000000	59.377297
908.000000	59.323680
909.000000	59.271186
910.000000	59.221171
911.000000	59.172926
912.000000	59.126429
913.000000	59.082557
914.000000	59.038697
915.000000	58.996734
916.000000	58.956423
917.000000	58.918166
918.000000	58.880851
919.000000	58.845840
920.000000	58.812406
921.000000	58.778680
922.000000	58.746751
923.000000	58.715226
924.000000	58.684934
925.000000	58.655211
926.000000	58.625771
927.000000	58.598506
928.000000	58.570354
929.000000	58.542571
930.000000	58.515951
931.000000	58.487611
932.000000	58.459460
933.000000	58.431631
934.000000	58.403791
935.000000	58.374977
936.000000	58.345046
937.000000	58.313960
938.000000	58.280957
939.000000	58.247811
940.000000	58.213789
941.000000	58.179586
942.000000	58.144486
943.000000	58.107643
944.000000	58.070809
945.000000	58.033594
946.000000	57.994671
947.000000	57.955326
948.000000	57.915189
949.000000	57.876509
950.000000	57.836786
951.000000	57.796749
952.000000	57.755897
953.000000	57.714734
954.000000	57.673309
955.000000	57.630897
956.000000	57.588891
957.000000	57.546340
958.000000	57.504023
959.000000	57.461329
960.000000	57.419140
961.000000	57.375883
962.000000	57.332246
963.000000	57.289420
964.000000	57.246563
965.000000	57.203420
966.000000	57.160860
967.000000	57.118637
968.000000	57.075597
969.000000	57.032720
970.000000	56.990666
971.000000	56.949331
972.000000	56.907829
973.000000	56.867714
974.000000	56.827689
975.000000	56.787283
976.000000	56.746666
977.000000	56.706174
978.000000	56.666429
979.000000	56.626226
980.000000	56.585611
981.000000	56.545986
982.000000	56.506317
983.000000	56.466563
984.000000	56.426903
985.000000	56.387583
986.000000	56.348866
987.000000	56.310934
988.000000	56.273526
989.000000	56.236603
990.000000	56.200783
991.000000	56.165920
992.000000	56.132077
993.000000	56.100143
994.000000	56.069217
995.000000	56.038911
996.000000	56.010937
997.000000	55.983797
998.000000	55.958706
999.000000	55.935254
1000.000000	55.912900
1001.000000	55.892883
1002.000000	55.874446
1003.000000	55.858249
1004.000000	55.843374
1005.000000	55.829660
1006.000000	55.818194
1007.000000	55.809246
1008.000000	55.801609
1009.000000	55.795434
1010.000000	55.791346
1011.000000	55.789151
1012.000000	55.788783
1013.000000	55.789674
1014.000000	55.792829
1015.000000	55.797577
1016.000000	55.803791
1017.000000	55.812263
1018.000000	55.822266
1019.000000	55.833443
1020.000000	55.846594
1021.000000	55.860589
1022.000000	55.876260
1023.000000	55.894200
1024.000000	55.913554
1025.000000	55.934177
1026.000000	55.956211
1027.000000	55.979126
1028.000000	56.003060
1029.000000	56.028394
1030.000000	56.054777
1031.000000	56.082166
1032.000000	56.110566
1033.000000	56.140146
1034.000000	56.170840
1035.000000	56.202483
1036.000000	56.235311
1037.000000	56.268991
1038.000000	56.303506
1039.000000	56.339234
1040.000000	56.376194
1041.000000	56.413323
1042.000000	56.451114
1043.000000	56.490300
1044.000000	56.530160
1045.000000	56.570326
1046.000000	56.611686
1047.000000	56.653789
1048.000000	56.696774
1049.000000	56.740117
1050.000000	56.784291
1051.000000	56.829400
1052.000000	56.874669
1053.000000	56.920814
1054.000000	56.967649
1055.000000	57.014531
1056.000000	57.062051
1057.000000	57.110369
1058.000000	57.158594
1059.000000	57.206989
1060.000000	57.256177
1061.000000	57.305617
1062.000000	57.355634
1063.000000	57.406103
1064.000000	57.456931
1065.000000	57.507934
1066.000000	57.559306
1067.000000	57.610937
1068.000000	57.662426
1069.000000	57.714209
1070.000000	57.766586
1071.000000	57.818694
1072.000000	57.871226
1073.000000	57.924143
1074.000000	57.977063
1075.000000	58.030311
1076.000000	58.084346
1077.000000	58.138454
1078.000000	58.192634
1079.000000	58.247386
1080.000000	58.302874
1081.000000	58.358057
1082.000000	58.413391
1083.000000	58.469486
1084.000000	58.526277
1085.000000	58.582914
1086.000000	58.639340
1087.000000	58.696131
1088.000000	58.752574
1089.000000	58.808906
1090.000000	58.865386
1091.000000	58.921557
1092.000000	58.977306
1093.000000	59.032860
1094.000000	59.088097
1095.000000	59.142734
1096.000000	59.197040
1097.000000	59.250309
1098.000000	59.302520
1099.000000	59.354140
1100.000000	59.404849
1101.000000	59.454846
1102.000000	59.503317
1103.000000	59.550931
1104.000000	59.597509
1105.000000	59.642380
1106.000000	59.686189
1107.000000	59.728763
1108.000000	59.769760
1109.000000	59.810029
1110.000000	59.848677
1111.000000	59.885223
1112.000000	59.920743
1113.000000	59.954334
1114.000000	59.986034
1115.000000	60.015909
1116.000000	60.044020
1117.000000	60.070717
1118.000000	60.095240
1119.000000	60.117660
1120.000000	60.138674
1121.000000	60.158009
1122.000000	60.175131
1123.000000	60.189771
1124.000000	60.201971
1125.000000	60.211603
1126.000000	60.218146
1127.000000	60.221377
1128.000000	60.221386
1129.000000	60.217860
1130.000000	60.210494
1131.000000	60.198440
1132.000000	60.182031
1133.000000	60.162563
1134.000000	60.138903
1135.000000	60.110451
1136.000000	60.077557
1137.000000	60.038771
1138.000000	59.993746
1139.000000	59.943777
1140.000000	59.888969
1141.000000	59.830420
1142.000000	59.767066
1143.000000	59.699346
1144.000000	59.627057
1145.000000	59.551729
1146.000000	59.472803
1147.000000	59.389671
1148.000000	59.302834
1149.000000	59.212574
1150.000000	59.118709
1151.000000	59.021537
1152.000000	58.919469
1153.000000	58.813994
1154.000000	58.705369
1155.000000	58.591340
1156.000000	58.473700
1157.000000	58.351714
1158.000000	58.226051
1159.000000	58.096211
1160.000000	57.962263
1161.000000	57.824811
1162.000000	57.684011
1163.000000	57.539783
1164.000000	57.393106
1165.000000	57.243229
1166.000000	57.092606
1167.000000	56.940869
1168.000000	56.787443
1169.000000	56.632883
1170.000000	56.479263
1171.000000	56.326049
1172.000000	56.175357
1173.000000	56.027263
1174.000000	55.880480
1175.000000	55.736057
1176.000000	55.592429
1177.000000	55.451271
1178.000000	55.311471
1179.000000	55.172909
1180.000000	55.034949
1181.000000	54.898560
1182.000000	54.763366
1183.000000	54.630137
1184.000000	54.498963
1185.000000	54.370554
1186.000000	54.245189
1187.000000	54.124363
1188.000000	54.007063
1189.000000	53.894043
1190.000000	53.787837
1191.000000	53.687157
1192.000000	53.592766
1193.000000	53.505720
1194.000000	53.425820
1195.000000	53.353671
1196.000000	53.289209
1197.000000	53.231971
1198.000000	53.182509
1199.000000	53.140434
1200.000000	53.105837
1201.000000	53.077583
1202.000000	53.056560
1203.000000	53.041346
1204.000000	53.032120
1205.000000	53.028497
1206.000000	53.029743
1207.000000	53.036391
1208.000000	53.047711
1209.000000	53.063494
1210.000000	53.084046
1211.000000	53.109789
1212.000000	53.139331
1213.000000	53.173560
1214.000000	53.211877
1215.000000	53.254871
1216.000000	53.302134
1217.000000	53.353511
1218.000000	53.408814
1219.000000	53.467489
1220.000000	53.528951
1221.000000	53.593460
1222.000000	53.660243
1223.000000	53.729300
1224.000000	53.799683
1225.000000	53.869966
1226.000000	53.940446
1227.000000	54.011143
1228.000000	54.080771
1229.000000	54.149800
1230.000000	54.218189
1231.000000	54.285489
1232.000000	54.351794
1233.000000	54.416554
1234.000000	54.479780
1235.000000	54.542226
1236.000000	54.603209
1237.000000	54.662486
1238.000000	54.721177
1239.000000	54.779017
1240.000000	54.835383
1241.000000	54.891209
1242.000000	54.945837
1243.000000	54.999854
1244.000000	55.054074
1245.000000	55.107320
1246.000000	55.159549
1247.000000	55.211666
1248.000000	55.262940
1249.000000	55.314377
1250.000000	55.365500
1251.000000	55.416126
1252.000000	55.466606
1253.000000	55.516126
1254.000000	55.564897
1255.000000	55.612411
1256.000000	55.658589
1257.000000	55.703317
1258.000000	55.746983
1259.000000	55.789020
1260.000000	55.830654
1261.000000	55.871066
1262.000000	55.910217
1263.000000	55.948474
1264.000000	55.985951
1265.000000	56.022194
1266.000000	56.058074
1267.000000	56.093303
1268.000000	56.127854
1269.000000	56.162009
1270.000000	56.195763
1271.000000	56.229011
1272.000000	56.261563
1273.000000	56.293271
1274.000000	56.324340
1275.000000	56.354809
1276.000000	56.384360
1277.000000	56.413426
1278.000000	56.441837
1279.000000	56.469286
1280.000000	56.495897
1281.000000	56.521871
1282.000000	56.546611
1283.000000	56.570969
1284.000000	56.594506
1285.000000	56.616943
1286.000000	56.638389
1287.000000	56.658934
1288.000000	56.678834
1289.000000	56.697909
1290.000000	56.716560
1291.000000	56.734486
1292.000000	56.752086
1293.000000	56.768274
1294.000000	56.783794
1295.000000	56.798074
1296.000000	56.811246
1297.000000	56.823697
1298.000000	56.834869
1299.000000	56.844551
1300.000000	56.852877
1301.000000	56.859457
1302.000000	56.864257
1303.000000	56.867474
1304.000000	56.868697
1305.000000	56.867817
1306.000000	56.865263
1307.000000	56.860877
1308.000000	56.854263
1309.000000	56.845454
1310.000000	56.834726
1311.000000	56.821100
1312.000000	56.804160
1313.000000	56.784334
1314.000000	56.761071
1315.000000	56.734340
1316.000000	56.703729
1317.000000	56.669383
1318.000000	56.631491
1319.000000	56.589934
1320.000000	56.544494
1321.000000	56.495517
1322.000000	56.442783
1323.000000	56.385714
1324.000000	56.324663
1325.000000	56.259686
1326.000000	56.190420
1327.000000	56.116966
1328.000000	56.039729
1329.000000	55.958211
1330.000000	55.872429
1331.000000	55.782766
1332.000000	55.689134
1333.000000	55.591143
1334.000000	55.488580
1335.000000	55.381880
1336.000000	55.271374
1337.000000	55.156943
1338.000000	55.037931
1339.000000	54.914614
1340.000000	54.787594
1341.000000	54.656140
1342.000000	54.520300
1343.000000	54.380671
1344.000000	54.237003
1345.000000	54.088843
1346.000000	53.936674
1347.000000	53.781460
1348.000000	53.622240
1349.000000	53.459014
1350.000000	53.292400
1351.000000	53.122674
1352.000000	52.950197
1353.000000	52.774457
1354.000000	52.597694
1355.000000	52.420411
1356.000000	52.241394
1357.000000	52.061634
1358.000000	51.882280
1359.000000	51.703669
1360.000000	51.526209
1361.000000	51.350543
1362.000000	51.175354
1363.000000	50.999443
1364.000000	50.823920
1365.000000	50.648569
1366.000000	50.471549
1367.000000	50.293234
1368.000000	50.114103
1369.000000	49.932357
1370.000000	49.747266
1371.000000	49.557626
1372.000000	49.360663
1373.000000	49.155360
1374.000000	48.940631
1375.000000	48.714297
1376.000000	48.477589
1377.000000	48.231191
1378.000000	47.974217
1379.000000	47.708443
1380.000000	47.434094
1381.000000	47.156377
1382.000000	46.872846
1383.000000	46.584566
1384.000000	46.293617
1385.000000	45.998449
1386.000000	45.701351
1387.000000	45.402154
1388.000000	45.101966
1389.000000	44.796280
1390.000000	44.486003
1391.000000	44.173783
1392.000000	43.858651
1393.000000	43.538366
1394.000000	43.214477
1395.000000	42.886700
1396.000000	42.551529
1397.000000	42.207980
1398.000000	41.860494
1399.000000	41.510074
1400.000000	41.156180
1401.000000	40.797906
1402.000000	40.432520
1403.000000	40.063417
1404.000000	39.691880
1405.000000	39.319423
1406.000000	38.945526
1407.000000	38.574749
1408.000000	38.207929
1409.000000	37.846937
1410.000000	37.492669
1411.000000	37.144766
1412.000000	36.803857
1413.000000	36.471906
1414.000000	36.146654
1415.000000	35.827991
1416.000000	35.511403
1417.000000	35.198991
1418.000000	34.892717
1419.000000	34.589526
1420.000000	34.290314
1421.000000	33.993197
1422.000000	33.698600
1423.000000	33.406146
1424.000000	33.117840
1425.000000	32.833283
1426.000000	32.550249
1427.000000	32.269626
1428.000000	31.994909
1429.000000	31.722503
1430.000000	31.452494
1431.000000	31.189083
1432.000000	30.934883
1433.000000	30.685863
1434.000000	30.441557
1435.000000	30.201506
1436.000000	29.969997
1437.000000	29.748900
1438.000000	29.535380
1439.000000	29.329746
1440.000000	29.131846
1441.000000	28.942163
1442.000000	28.760337
1443.000000	28.587009
1444.000000	28.421566
1445.000000	28.265071
1446.000000	28.117883
1447.000000	27.977231
1448.000000	27.841731
1449.000000	27.712743
1450.000000	27.591214
1451.000000	27.475974
1452.000000	27.366060
1453.000000	27.259834
1454.000000	27.157877
1455.000000	27.060937
1456.000000	26.968426
1457.000000	26.879346
1458.000000	26.793006
1459.000000	26.710851
1460.000000	26.631606
1461.000000	26.555309
1462.000000	26.482111
1463.000000	26.410471
1464.000000	26.341831
1465.000000	26.275854
1466.000000	26.211243
1467.000000	26.148446
1468.000000	26.087591
1469.000000	26.027677
1470.000000	25.970529
1471.000000	25.914609
1472.000000	25.859857
1473.000000	25.805883
1474.000000	25.753640
1475.000000	25.701754
1476.000000	25.652377
1477.000000	25.604797
1478.000000	25.558600
1479.000000	25.513700
1480.000000	25.469931
1481.000000	25.426523
1482.000000	25.386366
1483.000000	25.348934
1484.000000	25.312809
1485.000000	25.277651
1486.000000	25.244957
1487.000000	25.215311
1488.000000	25.187249
1489.000000	25.161814
1490.000000	25.138406
1491.000000	25.116866
1492.000000	25.097803
1493.000000	25.081786
1494.000000	25.067677
1495.000000	25.055731
1496.000000	25.046883
1497.000000	25.041020
1498.000000	25.037537
1499.000000	25.036406
1500.000000	25.037540
1501.000000	25.042014
1502.000000	25.049366
1503.000000	25.060191
1504.000000	25.074271
1505.000000	25.091737
1506.000000	25.112123
1507.000000	25.135883
1508.000000	25.162960
1509.000000	25.193409
1510.000000	25.227083
1511.000000	25.263286
1512.000000	25.301949
1513.000000	25.343314
1514.000000	25.387223
1515.000000	25.433740
1516.000000	25.482931
1517.000000	25.533743
1518.000000	25.585794
1519.000000	25.640609
1520.000000	25.697511
1521.000000	25.756166
1522.000000	25.816454
1523.000000	25.878640
1524.000000	25.942234
1525.000000	26.007343
1526.000000	26.073866
1527.000000	26.142329
1528.000000	26.211934
1529.000000	26.282934
1530.000000	26.355774
1531.000000	26.429574
1532.000000	26.503360
1533.000000	26.577697
1534.000000	26.653083
1535.000000	26.729406
1536.000000	26.805263
1537.000000	26.880549
1538.000000	26.955911
1539.000000	27.031249
1540.000000	27.105329
1541.000000	27.178900
1542.000000	27.251903
1543.000000	27.324683
1544.000000	27.396731
1545.000000	27.468163
1546.000000	27.538571
1547.000000	27.608560
1548.000000	27.678631
1549.000000	27.748454
1550.000000	27.818103
1551.000000	27.887714
1552.000000	27.956771
1553.000000	28.026037
1554.000000	28.094591
1555.000000	28.162677
1556.000000	28.229803
1557.000000	28.295746
1558.000000	28.360463
1559.000000	28.423960
1560.000000	28.485931
1561.000000	28.547111
1562.000000	28.606620
1563.000000	28.664420
1564.000000	28.720071
1565.000000	28.773617
1566.000000	28.825557
1567.000000	28.875757
1568.000000	28.924054
1569.000000	28.970097
1570.000000	29.014040
1571.000000	29.056506
1572.000000	29.097749
1573.000000	29.137303
1574.000000	29.174983
1575.000000	29.211677
1576.000000	29.247597
1577.000000	29.282809
1578.000000	29.316543
1579.000000	29.349157
1580.000000	29.381023
1581.000000	29.412769
1582.000000	29.443594
1583.000000	29.472726
1584.000000	29.501226
1585.000000	29.528766
1586.000000	29.555157
1587.000000	29.580903
1588.000000	29.606140
1589.000000	29.630963
1590.000000	29.654891
1591.000000	29.678377
1592.000000	29.702031
1593.000000	29.725817
1594.000000	29.750140
1595.000000	29.775400
1596.000000	29.801186
1597.000000	29.827889
1598.000000	29.856169
1599.000000	29.886217
1600.000000	29.917840
1601.000000	29.951131
1602.000000	29.986269
1603.000000	30.023360
1604.000000	30.063009
1605.000000	30.104377
1606.000000	30.147571
1607.000000	30.192474
1608.000000	30.238989
1609.000000	30.287151
1610.000000	30.336877
1611.000000	30.387337
1612.000000	30.438169
1613.000000	30.489877
1614.000000	30.542414
1615.000000	30.595786
1616.000000	30.649266
1617.000000	30.702989
1618.000000	30.757343
1619.000000	30.811789
1620.000000	30.866629
1621.000000	30.921600
1622.000000	30.976709
1623.000000	31.031871
1624.000000	31.087340
1625.000000	31.142989
1626.000000	31.199240
1627.000000	31.255383
1628.000000	31.312434
1629.000000	31.369540
1630.000000	31.426371
1631.000000	31.483451
1632.000000	31.540211
1633.000000	31.596274
1634.000000	31.651423
1635.000000	31.705500
1636.000000	31.758683
1637.000000	31.811260
1638.000000	31.862666
1639.000000	31.912303
1640.000000	31.961551
1641.000000	32.009631
1642.000000	32.056769
1643.000000	32.102469
1644.000000	32.147143
1645.000000	32.190597
1646.000000	32.233034
1647.000000	32.274957
1648.000000	32.315763
1649.000000	32.355286
1650.000000	32.393634
1651.000000	32.430580
1652.000000	32.465866
1653.000000	32.499689
1654.000000	32.531060
1655.000000	32.559803
1656.000000	32.586211
1657.000000	32.610231
1658.000000	32.631049
1659.000000	32.648189
1660.000000	32.661920
1661.000000	32.671314
1662.000000	32.676451
1663.000000	32.676449
1664.000000	32.671846
1665.000000	32.663054
1666.000000	32.648786
1667.000000	32.630491
1668.000000	32.607029
1669.000000	32.578780
1670.000000	32.546137
1671.000000	32.508620
1672.000000	32.466029
1673.000000	32.418957
1674.000000	32.367706
1675.000000	32.311520
1676.000000	32.250957
1677.000000	32.185394
1678.000000	32.115063
1679.000000	32.040011
1680.000000	31.959657
1681.000000	31.873000
1682.000000	31.780066
1683.000000	31.682397
1684.000000	31.579329
1685.000000	31.472086
1686.000000	31.361794
1687.000000	31.249657
1688.000000	31.136174
1689.000000	31.023863
1690.000000	30.912829
1691.000000	30.804460
1692.000000	30.698463
1693.000000	30.595406
1694.000000	30.496120
1695.000000	30.400546
1696.000000	30.307603
1697.000000	30.217780
1698.000000	30.130389
1699.000000	30.045860
1700.000000	29.964069
1701.000000	29.883877
1702.000000	29.805726
1703.000000	29.730034
1704.000000	29.656231
1705.000000	29.584663
1706.000000	29.514551
1707.000000	29.445980
1708.000000	29.378557
1709.000000	29.311977
1710.000000	29.245214
1711.000000	29.178431
1712.000000	29.111840
1713.000000	29.045746
1714.000000	28.979277
1715.000000	28.911886
1716.000000	28.845389
1717.000000	28.778777
1718.000000	28.711117
1719.000000	28.643466
1720.000000	28.575466
1721.000000	28.506923
1722.000000	28.437711
1723.000000	28.368286
1724.000000	28.297697
1725.000000	28.226380
1726.000000	28.154046
1727.000000	28.081063
1728.000000	28.007831
1729.000000	27.933683
1730.000000	27.860249
1731.000000	27.787766
1732.000000	27.716560
1733.000000	27.648260
1734.000000	27.581546
1735.000000	27.517614
1736.000000	27.457114
1737.000000	27.399349
1738.000000	27.344843
1739.000000	27.294111
1740.000000	27.247129
1741.000000	27.204469
1742.000000	27.165937
1743.000000	27.132694
1744.000000	27.104306
1745.000000	27.081394
1746.000000	27.063680
1747.000000	27.050789
1748.000000	27.042491
1749.000000	27.039589
1750.000000	27.042974
1751.000000	27.051603
1752.000000	27.065929
1753.000000	27.085843
1754.000000	27.111126
1755.000000	27.140126
1756.000000	27.172889
1757.000000	27.208026
1758.000000	27.244423
1759.000000	27.282254
1760.000000	27.319951
1761.000000	27.357209
1762.000000	27.394251
1763.000000	27.430594
1764.000000	27.466506
1765.000000	27.501200
1766.000000	27.536137
1767.000000	27.570597
1768.000000	27.603806
1769.000000	27.637411
1770.000000	27.669349
1771.000000	27.701300
1772.000000	27.731929
1773.000000	27.761746
1774.000000	27.790900
1775.000000	27.819069
1776.000000	27.846277
1777.000000	27.872974
1778.000000	27.898054
1779.000000	27.922026
1780.000000	27.944677
1781.000000	27.966683
1782.000000	27.987843
1783.000000	28.009220
1784.000000	28.030100
1785.000000	28.050700
1786.000000	28.071014
1787.000000	28.091151
1788.000000	28.111351
1789.000000	28.131631
1790.000000	28.152640
1791.000000	28.173997
1792.000000	28.196186
1793.000000	28.219206
1794.000000	28.242209
1795.000000	28.266740
1796.000000	28.291903
1797.000000	28.317294
1798.000000	28.342891
1799.000000	28.368711
1800.000000	28.395020
1801.000000	28.421151
1802.000000	28.447103
1803.000000	28.472517
1804.000000	28.496546
1805.000000	28.520374
1806.000000	28.544209
1807.000000	28.567983
1808.000000	28.591174
1809.000000	28.613760
1810.000000	28.635949
1811.000000	28.658146
1812.000000	28.679120
1813.000000	28.699451
1814.000000	28.719383
1815.000000	28.739491
1816.000000	28.759023
1817.000000	28.778317
1818.000000	28.796854
1819.000000	28.815340
1820.000000	28.834389
1821.000000	28.853006
1822.000000	28.870694
1823.000000	28.887837
1824.000000	28.904811
1825.000000	28.922291
1826.000000	28.939906
1827.000000	28.957086
1828.000000	28.973966
1829.000000	28.991166
1830.000000	29.008043
1831.000000	29.024023
1832.000000	29.039397
1833.000000	29.055174
1834.000000	29.071531
1835.000000	29.087689
1836.000000	29.103366
1837.000000	29.118711
1838.000000	29.134097
1839.000000	29.149963
1840.000000	29.165757
1841.000000	29.180229
1842.000000	29.192820
1843.000000	29.203780
1844.000000	29.214026
1845.000000	29.224271
1846.000000	29.234600
1847.000000	29.245149
1848.000000	29.253814
1849.000000	29.259986
1850.000000	29.263966
1851.000000	29.266509
1852.000000	29.267777
1853.000000	29.267523
1854.000000	29.265523
1855.000000	29.260180
1856.000000	29.252866
1857.000000	29.244854
1858.000000	29.234960
1859.000000	29.221649
1860.000000	29.203949
1861.000000	29.181723
1862.000000	29.155606
1863.000000	29.125454
1864.000000	29.091249
1865.000000	29.052900
1866.000000	29.011231
1867.000000	28.966214
1868.000000	28.915666
1869.000000	28.857731
1870.000000	28.792080
1871.000000	28.718837
1872.000000	28.637460
1873.000000	28.547149
1874.000000	28.447280
1875.000000	28.337929
1876.000000	28.219131
1877.000000	28.092186
1878.000000	27.957080
1879.000000	27.812574
1880.000000	27.657660
1881.000000	27.492063
1882.000000	27.315071
1883.000000	27.128600
1884.000000	26.932111
1885.000000	26.723794
1886.000000	26.504366
1887.000000	26.274051
1888.000000	26.033386
1889.000000	25.781071
1890.000000	25.518691
1891.000000	25.244880
1892.000000	24.958400
1893.000000	24.660094
1894.000000	24.352560
1895.000000	24.037249
1896.000000	23.716257
1897.000000	23.388726
1898.000000	23.053531
1899.000000	22.710006
1900.000000	22.358403
1901.000000	21.998937
1902.000000	21.633763
1903.000000	21.264777
1904.000000	20.894054
1905.000000	20.521049
1906.000000	20.145163
1907.000000	19.769017
1908.000000	19.394563
1909.000000	19.023486
1910.000000	18.657563
1911.000000	18.296526
1912.000000	17.939137
1913.000000	17.585631
1914.000000	17.236237
1915.000000	16.891260
1916.000000	16.552449
1917.000000	16.222066
1918.000000	15.900326
1919.000000	15.587060
1920.000000	15.284383
1921.000000	14.991131
1922.000000	14.706409
1923.000000	14.431411
1924.000000	14.168029
1925.000000	13.914717
1926.000000	13.673683
1927.000000	13.445786
1928.000000	13.230334
1929.000000	13.026543
1930.000000	12.832923
1931.000000	12.648800
1932.000000	12.474200
1933.000000	12.310709
1934.000000	12.157951
1935.000000	12.017017
1936.000000	11.887574
1937.000000	11.767669
1938.000000	11.656760
1939.000000	11.553669
1940.000000	11.459040
1941.000000	11.375620
1942.000000	11.300589
1943.000000	11.233163
1944.000000	11.172317
1945.000000	11.116426
1946.000000	11.066154
1947.000000	11.022409
1948.000000	10.985663
1949.000000	10.955840
1950.000000	10.931800
1951.000000	10.912577
1952.000000	10.897580
1953.000000	10.886317
1954.000000	10.880026
1955.000000	10.877889
1956.000000	10.881091
1957.000000	10.889737
1958.000000	10.901880
1959.000000	10.916554
1960.000000	10.935040
1961.000000	10.957146
1962.000000	10.982011
1963.000000	11.009554
1964.000000	11.039971
1965.000000	11.073649
1966.000000	11.109174
1967.000000	11.147080
1968.000000	11.187223
1969.000000	11.229940
1970.000000	11.273180
1971.000000	11.318674
1972.000000	11.365191
1973.000000	11.412694
1974.000000	11.462069
1975.000000	11.513814
1976.000000	11.566354
1977.000000	11.619894
1978.000000	11.673951
1979.000000	11.729234
1980.000000	11.784846
1981.000000	11.841980
1982.000000	11.899266
1983.000000	11.957563
1984.000000	12.016963
1985.000000	12.077246
1986.000000	12.137400
1987.000000	12.198334
1988.000000	12.259923
1989.000000	12.321557
1990.000000	12.383383
1991.000000	12.444477
1992.000000	12.505686
1993.000000	12.566797
1994.000000	12.628640
1995.000000	12.690937
1996.000000	12.752551
1997.000000	12.813580
1998.000000	12.875931
1999.000000	12.937177
2000.000000	12.998309
2001.000000	13.059057
2002.000000	13.119909
2003.000000	13.179840
2004.000000	13.239651
2005.000000	13.299609
2006.000000	13.357783
2007.000000	13.415463
2008.000000	13.472386
2009.000000	13.528420
2010.000000	13.583009
2011.000000	13.635680
2012.000000	13.687609
2013.000000	13.738814
2014.000000	13.788443
2015.000000	13.836371
2016.000000	13.881503
2017.000000	13.925511
2018.000000	13.967800
2019.000000	14.007240
2020.000000	14.044366
2021.000000	14.080109
2022.000000	14.113120
2023.000000	14.143237
2024.000000	14.171423
2025.000000	14.197997
2026.000000	14.221840
2027.000000	14.243146
2028.000000	14.261823
2029.000000	14.277509
2030.000000	14.290223
2031.000000	14.300529
2032.000000	14.308634
2033.000000	14.313514
2034.000000	14.315929
2035.000000	14.314729
2036.000000	14.310746
2037.000000	14.303757
2038.000000	14.293954
2039.000000	14.280354
2040.000000	14.263966
2041.000000	14.245154
2042.000000	14.223063
2043.000000	14.197783
2044.000000	14.169751
2045.000000	14.138920
2046.000000	14.106034
2047.000000	14.070380
2048.000000	14.032606
2049.000000	13.992723
2050.000000	13.952217
2051.000000	13.911471
2052.000000	13.869929
2053.000000	13.827460
2054.000000	13.785483
2055.000000	13.744569
2056.000000	13.704591
2057.000000	13.666477
2058.000000	13.630651
2059.000000	13.596503
2060.000000	13.564383
2061.000000	13.535191
2062.000000	13.508454
2063.000000	13.485109
2064.000000	13.465200
2065.000000	13.448677
2066.000000	13.435200
2067.000000	13.425751
2068.000000	13.419320
2069.000000	13.416780
2070.000000	13.418183
2071.000000	13.423177
2072.000000	13.431469
2073.000000	13.443429
2074.000000	13.459443
2075.000000	13.479026
2076.000000	13.502291
2077.000000	13.529143
2078.000000	13.559734
2079.000000	13.593354
2080.000000	13.630337
2081.000000	13.670157
2082.000000	13.712886
2083.000000	13.757980
2084.000000	13.805126
2085.000000	13.853254
2086.000000	13.902389
2087.000000	13.953071
2088.000000	14.004069
2089.000000	14.054749
2090.000000	14.105106
2091.000000	14.154820
2092.000000	14.203231
2093.000000	14.250200
2094.000000	14.295780
2095.000000	14.339560
2096.000000	14.382191
2097.000000	14.423503
2098.000000	14.462683
2099.000000	14.499871
2100.000000	14.535137
2101.000000	14.568457
2102.000000	14.599440
2103.000000	14.628880
2104.000000	14.656554
2105.000000	14.682229
2106.000000	14.706246
2107.000000	14.728823
2108.000000	14.750260
2109.000000	14.769880
2110.000000	14.787580
2111.000000	14.803651
2112.000000	14.818549
2113.000000	14.832423
2114.000000	14.845374
2115.000000	14.857637
2116.000000	14.868729
2117.000000	14.878577
2118.000000	14.887477
2119.000000	14.895326
2120.000000	14.902786
2121.000000	14.909354
2122.000000	14.914737
2123.000000	14.919643
2124.000000	14.923929
2125.000000	14.927386
2126.000000	14.929791
2127.000000	14.930894
2128.000000	14.931220
2129.000000	14.930803
2130.000000	14.929209
2131.000000	14.925874
2132.000000	14.920657
2133.000000	14.913789
2134.000000	14.905386
2135.000000	14.894834
2136.000000	14.882677
2137.000000	14.868334
2138.000000	14.851797
2139.000000	14.833023
2140.000000	14.812100
2141.000000	14.788374
2142.000000	14.762351
2143.000000	14.733603
2144.000000	14.702557
2145.000000	14.669389
2146.000000	14.633403
2147.000000	14.595297
2148.000000	14.553849
2149.000000	14.509994
2150.000000	14.463586
2151.000000	14.415143
2152.000000	14.364783
2153.000000	14.312317
2154.000000	14.257543
2155.000000	14.201514
2156.000000	14.143797
2157.000000	14.084597
2158.000000	14.023977
2159.000000	13.962377
2160.000000	13.898997
2161.000000	13.834854
2162.000000	13.770749
2163.000000	13.705737
2164.000000	13.639994
2165.000000	13.574386
2166.000000	13.508377
2167.000000	13.442711
2168.000000	13.377486
2169.000000	13.312429
2170.000000	13.247897
2171.000000	13.183940
2172.000000	13.120857
2173.000000	13.058471
2174.000000	12.996826
2175.000000	12.936117
2176.000000	12.876626
2177.000000	12.818246
2178.000000	12.760791
2179.000000	12.705120
2180.000000	12.650866
2181.000000	12.597254
2182.000000	12.545111
2183.000000	12.494820
2184.000000	12.445231
2185.000000	12.396171
2186.000000	12.346946
2187.000000	12.298157
2188.000000	12.249523
2189.000000	12.200674
2190.000000	12.150460
2191.000000	12.099989
2192.000000	12.048754
2193.000000	11.995786
2194.000000	11.941163
2195.000000	11.884509
2196.000000	11.825834
2197.000000	11.764440
2198.000000	11.700377
2199.000000	11.634246
2200.000000	11.565377
2201.000000	11.493600
2202.000000	11.419497
2203.000000	11.343474
2204.000000	11.265209
2205.000000	11.185646
2206.000000	11.104540
2207.000000	11.022463
2208.000000	10.939457
2209.000000	10.857414
2210.000000	10.776063
2211.000000	10.696183
2212.000000	10.617091
2213.000000	10.540846
2214.000000	10.466191
2215.000000	10.394271
2216.000000	10.325283
2217.000000	10.259080
2218.000000	10.195777
2219.000000	10.136609
2220.000000	10.081137
2221.000000	10.030049
2222.000000	9.983503
2223.000000	9.941680
2224.000000	9.905509
2225.000000	9.873886
2226.000000	9.845774
2227.000000	9.822109
2228.000000	9.804034
2229.000000	9.790454
2230.000000	9.782989
2231.000000	9.780774
2232.000000	9.782889
2233.000000	9.789997
2234.000000	9.801271
2235.000000	9.816626
2236.000000	9.836483
2237.000000	9.859520
2238.000000	9.884983
2239.000000	9.913386
2240.000000	9.943891
2241.000000	9.975923
2242.000000	10.009146
2243.000000	10.042911
2244.000000	10.075957
2245.000000	10.108074
2246.000000	10.139249
2247.000000	10.168849
2248.000000	10.195363
2249.000000	10.220089
2250.000000	10.241286
2251.000000	10.260306
2252.000000	10.275054
2253.000000	10.287180
2254.000000	10.295426
2255.000000	10.300074
2256.000000	10.301989
2257.000000	10.299934
2258.000000	10.294237
2259.000000	10.285577
2260.000000	10.274757
2261.000000	10.262031
2262.000000	10.247126
2263.000000	10.230249
2264.000000	10.211883
2265.000000	10.192426
2266.000000	10.170937
2267.000000	10.150114
2268.000000	10.129600
2269.000000	10.108940
2270.000000	10.088114
2271.000000	10.068720
2272.000000	10.050254
2273.000000	10.033043
2274.000000	10.017297
2275.000000	10.002351
2276.000000	9.989471
2277.000000	9.978220
2278.000000	9.968717
2279.000000	9.960589
2280.000000	9.954806
2281.000000	9.950200
2282.000000	9.947163
2283.000000	9.947120
2284.000000	9.947763
2285.000000	9.950454
2286.000000	9.954806
2287.000000	9.961514
2288.000000	9.969246
2289.000000	9.978609
2290.000000	9.990371
2291.000000	10.003317
2292.000000	10.018063
2293.000000	10.034311
2294.000000	10.051369
2295.000000	10.069097
2296.000000	10.088360
2297.000000	10.108671
2298.000000	10.130086
2299.000000	10.152346
2300.000000	10.174926
2301.000000	10.198874
2302.000000	10.222266
2303.000000	10.245109
2304.000000	10.268894
2305.000000	10.293689
2306.000000	10.317631
2307.000000	10.341786
2308.000000	10.366483
2309.000000	10.391240
2310.000000	10.417020
2311.000000	10.442729
2312.000000	10.468223
2313.000000	10.494371
2314.000000	10.521229
2315.000000	10.548103
2316.000000	10.575914
2317.000000	10.604520
2318.000000	10.632191
2319.000000	10.660691
2320.000000	10.689806
2321.000000	10.718814
2322.000000	10.748120
2323.000000	10.777163
2324.000000	10.806157
2325.000000	10.834769
2326.000000	10.862686
2327.000000	10.890477
2328.000000	10.918451
2329.000000	10.945954
2330.000000	10.973111
2331.000000	10.999934
2332.000000	11.026849
2333.000000	11.052386
2334.000000	11.077477
2335.000000	11.101709
2336.000000	11.125431
2337.000000	11.149257
2338.000000	11.173294
2339.000000	11.196246
2340.000000	11.218343
2341.000000	11.239966
2342.000000	11.261046
2343.000000	11.281449
2344.000000	11.301014
2345.000000	11.319943
2346.000000	11.338106
2347.000000	11.355677
2348.000000	11.372877
2349.000000	11.389040
2350.000000	11.404537
2351.000000	11.419231
2352.000000	11.433606
2353.000000	11.447777
2354.000000	11.461937
2355.000000	11.475623
2356.000000	11.488563
2357.000000	11.500971
2358.000000	11.514489
2359.000000	11.528006
2360.000000	11.541177
2361.000000	11.554986
2362.000000	11.568626
2363.000000	11.581663
2364.000000	11.594557
2365.000000	11.607563
2366.000000	11.620171
2367.000000	11.631989
2368.000000	11.644066
2369.000000	11.656649
2370.000000	11.669423
2371.000000	11.681811
2372.000000	11.693691
2373.000000	11.704846
2374.000000	11.715929
2375.000000	11.726654
2376.000000	11.737274
2377.000000	11.747703
2378.000000	11.757591
2379.000000	11.767094
2380.000000	11.775797
2381.000000	11.784017
2382.000000	11.792069
2383.000000	11.799840
2384.000000	11.807251
2385.000000	11.813791
2386.000000	11.819394
2387.000000	11.824734
2388.000000	11.829374
2389.000000	11.832443
2390.000000	11.834783
2391.000000	11.837134
2392.000000	11.838709
2393.000000	11.838883
2394.000000	11.837994
2395.000000	11.836463
2396.000000	11.834874
2397.000000	11.832414
2398.000000	11.828934
2399.000000	11.824591
2400.000000	11.819486
2401.000000	11.814580
2402.000000	11.809437
2403.000000	11.803303
2404.000000	11.795366
2405.000000	11.786754
2406.000000	11.778177
2407.000000	11.768700
2408.000000	11.758531
2409.000000	11.747429
2410.000000	11.735517
2411.000000	11.722374
2412.000000	11.707817
2413.000000	11.692651
2414.000000	11.676611
2415.000000	11.658857
2416.000000	11.639977
2417.000000	11.620474
2418.000000	11.600031
2419.000000	11.579531
2420.000000	11.559163
2421.000000	11.538134
2422.000000	11.515626
2423.000000	11.491686
2424.000000	11.466629
2425.000000	11.439589
2426.000000	11.410571
2427.000000	11.380923
2428.000000	11.350003
2429.000000	11.317643
2430.000000	11.284254
2431.000000	11.248680
2432.000000	11.211409
2433.000000	11.173351
2434.000000	11.133726
2435.000000	11.092917
2436.000000	11.049543
2437.000000	11.005123
2438.000000	10.960169
2439.000000	10.913966
2440.000000	10.866331
2441.000000	10.816677
2442.000000	10.765543
2443.000000	10.713026
2444.000000	10.660189
2445.000000	10.605863
2446.000000	10.550309
2447.000000	10.494157
2448.000000	10.436420
2449.000000	10.377471
2450.000000	10.319466
2451.000000	10.261334
2452.000000	10.200663
2453.000000	10.139469
2454.000000	10.077549
2455.000000	10.014089
2456.000000	9.950123
2457.000000	9.885894
2458.000000	9.821800
2459.000000	9.758666
2460.000000	9.696754
2461.000000	9.635434
2462.000000	9.573454
2463.000000	9.513103
2464.000000	9.452911
2465.000000	9.394571
2466.000000	9.337246
2467.000000	9.281169
2468.000000	9.225529
2469.000000	9.172057
2470.000000	9.119960
2471.000000	9.068049
2472.000000	9.016551
2473.000000	8.967003
2474.000000	8.917277
2475.000000	8.870314
2476.000000	8.825029
2477.000000	8.780289
2478.000000	8.738189
2479.000000	8.696183
2480.000000	8.656297
2481.000000	8.618480
2482.000000	8.580283
2483.000000	8.545257
2484.000000	8.512229
2485.000000	8.479334
2486.000000	8.447306
2487.000000	8.418280
2488.000000	8.391149
2489.000000	8.365343
2490.000000	8.340163
2491.000000	8.315711
2492.000000	8.292114
2493.000000	8.269894
2494.000000	8.251849
2495.000000	8.234214
2496.000000	8.216574
2497.000000	8.198491
2498.000000	8.183437
2499.000000	8.165460
2500.000000	8.153557
