PE UV       SUBTECH     SPECTRUM    ASCII       PEDS        4.00        
   -1
CICIMAUCR0104-3.Sample.ASC
24/04/04
11:30:21.00
24/04/04
11:30:21.00
Vinicio Soto Monge
C. resplendens
250,000000
1
Lambda 1050
1050L1511233
PerkinElmer UV WinLab 6.3.2.0749 / 2.02.05 Lambda 900 UV/VIS/NIR, Aug  7 2015 09:38:08

0
0
3350/servo 860,8/2
0
0
UV/VIS
1
1
1
DoubleDePol,CommonBeamDepol,RBeamAtt,SBeamAtt,60mm sphere, WB InGaAs Detector
0
0
0
0
Program
Program
3350/servo 860,8/2
3350/0,2 860,8/0,2
3350/0,2 860,8/0,2
0
15.00
 
 
 
0
 
860,8
319,2
860,8
Front
100
on
S:100 R:100
0
0
0
0
 
0
 
 
 
0
 
 
0
0
0
0
0
 
 
 
 
0
0


0
0
#HDR
-1
-1
#GR
nm
%R
1.0
0.0
2500,000000
-1,000000
2251
8
72,628200
5,074300
#DATA
250.000000	nan
251.000000	nan
252.000000	nan
253.000000	nan
254.000000	nan
255.000000	nan
256.000000	nan
257.000000	nan
258.000000	nan
259.000000	nan
260.000000	nan
261.000000	nan
262.000000	nan
263.000000	nan
264.000000	nan
265.000000	nan
266.000000	nan
267.000000	nan
268.000000	nan
269.000000	nan
270.000000	nan
271.000000	nan
272.000000	nan
273.000000	nan
274.000000	nan
275.000000	nan
276.000000	nan
277.000000	nan
278.000000	nan
279.000000	nan
280.000000	nan
281.000000	nan
282.000000	nan
283.000000	nan
284.000000	5.570001
285.000000	5.560201
286.000000	5.550553
287.000000	5.541038
288.000000	5.532580
289.000000	5.523784
290.000000	5.513965
291.000000	5.504774
292.000000	5.496036
293.000000	5.486303
294.000000	5.477433
295.000000	5.468920
296.000000	5.460102
297.000000	5.451642
298.000000	5.444483
299.000000	5.436832
300.000000	5.430506
301.000000	5.423625
302.000000	5.417394
303.000000	5.411671
304.000000	5.406918
305.000000	5.401024
306.000000	5.395268
307.000000	5.389155
308.000000	5.382735
309.000000	5.376814
310.000000	5.371321
311.000000	5.365903
312.000000	5.359429
313.000000	5.353516
314.000000	5.347318
315.000000	5.341180
316.000000	5.335175
317.000000	5.333273
318.000000	5.327867
319.000000	5.324675
320.000000	5.321544
321.000000	5.319388
322.000000	5.317932
323.000000	5.313720
324.000000	5.313274
325.000000	5.311794
326.000000	5.308587
327.000000	5.304628
328.000000	5.303179
329.000000	5.300038
330.000000	5.296057
331.000000	5.294971
332.000000	5.292547
333.000000	5.289788
334.000000	5.288940
335.000000	5.288501
336.000000	5.287668
337.000000	5.287638
338.000000	5.288270
339.000000	5.286737
340.000000	5.286600
341.000000	5.286058
342.000000	5.286653
343.000000	5.288427
344.000000	5.290688
345.000000	5.293071
346.000000	5.294979
347.000000	5.297467
348.000000	5.301427
349.000000	5.306237
350.000000	5.310068
351.000000	5.313727
352.000000	5.316258
353.000000	5.321782
354.000000	5.326731
355.000000	5.332278
356.000000	5.337469
357.000000	5.343166
358.000000	5.352553
359.000000	5.358691
360.000000	5.368164
361.000000	5.379313
362.000000	5.391433
363.000000	5.402922
364.000000	5.417504
365.000000	5.432778
366.000000	5.445757
367.000000	5.461012
368.000000	5.476746
369.000000	5.492498
370.000000	5.507824
371.000000	5.524235
372.000000	5.541360
373.000000	5.559053
374.000000	5.581497
375.000000	5.602275
376.000000	5.624528
377.000000	5.649281
378.000000	5.675058
379.000000	5.702047
380.000000	5.731162
381.000000	5.762956
382.000000	5.797646
383.000000	5.833994
384.000000	5.872690
385.000000	5.916077
386.000000	5.962939
387.000000	6.011468
388.000000	6.064639
389.000000	6.121230
390.000000	6.182507
391.000000	6.248451
392.000000	6.319637
393.000000	6.395444
394.000000	6.478577
395.000000	6.566847
396.000000	6.662831
397.000000	6.767290
398.000000	6.878798
399.000000	6.997244
400.000000	7.125121
401.000000	7.262923
402.000000	7.409987
403.000000	7.566959
404.000000	7.733242
405.000000	7.910177
406.000000	8.097969
407.000000	8.295573
408.000000	8.502910
409.000000	8.719169
410.000000	8.947352
411.000000	9.186047
412.000000	9.434133
413.000000	9.692249
414.000000	9.959897
415.000000	10.236437
416.000000	10.521354
417.000000	10.814716
418.000000	11.115737
419.000000	11.423894
420.000000	11.738953
421.000000	12.060158
422.000000	12.386845
423.000000	12.718720
424.000000	13.054841
425.000000	13.394460
426.000000	13.736961
427.000000	14.081443
428.000000	14.427174
429.000000	14.773158
430.000000	15.118499
431.000000	15.462752
432.000000	15.804795
433.000000	16.144026
434.000000	16.479692
435.000000	16.810571
436.000000	17.136395
437.000000	17.456518
438.000000	17.769808
439.000000	18.075376
440.000000	18.372663
441.000000	18.660661
442.000000	18.939174
443.000000	19.207409
444.000000	19.464333
445.000000	19.709905
446.000000	19.943061
447.000000	20.162772
448.000000	20.368926
449.000000	20.561122
450.000000	20.739400
451.000000	20.903623
452.000000	21.052943
453.000000	21.187339
454.000000	21.306982
455.000000	21.411647
456.000000	21.501707
457.000000	21.577218
458.000000	21.638738
459.000000	21.687199
460.000000	21.723695
461.000000	21.748593
462.000000	21.763208
463.000000	21.769095
464.000000	21.767409
465.000000	21.759946
466.000000	21.748029
467.000000	21.733495
468.000000	21.718095
469.000000	21.703042
470.000000	21.690573
471.000000	21.681664
472.000000	21.677847
473.000000	21.680835
474.000000	21.691949
475.000000	21.712459
476.000000	21.743203
477.000000	21.784333
478.000000	21.836534
479.000000	21.901112
480.000000	21.978189
481.000000	22.067808
482.000000	22.169943
483.000000	22.284466
484.000000	22.411132
485.000000	22.549355
486.000000	22.698462
487.000000	22.858489
488.000000	23.028956
489.000000	23.208993
490.000000	23.397668
491.000000	23.594459
492.000000	23.798849
493.000000	24.009833
494.000000	24.225776
495.000000	24.445694
496.000000	24.668868
497.000000	24.894193
498.000000	25.120338
499.000000	25.346555
500.000000	25.571645
501.000000	25.794869
502.000000	26.015233
503.000000	26.232325
504.000000	26.445560
505.000000	26.654848
506.000000	26.860598
507.000000	27.063065
508.000000	27.262821
509.000000	27.460841
510.000000	27.658323
511.000000	27.856712
512.000000	28.057896
513.000000	28.263880
514.000000	28.476603
515.000000	28.697704
516.000000	28.929288
517.000000	29.173894
518.000000	29.433217
519.000000	29.709817
520.000000	30.005946
521.000000	30.323925
522.000000	30.665421
523.000000	31.031896
524.000000	31.424976
525.000000	31.845882
526.000000	32.294963
527.000000	32.773560
528.000000	33.281772
529.000000	33.820286
530.000000	34.389463
531.000000	34.989253
532.000000	35.619113
533.000000	36.278346
534.000000	36.966170
535.000000	37.682342
536.000000	38.425172
537.000000	39.193229
538.000000	39.984790
539.000000	40.798806
540.000000	41.633157
541.000000	42.485646
542.000000	43.354109
543.000000	44.236115
544.000000	45.128462
545.000000	46.028513
546.000000	46.933538
547.000000	47.840695
548.000000	48.746498
549.000000	49.648939
550.000000	50.545906
551.000000	51.434241
552.000000	52.312521
553.000000	53.178173
554.000000	54.029200
555.000000	54.863712
556.000000	55.680177
557.000000	56.476593
558.000000	57.252579
559.000000	58.006439
560.000000	58.741138
561.000000	59.453065
562.000000	60.142123
563.000000	60.807794
564.000000	61.449475
565.000000	62.066886
566.000000	62.660176
567.000000	63.229648
568.000000	63.775558
569.000000	64.299390
570.000000	64.799782
571.000000	65.278338
572.000000	65.736423
573.000000	66.173263
574.000000	66.590379
575.000000	66.987870
576.000000	67.366613
577.000000	67.726695
578.000000	68.069301
579.000000	68.394485
580.000000	68.703419
581.000000	68.996044
582.000000	69.272988
583.000000	69.536782
584.000000	69.785144
585.000000	70.018763
586.000000	70.238004
587.000000	70.443756
588.000000	70.635821
589.000000	70.814846
590.000000	70.980289
591.000000	71.132400
592.000000	71.272268
593.000000	71.398977
594.000000	71.511776
595.000000	71.608538
596.000000	71.692036
597.000000	71.762511
598.000000	71.819949
599.000000	71.863587
600.000000	71.894788
601.000000	71.912246
602.000000	71.916733
603.000000	71.907363
604.000000	71.883459
605.000000	71.845430
606.000000	71.792547
607.000000	71.724923
608.000000	71.641171
609.000000	71.540696
610.000000	71.424735
611.000000	71.291490
612.000000	71.140123
613.000000	70.970320
614.000000	70.782906
615.000000	70.576732
616.000000	70.351526
617.000000	70.107572
618.000000	69.843269
619.000000	69.559205
620.000000	69.255431
621.000000	68.932043
622.000000	68.586606
623.000000	68.220774
624.000000	67.832733
625.000000	67.422856
626.000000	66.992120
627.000000	66.538656
628.000000	66.063265
629.000000	65.567223
630.000000	65.049647
631.000000	64.511381
632.000000	63.953046
633.000000	63.376255
634.000000	62.782792
635.000000	62.175646
636.000000	61.556688
637.000000	60.928510
638.000000	60.294452
639.000000	59.656501
640.000000	59.017434
641.000000	58.380818
642.000000	57.748848
643.000000	57.126743
644.000000	56.516615
645.000000	55.920714
646.000000	55.342180
647.000000	54.785216
648.000000	54.251181
649.000000	53.741965
650.000000	53.260501
651.000000	52.808521
652.000000	52.387652
653.000000	51.998966
654.000000	51.644479
655.000000	51.324083
656.000000	51.039660
657.000000	50.791722
658.000000	50.580572
659.000000	50.407455
660.000000	50.272085
661.000000	50.173815
662.000000	50.114361
663.000000	50.093141
664.000000	50.109102
665.000000	50.162438
666.000000	50.252378
667.000000	50.376270
668.000000	50.533148
669.000000	50.722844
670.000000	50.941563
671.000000	51.187144
672.000000	51.456757
673.000000	51.748420
674.000000	52.059224
675.000000	52.386215
676.000000	52.725965
677.000000	53.076525
678.000000	53.434537
679.000000	53.797038
680.000000	54.161280
681.000000	54.524923
682.000000	54.884700
683.000000	55.239310
684.000000	55.586563
685.000000	55.924465
686.000000	56.251463
687.000000	56.566691
688.000000	56.869524
689.000000	57.159700
690.000000	57.436603
691.000000	57.699986
692.000000	57.949900
693.000000	58.186840
694.000000	58.411009
695.000000	58.623666
696.000000	58.824660
697.000000	59.013674
698.000000	59.192153
699.000000	59.361687
700.000000	59.522301
701.000000	59.675771
702.000000	59.823882
703.000000	59.967096
704.000000	60.105072
705.000000	60.238667
706.000000	60.370405
707.000000	60.500507
708.000000	60.629591
709.000000	60.759696
710.000000	60.890668
711.000000	61.023348
712.000000	61.157301
713.000000	61.294281
714.000000	61.436039
715.000000	61.581354
716.000000	61.731340
717.000000	61.887028
718.000000	62.048555
719.000000	62.216200
720.000000	62.390445
721.000000	62.571209
722.000000	62.758512
723.000000	62.952947
724.000000	63.152911
725.000000	63.358756
726.000000	63.570207
727.000000	63.786474
728.000000	64.006623
729.000000	64.230985
730.000000	64.458168
731.000000	64.689263
732.000000	64.924348
733.000000	65.161531
734.000000	65.400083
735.000000	65.638921
736.000000	65.876550
737.000000	66.113737
738.000000	66.350781
739.000000	66.587065
740.000000	66.822091
741.000000	67.055621
742.000000	67.284630
743.000000	67.508898
744.000000	67.728760
745.000000	67.944647
746.000000	68.155548
747.000000	68.361127
748.000000	68.561462
749.000000	68.754820
750.000000	68.941315
751.000000	69.120607
752.000000	69.292592
753.000000	69.457668
754.000000	69.617157
755.000000	69.768209
756.000000	69.911360
757.000000	70.047615
758.000000	70.175120
759.000000	70.295233
760.000000	70.408254
761.000000	70.514583
762.000000	70.614240
763.000000	70.706905
764.000000	70.792533
765.000000	70.870216
766.000000	70.940006
767.000000	71.002750
768.000000	71.059646
769.000000	71.110907
770.000000	71.155664
771.000000	71.196172
772.000000	71.229151
773.000000	71.255781
774.000000	71.277365
775.000000	71.292051
776.000000	71.298449
777.000000	71.302163
778.000000	71.303207
779.000000	71.298273
780.000000	71.287802
781.000000	71.272569
782.000000	71.255101
783.000000	71.232162
784.000000	71.204731
785.000000	71.175032
786.000000	71.143088
787.000000	71.108619
788.000000	71.070080
789.000000	71.027568
790.000000	70.984738
791.000000	70.940506
792.000000	70.893954
793.000000	70.845642
794.000000	70.795952
795.000000	70.745435
796.000000	70.690501
797.000000	70.632981
798.000000	70.573797
799.000000	70.513076
800.000000	70.450854
801.000000	70.386523
802.000000	70.319135
803.000000	70.248219
804.000000	70.176457
805.000000	70.102605
806.000000	70.025850
807.000000	69.947001
808.000000	69.865702
809.000000	69.779967
810.000000	69.691443
811.000000	69.599540
812.000000	69.503652
813.000000	69.400671
814.000000	69.296252
815.000000	69.188113
816.000000	69.076667
817.000000	68.957989
818.000000	68.832703
819.000000	68.703598
820.000000	68.568194
821.000000	68.427359
822.000000	68.281346
823.000000	68.132149
824.000000	67.976521
825.000000	67.814571
826.000000	67.647483
827.000000	67.474482
828.000000	67.297369
829.000000	67.115129
830.000000	66.926826
831.000000	66.738460
832.000000	66.549058
833.000000	66.358134
834.000000	66.162781
835.000000	65.963929
836.000000	65.763464
837.000000	65.569697
838.000000	65.378211
839.000000	65.183681
840.000000	64.988786
841.000000	64.796581
842.000000	64.611275
843.000000	64.428397
844.000000	64.244505
845.000000	64.065613
846.000000	63.897266
847.000000	63.732548
848.000000	63.576258
849.000000	63.423369
850.000000	63.275213
851.000000	63.135397
852.000000	63.000529
853.000000	62.871035
854.000000	62.741893
855.000000	62.623594
856.000000	62.514226
857.000000	62.407355
858.000000	62.303501
859.000000	62.245425
860.000000	62.192988
861.000000	62.148861
862.000000	62.113067
863.000000	62.084901
864.000000	62.064158
865.000000	62.050368
866.000000	62.039868
867.000000	62.033058
868.000000	62.029154
869.000000	62.030806
870.000000	62.038520
871.000000	62.050049
872.000000	62.057469
873.000000	62.065499
874.000000	62.076716
875.000000	62.091834
876.000000	62.106638
877.000000	62.118518
878.000000	62.130743
879.000000	62.148545
880.000000	62.165389
881.000000	62.177779
882.000000	62.190131
883.000000	62.200278
884.000000	62.209887
885.000000	62.220421
886.000000	62.227408
887.000000	62.236186
888.000000	62.248177
889.000000	62.264755
890.000000	62.277068
891.000000	62.286203
892.000000	62.297960
893.000000	62.310920
894.000000	62.284998
895.000000	62.258445
896.000000	62.229112
897.000000	62.196628
898.000000	62.160922
899.000000	62.122420
900.000000	62.082170
901.000000	62.040635
902.000000	61.997643
903.000000	61.954611
904.000000	61.910738
905.000000	61.867239
906.000000	61.823655
907.000000	61.779684
908.000000	61.735837
909.000000	61.692408
910.000000	61.649734
911.000000	61.607350
912.000000	61.565213
913.000000	61.523932
914.000000	61.482747
915.000000	61.442425
916.000000	61.402510
917.000000	61.362965
918.000000	61.323790
919.000000	61.284201
920.000000	61.244378
921.000000	61.204474
922.000000	61.163974
923.000000	61.122325
924.000000	61.080228
925.000000	61.037606
926.000000	60.994141
927.000000	60.950454
928.000000	60.905813
929.000000	60.860591
930.000000	60.815204
931.000000	60.769037
932.000000	60.722576
933.000000	60.676200
934.000000	60.629410
935.000000	60.582489
936.000000	60.535407
937.000000	60.488363
938.000000	60.440947
939.000000	60.394128
940.000000	60.346652
941.000000	60.298940
942.000000	60.252063
943.000000	60.204878
944.000000	60.158421
945.000000	60.112104
946.000000	60.066045
947.000000	60.020414
948.000000	59.975244
949.000000	59.931052
950.000000	59.886918
951.000000	59.843423
952.000000	59.800296
953.000000	59.757896
954.000000	59.716606
955.000000	59.675769
956.000000	59.635621
957.000000	59.596255
958.000000	59.557676
959.000000	59.519407
960.000000	59.481545
961.000000	59.444695
962.000000	59.408063
963.000000	59.371757
964.000000	59.335521
965.000000	59.299395
966.000000	59.263650
967.000000	59.228324
968.000000	59.193110
969.000000	59.158575
970.000000	59.124087
971.000000	59.089770
972.000000	59.055940
973.000000	59.022113
974.000000	58.988337
975.000000	58.954894
976.000000	58.921601
977.000000	58.887704
978.000000	58.854167
979.000000	58.819427
980.000000	58.783768
981.000000	58.747609
982.000000	58.710983
983.000000	58.673342
984.000000	58.634803
985.000000	58.595608
986.000000	58.555855
987.000000	58.515175
988.000000	58.473720
989.000000	58.431948
990.000000	58.390082
991.000000	58.347472
992.000000	58.304696
993.000000	58.262130
994.000000	58.219880
995.000000	58.177794
996.000000	58.135935
997.000000	58.094510
998.000000	58.054171
999.000000	58.014595
1000.000000	57.975398
1001.000000	57.937066
1002.000000	57.899514
1003.000000	57.862380
1004.000000	57.826172
1005.000000	57.790531
1006.000000	57.755643
1007.000000	57.721576
1008.000000	57.688600
1009.000000	57.656343
1010.000000	57.624908
1011.000000	57.594490
1012.000000	57.565834
1013.000000	57.538506
1014.000000	57.512889
1015.000000	57.489006
1016.000000	57.467716
1017.000000	57.448504
1018.000000	57.431453
1019.000000	57.416680
1020.000000	57.404387
1021.000000	57.394250
1022.000000	57.387071
1023.000000	57.382428
1024.000000	57.379972
1025.000000	57.380149
1026.000000	57.383148
1027.000000	57.388536
1028.000000	57.396249
1029.000000	57.406379
1030.000000	57.418897
1031.000000	57.433492
1032.000000	57.450427
1033.000000	57.469205
1034.000000	57.489861
1035.000000	57.512596
1036.000000	57.537231
1037.000000	57.563411
1038.000000	57.591106
1039.000000	57.620223
1040.000000	57.650992
1041.000000	57.683450
1042.000000	57.717019
1043.000000	57.751814
1044.000000	57.788105
1045.000000	57.825974
1046.000000	57.864997
1047.000000	57.904554
1048.000000	57.944968
1049.000000	57.986604
1050.000000	58.028856
1051.000000	58.071190
1052.000000	58.113849
1053.000000	58.157043
1054.000000	58.200574
1055.000000	58.244490
1056.000000	58.288475
1057.000000	58.332555
1058.000000	58.376848
1059.000000	58.421317
1060.000000	58.465799
1061.000000	58.510328
1062.000000	58.555270
1063.000000	58.600637
1064.000000	58.646230
1065.000000	58.692038
1066.000000	58.737974
1067.000000	58.783946
1068.000000	58.830285
1069.000000	58.876782
1070.000000	58.923733
1071.000000	58.971095
1072.000000	59.018875
1073.000000	59.067202
1074.000000	59.115921
1075.000000	59.165306
1076.000000	59.215306
1077.000000	59.266232
1078.000000	59.317953
1079.000000	59.370036
1080.000000	59.422925
1081.000000	59.476273
1082.000000	59.530310
1083.000000	59.584789
1084.000000	59.639908
1085.000000	59.695405
1086.000000	59.751525
1087.000000	59.807968
1088.000000	59.864770
1089.000000	59.921762
1090.000000	59.978593
1091.000000	60.035682
1092.000000	60.092350
1093.000000	60.149155
1094.000000	60.205782
1095.000000	60.261940
1096.000000	60.317736
1097.000000	60.372747
1098.000000	60.427193
1099.000000	60.480932
1100.000000	60.533915
1101.000000	60.586174
1102.000000	60.637521
1103.000000	60.688134
1104.000000	60.738056
1105.000000	60.786999
1106.000000	60.835045
1107.000000	60.882192
1108.000000	60.928189
1109.000000	60.973317
1110.000000	61.017368
1111.000000	61.060244
1112.000000	61.102088
1113.000000	61.142879
1114.000000	61.182339
1115.000000	61.220410
1116.000000	61.257713
1117.000000	61.293808
1118.000000	61.328470
1119.000000	61.361072
1120.000000	61.391816
1121.000000	61.420138
1122.000000	61.446240
1123.000000	61.469736
1124.000000	61.490157
1125.000000	61.507059
1126.000000	61.520530
1127.000000	61.530092
1128.000000	61.535233
1129.000000	61.534929
1130.000000	61.528695
1131.000000	61.515223
1132.000000	61.493859
1133.000000	61.464110
1134.000000	61.427097
1135.000000	61.381470
1136.000000	61.326047
1137.000000	61.260612
1138.000000	61.184688
1139.000000	61.099161
1140.000000	61.004223
1141.000000	60.900750
1142.000000	60.788270
1143.000000	60.667590
1144.000000	60.539402
1145.000000	60.404423
1146.000000	60.264409
1147.000000	60.120846
1148.000000	59.975372
1149.000000	59.829348
1150.000000	59.682527
1151.000000	59.535312
1152.000000	59.387289
1153.000000	59.238590
1154.000000	59.087871
1155.000000	58.933888
1156.000000	58.775973
1157.000000	58.612420
1158.000000	58.442709
1159.000000	58.266701
1160.000000	58.083813
1161.000000	57.894060
1162.000000	57.697478
1163.000000	57.494158
1164.000000	57.285362
1165.000000	57.071889
1166.000000	56.854410
1167.000000	56.634328
1168.000000	56.412278
1169.000000	56.187236
1170.000000	55.960785
1171.000000	55.733980
1172.000000	55.507593
1173.000000	55.282053
1174.000000	55.057340
1175.000000	54.833060
1176.000000	54.608502
1177.000000	54.383745
1178.000000	54.156610
1179.000000	53.925605
1180.000000	53.688125
1181.000000	53.441511
1182.000000	53.184189
1183.000000	52.915944
1184.000000	52.639094
1185.000000	52.356168
1186.000000	52.069872
1187.000000	51.784439
1188.000000	51.503750
1189.000000	51.232663
1190.000000	50.974815
1191.000000	50.733157
1192.000000	50.510214
1193.000000	50.306119
1194.000000	50.120668
1195.000000	49.952687
1196.000000	49.800689
1197.000000	49.663687
1198.000000	49.540681
1199.000000	49.430787
1200.000000	49.332914
1201.000000	49.246785
1202.000000	49.171248
1203.000000	49.106282
1204.000000	49.051788
1205.000000	49.007361
1206.000000	48.974020
1207.000000	48.951531
1208.000000	48.940317
1209.000000	48.939654
1210.000000	48.950219
1211.000000	48.971490
1212.000000	49.004870
1213.000000	49.051595
1214.000000	49.112499
1215.000000	49.189565
1216.000000	49.283366
1217.000000	49.394439
1218.000000	49.521564
1219.000000	49.661542
1220.000000	49.811980
1221.000000	49.969509
1222.000000	50.131054
1223.000000	50.292910
1224.000000	50.451768
1225.000000	50.605419
1226.000000	50.752229
1227.000000	50.891161
1228.000000	51.022922
1229.000000	51.148107
1230.000000	51.269186
1231.000000	51.387406
1232.000000	51.504432
1233.000000	51.621317
1234.000000	51.738646
1235.000000	51.857193
1236.000000	51.977830
1237.000000	52.100915
1238.000000	52.226138
1239.000000	52.353766
1240.000000	52.483883
1241.000000	52.615642
1242.000000	52.748525
1243.000000	52.882568
1244.000000	53.017427
1245.000000	53.152372
1246.000000	53.287701
1247.000000	53.422466
1248.000000	53.557199
1249.000000	53.691454
1250.000000	53.824960
1251.000000	53.958033
1252.000000	54.089624
1253.000000	54.219567
1254.000000	54.348042
1255.000000	54.474437
1256.000000	54.598752
1257.000000	54.720703
1258.000000	54.839620
1259.000000	54.955664
1260.000000	55.069058
1261.000000	55.179377
1262.000000	55.286661
1263.000000	55.390809
1264.000000	55.491922
1265.000000	55.590131
1266.000000	55.685270
1267.000000	55.777322
1268.000000	55.866214
1269.000000	55.952332
1270.000000	56.035834
1271.000000	56.116677
1272.000000	56.194851
1273.000000	56.270382
1274.000000	56.343434
1275.000000	56.414469
1276.000000	56.483342
1277.000000	56.550585
1278.000000	56.615721
1279.000000	56.679201
1280.000000	56.741427
1281.000000	56.802321
1282.000000	56.862157
1283.000000	56.920708
1284.000000	56.978232
1285.000000	57.034854
1286.000000	57.090816
1287.000000	57.146314
1288.000000	57.201131
1289.000000	57.255055
1290.000000	57.308403
1291.000000	57.360954
1292.000000	57.412329
1293.000000	57.462963
1294.000000	57.512791
1295.000000	57.561495
1296.000000	57.608941
1297.000000	57.655202
1298.000000	57.700289
1299.000000	57.744414
1300.000000	57.787261
1301.000000	57.828737
1302.000000	57.869019
1303.000000	57.908010
1304.000000	57.945505
1305.000000	57.981335
1306.000000	58.015357
1307.000000	58.047592
1308.000000	58.077940
1309.000000	58.106137
1310.000000	58.131841
1311.000000	58.154761
1312.000000	58.174651
1313.000000	58.191466
1314.000000	58.204636
1315.000000	58.213942
1316.000000	58.219435
1317.000000	58.220806
1318.000000	58.218305
1319.000000	58.211712
1320.000000	58.200812
1321.000000	58.185203
1322.000000	58.165188
1323.000000	58.140820
1324.000000	58.111933
1325.000000	58.078319
1326.000000	58.040200
1327.000000	57.997428
1328.000000	57.950185
1329.000000	57.898149
1330.000000	57.840860
1331.000000	57.778639
1332.000000	57.711185
1333.000000	57.638065
1334.000000	57.559074
1335.000000	57.474180
1336.000000	57.383066
1337.000000	57.285560
1338.000000	57.181474
1339.000000	57.070536
1340.000000	56.953141
1341.000000	56.828888
1342.000000	56.697086
1343.000000	56.557964
1344.000000	56.411512
1345.000000	56.256462
1346.000000	56.092909
1347.000000	55.921265
1348.000000	55.740818
1349.000000	55.550498
1350.000000	55.349574
1351.000000	55.136901
1352.000000	54.911826
1353.000000	54.672645
1354.000000	54.422573
1355.000000	54.162172
1356.000000	53.892991
1357.000000	53.618115
1358.000000	53.340669
1359.000000	53.062755
1360.000000	52.785409
1361.000000	52.510513
1362.000000	52.236395
1363.000000	51.960638
1364.000000	51.683000
1365.000000	51.404136
1366.000000	51.123006
1367.000000	50.839156
1368.000000	50.552160
1369.000000	50.260241
1370.000000	49.962302
1371.000000	49.657229
1372.000000	49.342648
1373.000000	49.016980
1374.000000	48.680059
1375.000000	48.332640
1376.000000	47.976645
1377.000000	47.614752
1378.000000	47.247676
1379.000000	46.878014
1380.000000	46.508165
1381.000000	46.139321
1382.000000	45.770432
1383.000000	45.401572
1384.000000	45.034744
1385.000000	44.669827
1386.000000	44.310352
1387.000000	43.959312
1388.000000	43.621321
1389.000000	43.292699
1390.000000	42.973639
1391.000000	42.664753
1392.000000	42.364612
1393.000000	42.069503
1394.000000	41.777802
1395.000000	41.489635
1396.000000	41.202714
1397.000000	40.915430
1398.000000	40.629000
1399.000000	40.345324
1400.000000	40.064752
1401.000000	39.787074
1402.000000	39.507177
1403.000000	39.227030
1404.000000	38.948503
1405.000000	38.674630
1406.000000	38.404849
1407.000000	38.142370
1408.000000	37.889141
1409.000000	37.646044
1410.000000	37.412089
1411.000000	37.186426
1412.000000	36.967608
1413.000000	36.757562
1414.000000	36.554127
1415.000000	36.355002
1416.000000	36.158145
1417.000000	35.963917
1418.000000	35.775495
1419.000000	35.591514
1420.000000	35.412284
1421.000000	35.234850
1422.000000	35.056656
1423.000000	34.876310
1424.000000	34.694006
1425.000000	34.508888
1426.000000	34.318618
1427.000000	34.122370
1428.000000	33.921681
1429.000000	33.715945
1430.000000	33.504553
1431.000000	33.289210
1432.000000	33.072771
1433.000000	32.857548
1434.000000	32.641488
1435.000000	32.424070
1436.000000	32.206881
1437.000000	31.996383
1438.000000	31.791441
1439.000000	31.591488
1440.000000	31.395100
1441.000000	31.204193
1442.000000	31.018128
1443.000000	30.837071
1444.000000	30.660287
1445.000000	30.488853
1446.000000	30.322206
1447.000000	30.158923
1448.000000	29.996349
1449.000000	29.834511
1450.000000	29.675731
1451.000000	29.521040
1452.000000	29.370170
1453.000000	29.220066
1454.000000	29.072127
1455.000000	28.927076
1456.000000	28.785961
1457.000000	28.649062
1458.000000	28.514712
1459.000000	28.383527
1460.000000	28.256035
1461.000000	28.132821
1462.000000	28.013106
1463.000000	27.895957
1464.000000	27.781955
1465.000000	27.671200
1466.000000	27.562797
1467.000000	27.457512
1468.000000	27.353454
1469.000000	27.252245
1470.000000	27.154178
1471.000000	27.058644
1472.000000	26.965081
1473.000000	26.873370
1474.000000	26.783588
1475.000000	26.696026
1476.000000	26.610872
1477.000000	26.528651
1478.000000	26.449190
1479.000000	26.372160
1480.000000	26.297221
1481.000000	26.224552
1482.000000	26.155352
1483.000000	26.089320
1484.000000	26.026091
1485.000000	25.965047
1486.000000	25.906341
1487.000000	25.850559
1488.000000	25.798258
1489.000000	25.749078
1490.000000	25.702568
1491.000000	25.658213
1492.000000	25.616500
1493.000000	25.577209
1494.000000	25.540423
1495.000000	25.506220
1496.000000	25.474227
1497.000000	25.444443
1498.000000	25.416989
1499.000000	25.392092
1500.000000	25.369168
1501.000000	25.348115
1502.000000	25.329269
1503.000000	25.313245
1504.000000	25.299030
1505.000000	25.286913
1506.000000	25.277002
1507.000000	25.268964
1508.000000	25.262675
1509.000000	25.259630
1510.000000	25.258839
1511.000000	25.260133
1512.000000	25.263171
1513.000000	25.268110
1514.000000	25.275176
1515.000000	25.284179
1516.000000	25.294701
1517.000000	25.306551
1518.000000	25.319985
1519.000000	25.335094
1520.000000	25.351686
1521.000000	25.369315
1522.000000	25.387958
1523.000000	25.407585
1524.000000	25.427690
1525.000000	25.449040
1526.000000	25.471825
1527.000000	25.495168
1528.000000	25.519280
1529.000000	25.544176
1530.000000	25.569357
1531.000000	25.595137
1532.000000	25.621070
1533.000000	25.647257
1534.000000	25.673179
1535.000000	25.698911
1536.000000	25.724151
1537.000000	25.748482
1538.000000	25.772079
1539.000000	25.795179
1540.000000	25.817092
1541.000000	25.838083
1542.000000	25.858392
1543.000000	25.878136
1544.000000	25.896730
1545.000000	25.914853
1546.000000	25.932434
1547.000000	25.949416
1548.000000	25.965731
1549.000000	25.981885
1550.000000	25.997598
1551.000000	26.012954
1552.000000	26.027871
1553.000000	26.042374
1554.000000	26.056298
1555.000000	26.069145
1556.000000	26.081052
1557.000000	26.092308
1558.000000	26.102537
1559.000000	26.111928
1560.000000	26.120253
1561.000000	26.126980
1562.000000	26.132315
1563.000000	26.136570
1564.000000	26.139163
1565.000000	26.140042
1566.000000	26.139361
1567.000000	26.137414
1568.000000	26.134102
1569.000000	26.129546
1570.000000	26.124039
1571.000000	26.117534
1572.000000	26.110314
1573.000000	26.102625
1574.000000	26.094280
1575.000000	26.085711
1576.000000	26.077022
1577.000000	26.068024
1578.000000	26.058900
1579.000000	26.049843
1580.000000	26.040847
1581.000000	26.031987
1582.000000	26.023108
1583.000000	26.014636
1584.000000	26.006699
1585.000000	25.999064
1586.000000	25.991885
1587.000000	25.985125
1588.000000	25.978996
1589.000000	25.973810
1590.000000	25.970029
1591.000000	25.967903
1592.000000	25.967334
1593.000000	25.968499
1594.000000	25.971633
1595.000000	25.976376
1596.000000	25.983506
1597.000000	25.993436
1598.000000	26.005943
1599.000000	26.021200
1600.000000	26.039631
1601.000000	26.061124
1602.000000	26.085839
1603.000000	26.113681
1604.000000	26.144918
1605.000000	26.179236
1606.000000	26.216682
1607.000000	26.257152
1608.000000	26.300044
1609.000000	26.345650
1610.000000	26.393837
1611.000000	26.444248
1612.000000	26.497143
1613.000000	26.552150
1614.000000	26.609275
1615.000000	26.668216
1616.000000	26.729010
1617.000000	26.791890
1618.000000	26.856294
1619.000000	26.921963
1620.000000	26.988919
1621.000000	27.057397
1622.000000	27.127730
1623.000000	27.199597
1624.000000	27.272776
1625.000000	27.347051
1626.000000	27.422416
1627.000000	27.498695
1628.000000	27.576200
1629.000000	27.654608
1630.000000	27.734285
1631.000000	27.814598
1632.000000	27.895331
1633.000000	27.976270
1634.000000	28.057795
1635.000000	28.139583
1636.000000	28.221612
1637.000000	28.303491
1638.000000	28.385155
1639.000000	28.466401
1640.000000	28.547216
1641.000000	28.627613
1642.000000	28.707510
1643.000000	28.787160
1644.000000	28.866251
1645.000000	28.944469
1646.000000	29.022187
1647.000000	29.099463
1648.000000	29.175941
1649.000000	29.251311
1650.000000	29.325358
1651.000000	29.397819
1652.000000	29.468545
1653.000000	29.537640
1654.000000	29.604556
1655.000000	29.669018
1656.000000	29.730766
1657.000000	29.790085
1658.000000	29.845873
1659.000000	29.897770
1660.000000	29.945798
1661.000000	29.989591
1662.000000	30.029310
1663.000000	30.063587
1664.000000	30.092777
1665.000000	30.116474
1666.000000	30.134576
1667.000000	30.146659
1668.000000	30.152268
1669.000000	30.150261
1670.000000	30.140336
1671.000000	30.121975
1672.000000	30.094398
1673.000000	30.056952
1674.000000	30.008338
1675.000000	29.947113
1676.000000	29.872091
1677.000000	29.780987
1678.000000	29.672683
1679.000000	29.546129
1680.000000	29.400996
1681.000000	29.237531
1682.000000	29.058041
1683.000000	28.866292
1684.000000	28.665957
1685.000000	28.460770
1686.000000	28.253339
1687.000000	28.044791
1688.000000	27.834704
1689.000000	27.622965
1690.000000	27.408459
1691.000000	27.189892
1692.000000	26.966285
1693.000000	26.739369
1694.000000	26.509851
1695.000000	26.279805
1696.000000	26.051625
1697.000000	25.826705
1698.000000	25.607710
1699.000000	25.395784
1700.000000	25.191026
1701.000000	24.994821
1702.000000	24.806362
1703.000000	24.625491
1704.000000	24.452440
1705.000000	24.286918
1706.000000	24.128840
1707.000000	23.979210
1708.000000	23.838196
1709.000000	23.706931
1710.000000	23.586282
1711.000000	23.477111
1712.000000	23.381035
1713.000000	23.299133
1714.000000	23.231416
1715.000000	23.178466
1716.000000	23.140030
1717.000000	23.113820
1718.000000	23.096756
1719.000000	23.085376
1720.000000	23.076956
1721.000000	23.069314
1722.000000	23.061230
1723.000000	23.053513
1724.000000	23.046407
1725.000000	23.040646
1726.000000	23.037439
1727.000000	23.036878
1728.000000	23.037473
1729.000000	23.038760
1730.000000	23.038957
1731.000000	23.035828
1732.000000	23.028990
1733.000000	23.017445
1734.000000	23.001442
1735.000000	22.982099
1736.000000	22.960338
1737.000000	22.938506
1738.000000	22.918640
1739.000000	22.902696
1740.000000	22.891986
1741.000000	22.887272
1742.000000	22.888167
1743.000000	22.895077
1744.000000	22.907488
1745.000000	22.925423
1746.000000	22.948130
1747.000000	22.976303
1748.000000	23.009236
1749.000000	23.046746
1750.000000	23.089109
1751.000000	23.135530
1752.000000	23.185441
1753.000000	23.238320
1754.000000	23.293430
1755.000000	23.349311
1756.000000	23.405341
1757.000000	23.460968
1758.000000	23.515410
1759.000000	23.569329
1760.000000	23.622930
1761.000000	23.676825
1762.000000	23.732065
1763.000000	23.789958
1764.000000	23.851884
1765.000000	23.918311
1766.000000	23.990112
1767.000000	24.066499
1768.000000	24.147890
1769.000000	24.233233
1770.000000	24.321548
1771.000000	24.411150
1772.000000	24.500977
1773.000000	24.589810
1774.000000	24.676196
1775.000000	24.759837
1776.000000	24.840079
1777.000000	24.916875
1778.000000	24.990160
1779.000000	25.060473
1780.000000	25.128241
1781.000000	25.194378
1782.000000	25.258890
1783.000000	25.322263
1784.000000	25.385939
1785.000000	25.449442
1786.000000	25.513702
1787.000000	25.578606
1788.000000	25.644225
1789.000000	25.711171
1790.000000	25.779878
1791.000000	25.851016
1792.000000	25.925012
1793.000000	26.002296
1794.000000	26.082851
1795.000000	26.166709
1796.000000	26.253690
1797.000000	26.342978
1798.000000	26.433917
1799.000000	26.525418
1800.000000	26.617077
1801.000000	26.708288
1802.000000	26.798812
1803.000000	26.886980
1804.000000	26.972019
1805.000000	27.054524
1806.000000	27.134529
1807.000000	27.211711
1808.000000	27.285825
1809.000000	27.356758
1810.000000	27.424276
1811.000000	27.489031
1812.000000	27.551636
1813.000000	27.611835
1814.000000	27.668942
1815.000000	27.723444
1816.000000	27.775842
1817.000000	27.825577
1818.000000	27.872952
1819.000000	27.918381
1820.000000	27.962930
1821.000000	28.006625
1822.000000	28.049318
1823.000000	28.090149
1824.000000	28.128774
1825.000000	28.166568
1826.000000	28.204500
1827.000000	28.243190
1828.000000	28.282599
1829.000000	28.323022
1830.000000	28.364620
1831.000000	28.407040
1832.000000	28.450207
1833.000000	28.494223
1834.000000	28.538929
1835.000000	28.584372
1836.000000	28.630905
1837.000000	28.678201
1838.000000	28.726506
1839.000000	28.775458
1840.000000	28.824399
1841.000000	28.873518
1842.000000	28.922934
1843.000000	28.971579
1844.000000	29.019090
1845.000000	29.066155
1846.000000	29.113594
1847.000000	29.162813
1848.000000	29.214916
1849.000000	29.269548
1850.000000	29.324886
1851.000000	29.379807
1852.000000	29.434984
1853.000000	29.491390
1854.000000	29.549325
1855.000000	29.607485
1856.000000	29.664419
1857.000000	29.720289
1858.000000	29.776220
1859.000000	29.832584
1860.000000	29.887973
1861.000000	29.940298
1862.000000	29.988569
1863.000000	30.032290
1864.000000	30.070697
1865.000000	30.104316
1866.000000	30.133110
1867.000000	30.157363
1868.000000	30.176870
1869.000000	30.190690
1870.000000	30.197181
1871.000000	30.195746
1872.000000	30.185198
1873.000000	30.164864
1874.000000	30.134513
1875.000000	30.093248
1876.000000	30.039319
1877.000000	29.972770
1878.000000	29.893879
1879.000000	29.802701
1880.000000	29.698125
1881.000000	29.578820
1882.000000	29.442428
1883.000000	29.289559
1884.000000	29.121072
1885.000000	28.938408
1886.000000	28.744030
1887.000000	28.539065
1888.000000	28.323320
1889.000000	28.096213
1890.000000	27.859397
1891.000000	27.613616
1892.000000	27.358949
1893.000000	27.095414
1894.000000	26.823111
1895.000000	26.543010
1896.000000	26.256503
1897.000000	25.964245
1898.000000	25.665620
1899.000000	25.361605
1900.000000	25.051644
1901.000000	24.736231
1902.000000	24.415557
1903.000000	24.090332
1904.000000	23.761695
1905.000000	23.430562
1906.000000	23.096747
1907.000000	22.761720
1908.000000	22.427290
1909.000000	22.094954
1910.000000	21.766483
1911.000000	21.442868
1912.000000	21.124350
1913.000000	20.812130
1914.000000	20.506384
1915.000000	20.207547
1916.000000	19.916687
1917.000000	19.634950
1918.000000	19.361582
1919.000000	19.096353
1920.000000	18.840337
1921.000000	18.592040
1922.000000	18.349889
1923.000000	18.113189
1924.000000	17.882544
1925.000000	17.656763
1926.000000	17.436068
1927.000000	17.221650
1928.000000	17.014070
1929.000000	16.812529
1930.000000	16.617228
1931.000000	16.427275
1932.000000	16.242805
1933.000000	16.065757
1934.000000	15.895370
1935.000000	15.732001
1936.000000	15.575764
1937.000000	15.426928
1938.000000	15.285112
1939.000000	15.150293
1940.000000	15.023206
1941.000000	14.903796
1942.000000	14.792781
1943.000000	14.688832
1944.000000	14.591798
1945.000000	14.501610
1946.000000	14.418128
1947.000000	14.341324
1948.000000	14.271543
1949.000000	14.208770
1950.000000	14.153504
1951.000000	14.104801
1952.000000	14.062273
1953.000000	14.025858
1954.000000	13.995901
1955.000000	13.971894
1956.000000	13.953372
1957.000000	13.940764
1958.000000	13.933780
1959.000000	13.931698
1960.000000	13.934246
1961.000000	13.942101
1962.000000	13.954281
1963.000000	13.970399
1964.000000	13.990730
1965.000000	14.014479
1966.000000	14.041974
1967.000000	14.072861
1968.000000	14.106717
1969.000000	14.143408
1970.000000	14.183018
1971.000000	14.225096
1972.000000	14.269282
1973.000000	14.315299
1974.000000	14.363216
1975.000000	14.412714
1976.000000	14.463838
1977.000000	14.516440
1978.000000	14.571171
1979.000000	14.627429
1980.000000	14.684230
1981.000000	14.741890
1982.000000	14.800783
1983.000000	14.859947
1984.000000	14.919861
1985.000000	14.979998
1986.000000	15.040485
1987.000000	15.101626
1988.000000	15.162823
1989.000000	15.224105
1990.000000	15.284799
1991.000000	15.345616
1992.000000	15.406201
1993.000000	15.466391
1994.000000	15.526602
1995.000000	15.586354
1996.000000	15.644986
1997.000000	15.702565
1998.000000	15.759418
1999.000000	15.815320
2000.000000	15.870345
2001.000000	15.924181
2002.000000	15.977295
2003.000000	16.028847
2004.000000	16.079195
2005.000000	16.127443
2006.000000	16.173787
2007.000000	16.218330
2008.000000	16.260988
2009.000000	16.301790
2010.000000	16.340031
2011.000000	16.375929
2012.000000	16.408927
2013.000000	16.438755
2014.000000	16.465532
2015.000000	16.489450
2016.000000	16.510383
2017.000000	16.527875
2018.000000	16.542150
2019.000000	16.552886
2020.000000	16.560356
2021.000000	16.564367
2022.000000	16.564475
2023.000000	16.561020
2024.000000	16.554065
2025.000000	16.543362
2026.000000	16.529275
2027.000000	16.511413
2028.000000	16.490407
2029.000000	16.465130
2030.000000	16.436329
2031.000000	16.403988
2032.000000	16.368030
2033.000000	16.328203
2034.000000	16.284797
2035.000000	16.237289
2036.000000	16.186089
2037.000000	16.130814
2038.000000	16.071723
2039.000000	16.009062
2040.000000	15.942806
2041.000000	15.872945
2042.000000	15.799224
2043.000000	15.722065
2044.000000	15.641044
2045.000000	15.556877
2046.000000	15.469681
2047.000000	15.380191
2048.000000	15.288682
2049.000000	15.195025
2050.000000	15.100050
2051.000000	15.003912
2052.000000	14.907038
2053.000000	14.809786
2054.000000	14.712725
2055.000000	14.616184
2056.000000	14.520648
2057.000000	14.426171
2058.000000	14.333226
2059.000000	14.242351
2060.000000	14.153890
2061.000000	14.067207
2062.000000	13.983098
2063.000000	13.901655
2064.000000	13.823376
2065.000000	13.748457
2066.000000	13.676850
2067.000000	13.609319
2068.000000	13.545624
2069.000000	13.485604
2070.000000	13.429875
2071.000000	13.378458
2072.000000	13.331259
2073.000000	13.288542
2074.000000	13.249861
2075.000000	13.216071
2076.000000	13.186924
2077.000000	13.162353
2078.000000	13.142470
2079.000000	13.127218
2080.000000	13.116347
2081.000000	13.109887
2082.000000	13.107009
2083.000000	13.107665
2084.000000	13.112260
2085.000000	13.119748
2086.000000	13.130359
2087.000000	13.143569
2088.000000	13.158906
2089.000000	13.176150
2090.000000	13.195062
2091.000000	13.215303
2092.000000	13.236596
2093.000000	13.258540
2094.000000	13.280780
2095.000000	13.303445
2096.000000	13.326570
2097.000000	13.350085
2098.000000	13.373729
2099.000000	13.397415
2100.000000	13.420802
2101.000000	13.444354
2102.000000	13.467496
2103.000000	13.490308
2104.000000	13.513015
2105.000000	13.535173
2106.000000	13.556970
2107.000000	13.578738
2108.000000	13.600212
2109.000000	13.621342
2110.000000	13.642235
2111.000000	13.663010
2112.000000	13.683752
2113.000000	13.704139
2114.000000	13.724381
2115.000000	13.744705
2116.000000	13.765015
2117.000000	13.785181
2118.000000	13.805294
2119.000000	13.825485
2120.000000	13.845445
2121.000000	13.864925
2122.000000	13.884361
2123.000000	13.903604
2124.000000	13.922695
2125.000000	13.941372
2126.000000	13.959646
2127.000000	13.977742
2128.000000	13.995187
2129.000000	14.011434
2130.000000	14.026823
2131.000000	14.041161
2132.000000	14.054247
2133.000000	14.065873
2134.000000	14.076192
2135.000000	14.085048
2136.000000	14.092021
2137.000000	14.097462
2138.000000	14.101315
2139.000000	14.103226
2140.000000	14.103311
2141.000000	14.101430
2142.000000	14.097457
2143.000000	14.091308
2144.000000	14.083125
2145.000000	14.072782
2146.000000	14.060130
2147.000000	14.045390
2148.000000	14.028402
2149.000000	14.009155
2150.000000	13.987783
2151.000000	13.964179
2152.000000	13.938261
2153.000000	13.910485
2154.000000	13.880186
2155.000000	13.848251
2156.000000	13.814619
2157.000000	13.778582
2158.000000	13.741164
2159.000000	13.702574
2160.000000	13.662393
2161.000000	13.620437
2162.000000	13.577427
2163.000000	13.533602
2164.000000	13.489435
2165.000000	13.444763
2166.000000	13.399447
2167.000000	13.353664
2168.000000	13.307379
2169.000000	13.260750
2170.000000	13.214274
2171.000000	13.167585
2172.000000	13.121003
2173.000000	13.074569
2174.000000	13.028722
2175.000000	12.983207
2176.000000	12.938243
2177.000000	12.893587
2178.000000	12.849494
2179.000000	12.806368
2180.000000	12.763437
2181.000000	12.720925
2182.000000	12.678623
2183.000000	12.636833
2184.000000	12.595354
2185.000000	12.553538
2186.000000	12.511788
2187.000000	12.469932
2188.000000	12.427195
2189.000000	12.383901
2190.000000	12.338999
2191.000000	12.292687
2192.000000	12.244794
2193.000000	12.194679
2194.000000	12.141606
2195.000000	12.086104
2196.000000	12.028050
2197.000000	11.966820
2198.000000	11.902255
2199.000000	11.834266
2200.000000	11.762962
2201.000000	11.688650
2202.000000	11.611390
2203.000000	11.531769
2204.000000	11.449714
2205.000000	11.365758
2206.000000	11.280842
2207.000000	11.193980
2208.000000	11.106607
2209.000000	11.019016
2210.000000	10.931802
2211.000000	10.845096
2212.000000	10.759671
2213.000000	10.676197
2214.000000	10.593940
2215.000000	10.514025
2216.000000	10.436909
2217.000000	10.362618
2218.000000	10.291459
2219.000000	10.223535
2220.000000	10.159317
2221.000000	10.098300
2222.000000	10.041142
2223.000000	9.987934
2224.000000	9.938510
2225.000000	9.893835
2226.000000	9.853307
2227.000000	9.817489
2228.000000	9.786271
2229.000000	9.759610
2230.000000	9.737291
2231.000000	9.719121
2232.000000	9.704824
2233.000000	9.694939
2234.000000	9.688871
2235.000000	9.686759
2236.000000	9.687786
2237.000000	9.691348
2238.000000	9.697294
2239.000000	9.705176
2240.000000	9.713950
2241.000000	9.723302
2242.000000	9.733135
2243.000000	9.742197
2244.000000	9.749890
2245.000000	9.755602
2246.000000	9.759170
2247.000000	9.759732
2248.000000	9.756128
2249.000000	9.748781
2250.000000	9.736817
2251.000000	9.719588
2252.000000	9.697170
2253.000000	9.668716
2254.000000	9.634616
2255.000000	9.594114
2256.000000	9.548534
2257.000000	9.496774
2258.000000	9.439842
2259.000000	9.377258
2260.000000	9.309290
2261.000000	9.236982
2262.000000	9.160431
2263.000000	9.079931
2264.000000	8.997070
2265.000000	8.911616
2266.000000	8.824439
2267.000000	8.736640
2268.000000	8.648108
2269.000000	8.560132
2270.000000	8.472194
2271.000000	8.385686
2272.000000	8.300908
2273.000000	8.218305
2274.000000	8.137866
2275.000000	8.060385
2276.000000	7.985949
2277.000000	7.914997
2278.000000	7.847505
2279.000000	7.783768
2280.000000	7.724364
2281.000000	7.668941
2282.000000	7.617625
2283.000000	7.571155
2284.000000	7.529240
2285.000000	7.492105
2286.000000	7.459862
2287.000000	7.432339
2288.000000	7.409617
2289.000000	7.391416
2290.000000	7.377854
2291.000000	7.367908
2292.000000	7.362611
2293.000000	7.360564
2294.000000	7.361957
2295.000000	7.365962
2296.000000	7.372096
2297.000000	7.380019
2298.000000	7.389746
2299.000000	7.399882
2300.000000	7.410464
2301.000000	7.421652
2302.000000	7.432907
2303.000000	7.444176
2304.000000	7.455128
2305.000000	7.466231
2306.000000	7.477084
2307.000000	7.488080
2308.000000	7.498908
2309.000000	7.510237
2310.000000	7.521962
2311.000000	7.534230
2312.000000	7.547386
2313.000000	7.561476
2314.000000	7.576403
2315.000000	7.592072
2316.000000	7.608781
2317.000000	7.626927
2318.000000	7.646004
2319.000000	7.666135
2320.000000	7.687753
2321.000000	7.710444
2322.000000	7.734382
2323.000000	7.759799
2324.000000	7.786572
2325.000000	7.815090
2326.000000	7.845498
2327.000000	7.877412
2328.000000	7.911351
2329.000000	7.947306
2330.000000	7.985770
2331.000000	8.026661
2332.000000	8.069979
2333.000000	8.115194
2334.000000	8.162737
2335.000000	8.212546
2336.000000	8.263746
2337.000000	8.316215
2338.000000	8.369617
2339.000000	8.423505
2340.000000	8.477428
2341.000000	8.530730
2342.000000	8.583020
2343.000000	8.633710
2344.000000	8.682441
2345.000000	8.728903
2346.000000	8.772830
2347.000000	8.813776
2348.000000	8.851501
2349.000000	8.886283
2350.000000	8.918338
2351.000000	8.947682
2352.000000	8.973993
2353.000000	8.998105
2354.000000	9.020205
2355.000000	9.040091
2356.000000	9.058583
2357.000000	9.075800
2358.000000	9.092087
2359.000000	9.107675
2360.000000	9.122855
2361.000000	9.137590
2362.000000	9.152094
2363.000000	9.166303
2364.000000	9.180772
2365.000000	9.195078
2366.000000	9.209326
2367.000000	9.223896
2368.000000	9.238771
2369.000000	9.253613
2370.000000	9.268768
2371.000000	9.284508
2372.000000	9.300534
2373.000000	9.317056
2374.000000	9.334309
2375.000000	9.352354
2376.000000	9.371208
2377.000000	9.390999
2378.000000	9.412178
2379.000000	9.434447
2380.000000	9.457430
2381.000000	9.481434
2382.000000	9.506514
2383.000000	9.532541
2384.000000	9.559370
2385.000000	9.586130
2386.000000	9.612694
2387.000000	9.639243
2388.000000	9.665220
2389.000000	9.690157
2390.000000	9.714065
2391.000000	9.736456
2392.000000	9.757002
2393.000000	9.775546
2394.000000	9.792070
2395.000000	9.806166
2396.000000	9.817702
2397.000000	9.827036
2398.000000	9.833881
2399.000000	9.838119
2400.000000	9.840276
2401.000000	9.840190
2402.000000	9.837678
2403.000000	9.833160
2404.000000	9.826720
2405.000000	9.818492
2406.000000	9.808596
2407.000000	9.797140
2408.000000	9.783796
2409.000000	9.768637
2410.000000	9.751931
2411.000000	9.734165
2412.000000	9.714925
2413.000000	9.694231
2414.000000	9.672019
2415.000000	9.648654
2416.000000	9.623978
2417.000000	9.598150
2418.000000	9.571160
2419.000000	9.542615
2420.000000	9.513288
2421.000000	9.482836
2422.000000	9.451280
2423.000000	9.418616
2424.000000	9.385088
2425.000000	9.350901
2426.000000	9.315939
2427.000000	9.280453
2428.000000	9.244502
2429.000000	9.207402
2430.000000	9.169980
2431.000000	9.132003
2432.000000	9.093427
2433.000000	9.054145
2434.000000	9.014239
2435.000000	8.973368
2436.000000	8.931824
2437.000000	8.889505
2438.000000	8.846050
2439.000000	8.801719
2440.000000	8.756220
2441.000000	8.709511
2442.000000	8.662131
2443.000000	8.614036
2444.000000	8.564810
2445.000000	8.514923
2446.000000	8.463853
2447.000000	8.411820
2448.000000	8.358582
2449.000000	8.304808
2450.000000	8.250258
2451.000000	8.194736
2452.000000	8.138421
2453.000000	8.081406
2454.000000	8.024277
2455.000000	7.966473
2456.000000	7.908350
2457.000000	7.849971
2458.000000	7.791644
2459.000000	7.733346
2460.000000	7.675170
2461.000000	7.617215
2462.000000	7.559738
2463.000000	7.502261
2464.000000	7.445963
2465.000000	7.389620
2466.000000	7.334366
2467.000000	7.280048
2468.000000	7.226614
2469.000000	7.173865
2470.000000	7.122612
2471.000000	7.072630
2472.000000	7.024355
2473.000000	6.977815
2474.000000	6.932370
2475.000000	6.888622
2476.000000	6.846608
2477.000000	6.806573
2478.000000	6.767590
2479.000000	6.730566
2480.000000	6.694834
2481.000000	6.661235
2482.000000	6.630715
2483.000000	6.600326
2484.000000	6.571719
2485.000000	6.545103
2486.000000	6.520414
2487.000000	6.496912
2488.000000	6.476701
2489.000000	6.457306
2490.000000	6.439579
2491.000000	6.422406
2492.000000	6.408855
2493.000000	6.396306
2494.000000	6.384099
2495.000000	6.373466
2496.000000	6.365088
2497.000000	6.360057
2498.000000	6.353372
2499.000000	6.349189
2500.000000	6.345798
