PE UV       SUBTECH     SPECTRUM    ASCII       PEDS        4.00        
   -1
CICIMAUCR0008-1.Sample.ASC
24/03/08
13:07:07.00
24/03/08
13:07:07.00
Vinicio Soto Monge
C. kalinini
250,000000
1
Lambda 1050
1050L1511233
PerkinElmer UV WinLab 6.3.2.0749 / 2.02.05 Lambda 900 UV/VIS/NIR, Aug  7 2015 09:38:08

0
0
3350/servo 860,8/2
0
0
UV/VIS
1
1
1
DoubleDePol,CommonBeamDepol,RBeamAtt,SBeamAtt,60mm sphere, WB InGaAs Detector
0
0
0
0
Program
Program
3350/servo 860,8/2
3350/0,2 860,8/0,2
3350/0,2 860,8/0,2
0
15.00
 
 
 
0
 
860,8
319,2
860,8
Front
100
on
S:100 R:100
0
0
0
0
 
0
 
 
 
0
 
 
0
0
0
0
0
 
 
 
 
0
0


0
0
#HDR
-1
-1
#GR
nm
%R
1.0
0.0
2500,000000
-1,000000
2251
8
36,165400
2,347300
#DATA
250.000000	nan
251.000000	nan
252.000000	nan
253.000000	nan
254.000000	nan
255.000000	nan
256.000000	nan
257.000000	nan
258.000000	nan
259.000000	nan
260.000000	nan
261.000000	nan
262.000000	nan
263.000000	nan
264.000000	nan
265.000000	nan
266.000000	nan
267.000000	nan
268.000000	nan
269.000000	nan
270.000000	nan
271.000000	nan
272.000000	nan
273.000000	nan
274.000000	nan
275.000000	nan
276.000000	nan
277.000000	nan
278.000000	nan
279.000000	nan
280.000000	nan
281.000000	nan
282.000000	nan
283.000000	nan
284.000000	2.595860
285.000000	2.589474
286.000000	2.583856
287.000000	2.577523
288.000000	2.573192
289.000000	2.567517
290.000000	2.562984
291.000000	2.558147
292.000000	2.550832
293.000000	2.545548
294.000000	2.540137
295.000000	2.533852
296.000000	2.527331
297.000000	2.523253
298.000000	2.519265
299.000000	2.514999
300.000000	2.510638
301.000000	2.505308
302.000000	2.500953
303.000000	2.496703
304.000000	2.493381
305.000000	2.491586
306.000000	2.488188
307.000000	2.485073
308.000000	2.482660
309.000000	2.480494
310.000000	2.477504
311.000000	2.474939
312.000000	2.471244
313.000000	2.467879
314.000000	2.464903
315.000000	2.461820
316.000000	2.459285
317.000000	2.468864
318.000000	2.477850
319.000000	2.496505
320.000000	2.507275
321.000000	2.522415
322.000000	2.536984
323.000000	2.540295
324.000000	2.548595
325.000000	2.552453
326.000000	2.557696
327.000000	2.565849
328.000000	2.574530
329.000000	2.577871
330.000000	2.580878
331.000000	2.584950
332.000000	2.589817
333.000000	2.593011
334.000000	2.601015
335.000000	2.603396
336.000000	2.612074
337.000000	2.616933
338.000000	2.625095
339.000000	2.629682
340.000000	2.632546
341.000000	2.639933
342.000000	2.644335
343.000000	2.649683
344.000000	2.655823
345.000000	2.661654
346.000000	2.666200
347.000000	2.672702
348.000000	2.679378
349.000000	2.685488
350.000000	2.691449
351.000000	2.698351
352.000000	2.695040
353.000000	2.691618
354.000000	2.678641
355.000000	2.675229
356.000000	2.668762
357.000000	2.662641
358.000000	2.667397
359.000000	2.666725
360.000000	2.671543
361.000000	2.672623
362.000000	2.672612
363.000000	2.672721
364.000000	2.679509
365.000000	2.688808
366.000000	2.697288
367.000000	2.700547
368.000000	2.706165
369.000000	2.707601
370.000000	2.712517
371.000000	2.713872
372.000000	2.718799
373.000000	2.721857
374.000000	2.725130
375.000000	2.732557
376.000000	2.738352
377.000000	2.737802
378.000000	2.737307
379.000000	2.734970
380.000000	2.734535
381.000000	2.735590
382.000000	2.736276
383.000000	2.737476
384.000000	2.739307
385.000000	2.741301
386.000000	2.743020
387.000000	2.744661
388.000000	2.747553
389.000000	2.750760
390.000000	2.754678
391.000000	2.757265
392.000000	2.761798
393.000000	2.766831
394.000000	2.774331
395.000000	2.781176
396.000000	2.792913
397.000000	2.805509
398.000000	2.818295
399.000000	2.831974
400.000000	2.846053
401.000000	2.863748
402.000000	2.887414
403.000000	2.913559
404.000000	2.943243
405.000000	2.978096
406.000000	3.015310
407.000000	3.056965
408.000000	3.102412
409.000000	3.154149
410.000000	3.207690
411.000000	3.264949
412.000000	3.336778
413.000000	3.413389
414.000000	3.495321
415.000000	3.583184
416.000000	3.676540
417.000000	3.775452
418.000000	3.880196
419.000000	3.990112
420.000000	4.105902
421.000000	4.227220
422.000000	4.353707
423.000000	4.485878
424.000000	4.622972
425.000000	4.764550
426.000000	4.910661
427.000000	5.060697
428.000000	5.214501
429.000000	5.371975
430.000000	5.532448
431.000000	5.695543
432.000000	5.861097
433.000000	6.028997
434.000000	6.199124
435.000000	6.370441
436.000000	6.542328
437.000000	6.715269
438.000000	6.888885
439.000000	7.062029
440.000000	7.234279
441.000000	7.405576
442.000000	7.575250
443.000000	7.743103
444.000000	7.908608
445.000000	8.071594
446.000000	8.231670
447.000000	8.387906
448.000000	8.540336
449.000000	8.688509
450.000000	8.832557
451.000000	8.972231
452.000000	9.106997
453.000000	9.236795
454.000000	9.361949
455.000000	9.482228
456.000000	9.596747
457.000000	9.705836
458.000000	9.808885
459.000000	9.905999
460.000000	9.997763
461.000000	10.083597
462.000000	10.163875
463.000000	10.238413
464.000000	10.306909
465.000000	10.369495
466.000000	10.425583
467.000000	10.475265
468.000000	10.518427
469.000000	10.554602
470.000000	10.584327
471.000000	10.607683
472.000000	10.624173
473.000000	10.634073
474.000000	10.638292
475.000000	10.636785
476.000000	10.630264
477.000000	10.619831
478.000000	10.605765
479.000000	10.588906
480.000000	10.569731
481.000000	10.549344
482.000000	10.529244
483.000000	10.510461
484.000000	10.494247
485.000000	10.481466
486.000000	10.473097
487.000000	10.469672
488.000000	10.472069
489.000000	10.480413
490.000000	10.494883
491.000000	10.516264
492.000000	10.544068
493.000000	10.578630
494.000000	10.619637
495.000000	10.666382
496.000000	10.719120
497.000000	10.777076
498.000000	10.839951
499.000000	10.907832
500.000000	10.980286
501.000000	11.057256
502.000000	11.138944
503.000000	11.225496
504.000000	11.316765
505.000000	11.412657
506.000000	11.513092
507.000000	11.618081
508.000000	11.727782
509.000000	11.842117
510.000000	11.961740
511.000000	12.086472
512.000000	12.216055
513.000000	12.350968
514.000000	12.491610
515.000000	12.637862
516.000000	12.789612
517.000000	12.946915
518.000000	13.108617
519.000000	13.274612
520.000000	13.444275
521.000000	13.617963
522.000000	13.795861
523.000000	13.977268
524.000000	14.162138
525.000000	14.350662
526.000000	14.542916
527.000000	14.739191
528.000000	14.940374
529.000000	15.147042
530.000000	15.359915
531.000000	15.578493
532.000000	15.803785
533.000000	16.035999
534.000000	16.275234
535.000000	16.521551
536.000000	16.774838
537.000000	17.034606
538.000000	17.301036
539.000000	17.574050
540.000000	17.853835
541.000000	18.140076
542.000000	18.432738
543.000000	18.730555
544.000000	19.033452
545.000000	19.340878
546.000000	19.651147
547.000000	19.964580
548.000000	20.279961
549.000000	20.595778
550.000000	20.912209
551.000000	21.228493
552.000000	21.543861
553.000000	21.857155
554.000000	22.167746
555.000000	22.473768
556.000000	22.774779
557.000000	23.069900
558.000000	23.359692
559.000000	23.643204
560.000000	23.900406
561.000000	24.148160
562.000000	24.388633
563.000000	24.621323
564.000000	24.845910
565.000000	25.061583
566.000000	25.268131
567.000000	25.464729
568.000000	25.652391
569.000000	25.832092
570.000000	26.003395
571.000000	26.167886
572.000000	26.326364
573.000000	26.479189
574.000000	26.625601
575.000000	26.765169
576.000000	26.898335
577.000000	27.024876
578.000000	27.145860
579.000000	27.260442
580.000000	27.367961
581.000000	27.471152
582.000000	27.569672
583.000000	27.663077
584.000000	27.751653
585.000000	27.834265
586.000000	27.910536
587.000000	27.979056
588.000000	28.040182
589.000000	28.093157
590.000000	28.138713
591.000000	28.175323
592.000000	28.204901
593.000000	28.226217
594.000000	28.239286
595.000000	28.264141
596.000000	28.283074
597.000000	28.293787
598.000000	28.295996
599.000000	28.289326
600.000000	28.274267
601.000000	28.249978
602.000000	28.217429
603.000000	28.176167
604.000000	28.125450
605.000000	28.065714
606.000000	27.997222
607.000000	27.919356
608.000000	27.831477
609.000000	27.734725
610.000000	27.630484
611.000000	27.517981
612.000000	27.397814
613.000000	27.269936
614.000000	27.134085
615.000000	26.991713
616.000000	26.841081
617.000000	26.682782
618.000000	26.516205
619.000000	26.342595
620.000000	26.161969
621.000000	25.974802
622.000000	25.783789
623.000000	25.588354
624.000000	25.390099
625.000000	25.190456
626.000000	24.991014
627.000000	24.791124
628.000000	24.591821
629.000000	24.394066
630.000000	24.198661
631.000000	24.006244
632.000000	23.818232
633.000000	23.635573
634.000000	23.459224
635.000000	23.289482
636.000000	23.129954
637.000000	22.979961
638.000000	22.839221
639.000000	22.708868
640.000000	22.589985
641.000000	22.482028
642.000000	22.385274
643.000000	22.301132
644.000000	22.229423
645.000000	22.169430
646.000000	22.121667
647.000000	22.086218
648.000000	22.063600
649.000000	22.053536
650.000000	22.055313
651.000000	22.069392
652.000000	22.094611
653.000000	22.132917
654.000000	22.181550
655.000000	22.240121
656.000000	22.308858
657.000000	22.386354
658.000000	22.473676
659.000000	22.568063
660.000000	22.669736
661.000000	22.777304
662.000000	22.888393
663.000000	23.003573
664.000000	23.121956
665.000000	23.243195
666.000000	23.365767
667.000000	23.489318
668.000000	23.613039
669.000000	23.737045
670.000000	23.861720
671.000000	23.985010
672.000000	24.107999
673.000000	24.231164
674.000000	24.354340
675.000000	24.477222
676.000000	24.599400
677.000000	24.722435
678.000000	24.845233
679.000000	24.969413
680.000000	25.095571
681.000000	25.224011
682.000000	25.355074
683.000000	25.487446
684.000000	25.623493
685.000000	25.764445
686.000000	25.909005
687.000000	26.057064
688.000000	26.208827
689.000000	26.365453
690.000000	26.526562
691.000000	26.692032
692.000000	26.861460
693.000000	27.034088
694.000000	27.211847
695.000000	27.393031
696.000000	27.576699
697.000000	27.764548
698.000000	27.954288
699.000000	28.146542
700.000000	28.341471
701.000000	28.539201
702.000000	28.738363
703.000000	28.938446
704.000000	29.138497
705.000000	29.338363
706.000000	29.537781
707.000000	29.735563
708.000000	29.932012
709.000000	30.125800
710.000000	30.315840
711.000000	30.502710
712.000000	30.684451
713.000000	30.860812
714.000000	31.031176
715.000000	31.194032
716.000000	31.349286
717.000000	31.495698
718.000000	31.634281
719.000000	31.764721
720.000000	31.886325
721.000000	31.999081
722.000000	32.103619
723.000000	32.199396
724.000000	32.285731
725.000000	32.365010
726.000000	32.437171
727.000000	32.502380
728.000000	32.562613
729.000000	32.616026
730.000000	32.663769
731.000000	32.708198
732.000000	32.749524
733.000000	32.788746
734.000000	32.825297
735.000000	32.858825
736.000000	32.891586
737.000000	32.923928
738.000000	32.956039
739.000000	32.987170
740.000000	33.018021
741.000000	33.048356
742.000000	33.078355
743.000000	33.109443
744.000000	33.140828
745.000000	33.172353
746.000000	33.204209
747.000000	33.238471
748.000000	33.273077
749.000000	33.307008
750.000000	33.342391
751.000000	33.380294
752.000000	33.420994
753.000000	33.462156
754.000000	33.503492
755.000000	33.543982
756.000000	33.585253
757.000000	33.625060
758.000000	33.664519
759.000000	33.706239
760.000000	33.747350
761.000000	33.787448
762.000000	33.827119
763.000000	33.865727
764.000000	33.903768
765.000000	33.941187
766.000000	33.976201
767.000000	34.008932
768.000000	34.040180
769.000000	34.069298
770.000000	34.096512
771.000000	34.120845
772.000000	34.142615
773.000000	34.161977
774.000000	34.178814
775.000000	34.193315
776.000000	34.205375
777.000000	34.215093
778.000000	34.220600
779.000000	34.222716
780.000000	34.221895
781.000000	34.217901
782.000000	34.210022
783.000000	34.198329
784.000000	34.182748
785.000000	34.162760
786.000000	34.135998
787.000000	34.103041
788.000000	34.067016
789.000000	34.026158
790.000000	33.981043
791.000000	33.932378
792.000000	33.879735
793.000000	33.820560
794.000000	33.755666
795.000000	33.684597
796.000000	33.610481
797.000000	33.532999
798.000000	33.448648
799.000000	33.360102
800.000000	33.266961
801.000000	33.167271
802.000000	33.064331
803.000000	32.957867
804.000000	32.845897
805.000000	32.728320
806.000000	32.605628
807.000000	32.476398
808.000000	32.344386
809.000000	32.210442
810.000000	32.071113
811.000000	31.927337
812.000000	31.780979
813.000000	31.629517
814.000000	31.475438
815.000000	31.316343
816.000000	31.151286
817.000000	30.982029
818.000000	30.811967
819.000000	30.642405
820.000000	30.468039
821.000000	30.291458
822.000000	30.113416
823.000000	29.933826
824.000000	29.753918
825.000000	29.573763
826.000000	29.395405
827.000000	29.216961
828.000000	29.042532
829.000000	28.867777
830.000000	28.694368
831.000000	28.522690
832.000000	28.352715
833.000000	28.188662
834.000000	28.027409
835.000000	27.872231
836.000000	27.720342
837.000000	27.573149
838.000000	27.424617
839.000000	27.280884
840.000000	27.146951
841.000000	27.019446
842.000000	26.897647
843.000000	26.776244
844.000000	26.659053
845.000000	26.551428
846.000000	26.446885
847.000000	26.349211
848.000000	26.256016
849.000000	26.167576
850.000000	26.088143
851.000000	26.015224
852.000000	25.948970
853.000000	25.881362
854.000000	25.817785
855.000000	25.763425
856.000000	25.715138
857.000000	25.674498
858.000000	25.618738
859.000000	25.599423
860.000000	25.586017
861.000000	25.577152
862.000000	25.576485
863.000000	25.580748
864.000000	25.592665
865.000000	25.612664
866.000000	25.635801
867.000000	25.663457
868.000000	25.693379
869.000000	25.727380
870.000000	25.761321
871.000000	25.802904
872.000000	25.845220
873.000000	25.895328
874.000000	25.949401
875.000000	26.003031
876.000000	26.057859
877.000000	26.115149
878.000000	26.176552
879.000000	26.240444
880.000000	26.303134
881.000000	26.369738
882.000000	26.435929
883.000000	26.506186
884.000000	26.575969
885.000000	26.644835
886.000000	26.716471
887.000000	26.787083
888.000000	26.862323
889.000000	26.936864
890.000000	27.008836
891.000000	27.080348
892.000000	27.150277
893.000000	27.239011
894.000000	27.294417
895.000000	27.347463
896.000000	27.395886
897.000000	27.440009
898.000000	27.479534
899.000000	27.514426
900.000000	27.544497
901.000000	27.572160
902.000000	27.595277
903.000000	27.616089
904.000000	27.632500
905.000000	27.646414
906.000000	27.656226
907.000000	27.662863
908.000000	27.664703
909.000000	27.663786
910.000000	27.658971
911.000000	27.651203
912.000000	27.641537
913.000000	27.629123
914.000000	27.613574
915.000000	27.594451
916.000000	27.573509
917.000000	27.549680
918.000000	27.522526
919.000000	27.495786
920.000000	27.467151
921.000000	27.435429
922.000000	27.403149
923.000000	27.369840
924.000000	27.333923
925.000000	27.297943
926.000000	27.261094
927.000000	27.222803
928.000000	27.184040
929.000000	27.145194
930.000000	27.105480
931.000000	27.064874
932.000000	27.024326
933.000000	26.984737
934.000000	26.945009
935.000000	26.904686
936.000000	26.864386
937.000000	26.824580
938.000000	26.783909
939.000000	26.743937
940.000000	26.703457
941.000000	26.662780
942.000000	26.622797
943.000000	26.583574
944.000000	26.544049
945.000000	26.503811
946.000000	26.463551
947.000000	26.423314
948.000000	26.384251
949.000000	26.343814
950.000000	26.303820
951.000000	26.264343
952.000000	26.224077
953.000000	26.184280
954.000000	26.143103
955.000000	26.102406
956.000000	26.061951
957.000000	26.020623
958.000000	25.979834
959.000000	25.939266
960.000000	25.897983
961.000000	25.857177
962.000000	25.815626
963.000000	25.773563
964.000000	25.731566
965.000000	25.689754
966.000000	25.648723
967.000000	25.607831
968.000000	25.566971
969.000000	25.526011
970.000000	25.486226
971.000000	25.446754
972.000000	25.407663
973.000000	25.368614
974.000000	25.330066
975.000000	25.291866
976.000000	25.254397
977.000000	25.217163
978.000000	25.180351
979.000000	25.144331
980.000000	25.109357
981.000000	25.074903
982.000000	25.040820
983.000000	25.006934
984.000000	24.974314
985.000000	24.941777
986.000000	24.909431
987.000000	24.878071
988.000000	24.847403
989.000000	24.817920
990.000000	24.789297
991.000000	24.761663
992.000000	24.734951
993.000000	24.708797
994.000000	24.684520
995.000000	24.661900
996.000000	24.640263
997.000000	24.619203
998.000000	24.599334
999.000000	24.580431
1000.000000	24.562466
1001.000000	24.545131
1002.000000	24.528689
1003.000000	24.512951
1004.000000	24.498434
1005.000000	24.484477
1006.000000	24.470909
1007.000000	24.457697
1008.000000	24.445703
1009.000000	24.434800
1010.000000	24.424509
1011.000000	24.414349
1012.000000	24.405011
1013.000000	24.396934
1014.000000	24.389846
1015.000000	24.383229
1016.000000	24.377766
1017.000000	24.373523
1018.000000	24.370340
1019.000000	24.368763
1020.000000	24.369169
1021.000000	24.370597
1022.000000	24.373280
1023.000000	24.377731
1024.000000	24.383451
1025.000000	24.390091
1026.000000	24.397923
1027.000000	24.407177
1028.000000	24.418463
1029.000000	24.430494
1030.000000	24.443066
1031.000000	24.456906
1032.000000	24.472643
1033.000000	24.489626
1034.000000	24.507546
1035.000000	24.526620
1036.000000	24.546649
1037.000000	24.567469
1038.000000	24.589709
1039.000000	24.612814
1040.000000	24.636494
1041.000000	24.660497
1042.000000	24.685509
1043.000000	24.711600
1044.000000	24.737791
1045.000000	24.764897
1046.000000	24.793040
1047.000000	24.821940
1048.000000	24.850820
1049.000000	24.879323
1050.000000	24.908414
1051.000000	24.938037
1052.000000	24.967451
1053.000000	24.996763
1054.000000	25.025757
1055.000000	25.054637
1056.000000	25.083477
1057.000000	25.112757
1058.000000	25.141723
1059.000000	25.170177
1060.000000	25.198791
1061.000000	25.227554
1062.000000	25.255703
1063.000000	25.283557
1064.000000	25.311663
1065.000000	25.339580
1066.000000	25.367309
1067.000000	25.394874
1068.000000	25.422114
1069.000000	25.449363
1070.000000	25.477109
1071.000000	25.505197
1072.000000	25.533200
1073.000000	25.560643
1074.000000	25.588051
1075.000000	25.615849
1076.000000	25.644117
1077.000000	25.672569
1078.000000	25.700694
1079.000000	25.729426
1080.000000	25.758617
1081.000000	25.787469
1082.000000	25.816406
1083.000000	25.845757
1084.000000	25.875620
1085.000000	25.905446
1086.000000	25.935297
1087.000000	25.965297
1088.000000	25.995649
1089.000000	26.025943
1090.000000	26.055929
1091.000000	26.086186
1092.000000	26.116174
1093.000000	26.145520
1094.000000	26.174423
1095.000000	26.202900
1096.000000	26.230460
1097.000000	26.258089
1098.000000	26.284837
1099.000000	26.311123
1100.000000	26.337569
1101.000000	26.363237
1102.000000	26.388211
1103.000000	26.412466
1104.000000	26.436557
1105.000000	26.459166
1106.000000	26.480997
1107.000000	26.501800
1108.000000	26.522174
1109.000000	26.542531
1110.000000	26.562417
1111.000000	26.581366
1112.000000	26.599271
1113.000000	26.616714
1114.000000	26.633343
1115.000000	26.648289
1116.000000	26.663046
1117.000000	26.676214
1118.000000	26.689197
1119.000000	26.701309
1120.000000	26.711634
1121.000000	26.720660
1122.000000	26.728214
1123.000000	26.734180
1124.000000	26.737880
1125.000000	26.739337
1126.000000	26.739260
1127.000000	26.735857
1128.000000	26.730349
1129.000000	26.721551
1130.000000	26.708949
1131.000000	26.691849
1132.000000	26.668814
1133.000000	26.640689
1134.000000	26.607309
1135.000000	26.568631
1136.000000	26.523586
1137.000000	26.471691
1138.000000	26.414709
1139.000000	26.350700
1140.000000	26.281151
1141.000000	26.206751
1142.000000	26.127714
1143.000000	26.043337
1144.000000	25.953629
1145.000000	25.859983
1146.000000	25.764009
1147.000000	25.666151
1148.000000	25.567671
1149.000000	25.468154
1150.000000	25.369051
1151.000000	25.269574
1152.000000	25.170157
1153.000000	25.069306
1154.000000	24.966794
1155.000000	24.863243
1156.000000	24.757086
1157.000000	24.647514
1158.000000	24.534960
1159.000000	24.418820
1160.000000	24.299494
1161.000000	24.175949
1162.000000	24.049940
1163.000000	23.920771
1164.000000	23.789234
1165.000000	23.655797
1166.000000	23.522354
1167.000000	23.389271
1168.000000	23.256014
1169.000000	23.123183
1170.000000	22.990914
1171.000000	22.860434
1172.000000	22.732060
1173.000000	22.604811
1174.000000	22.480074
1175.000000	22.357006
1176.000000	22.235334
1177.000000	22.113911
1178.000000	21.993563
1179.000000	21.871326
1180.000000	21.746883
1181.000000	21.619446
1182.000000	21.488303
1183.000000	21.351563
1184.000000	21.212214
1185.000000	21.071169
1186.000000	20.929234
1187.000000	20.788714
1188.000000	20.650280
1189.000000	20.517169
1190.000000	20.390594
1191.000000	20.272171
1192.000000	20.164069
1193.000000	20.063840
1194.000000	19.973137
1195.000000	19.890234
1196.000000	19.815340
1197.000000	19.747460
1198.000000	19.686114
1199.000000	19.630831
1200.000000	19.581697
1201.000000	19.537243
1202.000000	19.498049
1203.000000	19.463646
1204.000000	19.433920
1205.000000	19.408203
1206.000000	19.387926
1207.000000	19.372754
1208.000000	19.362797
1209.000000	19.357066
1210.000000	19.356400
1211.000000	19.360571
1212.000000	19.371151
1213.000000	19.387069
1214.000000	19.410377
1215.000000	19.441800
1216.000000	19.480506
1217.000000	19.526523
1218.000000	19.580089
1219.000000	19.638880
1220.000000	19.701803
1221.000000	19.767820
1222.000000	19.834857
1223.000000	19.903014
1224.000000	19.969889
1225.000000	20.034671
1226.000000	20.096620
1227.000000	20.154597
1228.000000	20.210240
1229.000000	20.263363
1230.000000	20.315894
1231.000000	20.367343
1232.000000	20.418814
1233.000000	20.470589
1234.000000	20.523209
1235.000000	20.576654
1236.000000	20.631811
1237.000000	20.687917
1238.000000	20.746094
1239.000000	20.805891
1240.000000	20.867534
1241.000000	20.929877
1242.000000	20.993046
1243.000000	21.056314
1244.000000	21.120671
1245.000000	21.185443
1246.000000	21.250294
1247.000000	21.314749
1248.000000	21.379534
1249.000000	21.444240
1250.000000	21.508049
1251.000000	21.571383
1252.000000	21.634237
1253.000000	21.696697
1254.000000	21.758763
1255.000000	21.819791
1256.000000	21.879629
1257.000000	21.938723
1258.000000	21.996009
1259.000000	22.052091
1260.000000	22.107043
1261.000000	22.160286
1262.000000	22.212106
1263.000000	22.263126
1264.000000	22.312980
1265.000000	22.361291
1266.000000	22.408349
1267.000000	22.453854
1268.000000	22.498397
1269.000000	22.542146
1270.000000	22.584454
1271.000000	22.625429
1272.000000	22.665260
1273.000000	22.704063
1274.000000	22.741589
1275.000000	22.777811
1276.000000	22.812957
1277.000000	22.847020
1278.000000	22.880549
1279.000000	22.913123
1280.000000	22.944706
1281.000000	22.975280
1282.000000	23.005169
1283.000000	23.033451
1284.000000	23.061514
1285.000000	23.089166
1286.000000	23.116477
1287.000000	23.143049
1288.000000	23.168689
1289.000000	23.193294
1290.000000	23.217474
1291.000000	23.241397
1292.000000	23.264509
1293.000000	23.287017
1294.000000	23.308346
1295.000000	23.328546
1296.000000	23.347880
1297.000000	23.366340
1298.000000	23.383683
1299.000000	23.400271
1300.000000	23.415854
1301.000000	23.430537
1302.000000	23.444340
1303.000000	23.456774
1304.000000	23.467894
1305.000000	23.478437
1306.000000	23.488251
1307.000000	23.497209
1308.000000	23.504391
1309.000000	23.509794
1310.000000	23.513860
1311.000000	23.516120
1312.000000	23.516949
1313.000000	23.516000
1314.000000	23.513363
1315.000000	23.508623
1316.000000	23.501700
1317.000000	23.492351
1318.000000	23.480823
1319.000000	23.466746
1320.000000	23.449911
1321.000000	23.430209
1322.000000	23.408040
1323.000000	23.383629
1324.000000	23.356640
1325.000000	23.327109
1326.000000	23.294389
1327.000000	23.258843
1328.000000	23.220580
1329.000000	23.179480
1330.000000	23.135177
1331.000000	23.088217
1332.000000	23.038286
1333.000000	22.985003
1334.000000	22.928714
1335.000000	22.869114
1336.000000	22.806503
1337.000000	22.740414
1338.000000	22.671380
1339.000000	22.598526
1340.000000	22.522066
1341.000000	22.442063
1342.000000	22.358806
1343.000000	22.272220
1344.000000	22.182489
1345.000000	22.090160
1346.000000	21.994271
1347.000000	21.894911
1348.000000	21.791883
1349.000000	21.685066
1350.000000	21.574246
1351.000000	21.458640
1352.000000	21.338771
1353.000000	21.214771
1354.000000	21.086583
1355.000000	20.954617
1356.000000	20.820686
1357.000000	20.685674
1358.000000	20.550514
1359.000000	20.416260
1360.000000	20.282854
1361.000000	20.151083
1362.000000	20.020849
1363.000000	19.890423
1364.000000	19.760314
1365.000000	19.631334
1366.000000	19.502223
1367.000000	19.372797
1368.000000	19.242726
1369.000000	19.110954
1370.000000	18.977780
1371.000000	18.841969
1372.000000	18.703594
1373.000000	18.561254
1374.000000	18.416620
1375.000000	18.268760
1376.000000	18.118271
1377.000000	17.965494
1378.000000	17.812574
1379.000000	17.658849
1380.000000	17.502991
1381.000000	17.348517
1382.000000	17.194357
1383.000000	17.040700
1384.000000	16.886991
1385.000000	16.733929
1386.000000	16.583080
1387.000000	16.435674
1388.000000	16.292674
1389.000000	16.154486
1390.000000	16.019820
1391.000000	15.888460
1392.000000	15.760194
1393.000000	15.633203
1394.000000	15.506980
1395.000000	15.381500
1396.000000	15.257071
1397.000000	15.131800
1398.000000	15.007571
1399.000000	14.884243
1400.000000	14.761826
1401.000000	14.641183
1402.000000	14.520806
1403.000000	14.400509
1404.000000	14.282314
1405.000000	14.165883
1406.000000	14.052286
1407.000000	13.942060
1408.000000	13.835989
1409.000000	13.734306
1410.000000	13.636971
1411.000000	13.543063
1412.000000	13.452537
1413.000000	13.364771
1414.000000	13.280663
1415.000000	13.200274
1416.000000	13.120683
1417.000000	13.042477
1418.000000	12.967643
1419.000000	12.895860
1420.000000	12.826546
1421.000000	12.758911
1422.000000	12.692271
1423.000000	12.625586
1424.000000	12.558389
1425.000000	12.491086
1426.000000	12.422689
1427.000000	12.353031
1428.000000	12.282223
1429.000000	12.210654
1430.000000	12.137740
1431.000000	12.063046
1432.000000	11.989814
1433.000000	11.916637
1434.000000	11.843783
1435.000000	11.771489
1436.000000	11.699071
1437.000000	11.628003
1438.000000	11.560791
1439.000000	11.495343
1440.000000	11.430706
1441.000000	11.368551
1442.000000	11.308269
1443.000000	11.249169
1444.000000	11.192163
1445.000000	11.136786
1446.000000	11.083860
1447.000000	11.032163
1448.000000	10.981134
1449.000000	10.930331
1450.000000	10.880920
1451.000000	10.832866
1452.000000	10.787057
1453.000000	10.740977
1454.000000	10.696514
1455.000000	10.653569
1456.000000	10.612320
1457.000000	10.572317
1458.000000	10.533249
1459.000000	10.494969
1460.000000	10.458811
1461.000000	10.424309
1462.000000	10.389740
1463.000000	10.356969
1464.000000	10.325283
1465.000000	10.294537
1466.000000	10.265757
1467.000000	10.237460
1468.000000	10.210300
1469.000000	10.184369
1470.000000	10.159477
1471.000000	10.135311
1472.000000	10.112371
1473.000000	10.089100
1474.000000	10.067337
1475.000000	10.046811
1476.000000	10.027220
1477.000000	10.008377
1478.000000	9.991583
1479.000000	9.974754
1480.000000	9.958929
1481.000000	9.943437
1482.000000	9.930129
1483.000000	9.917469
1484.000000	9.906006
1485.000000	9.894614
1486.000000	9.884863
1487.000000	9.876183
1488.000000	9.868580
1489.000000	9.861154
1490.000000	9.854777
1491.000000	9.849283
1492.000000	9.844651
1493.000000	9.840840
1494.000000	9.838671
1495.000000	9.836449
1496.000000	9.834197
1497.000000	9.833680
1498.000000	9.834091
1499.000000	9.834851
1500.000000	9.836726
1501.000000	9.838429
1502.000000	9.840594
1503.000000	9.843483
1504.000000	9.847034
1505.000000	9.851083
1506.000000	9.855740
1507.000000	9.861469
1508.000000	9.868071
1509.000000	9.874180
1510.000000	9.882063
1511.000000	9.889849
1512.000000	9.898354
1513.000000	9.907146
1514.000000	9.916746
1515.000000	9.926580
1516.000000	9.937069
1517.000000	9.947311
1518.000000	9.957926
1519.000000	9.969014
1520.000000	9.981226
1521.000000	9.993531
1522.000000	10.005474
1523.000000	10.017874
1524.000000	10.030483
1525.000000	10.043471
1526.000000	10.056494
1527.000000	10.068837
1528.000000	10.081623
1529.000000	10.094331
1530.000000	10.107149
1531.000000	10.120291
1532.000000	10.132991
1533.000000	10.145211
1534.000000	10.157251
1535.000000	10.168774
1536.000000	10.180331
1537.000000	10.191397
1538.000000	10.201866
1539.000000	10.211637
1540.000000	10.220763
1541.000000	10.229960
1542.000000	10.238609
1543.000000	10.246771
1544.000000	10.254814
1545.000000	10.262511
1546.000000	10.269943
1547.000000	10.276797
1548.000000	10.283411
1549.000000	10.289797
1550.000000	10.295797
1551.000000	10.301486
1552.000000	10.306469
1553.000000	10.311374
1554.000000	10.316654
1555.000000	10.321289
1556.000000	10.325054
1557.000000	10.328957
1558.000000	10.332323
1559.000000	10.335114
1560.000000	10.337183
1561.000000	10.339006
1562.000000	10.341009
1563.000000	10.342351
1564.000000	10.342877
1565.000000	10.343149
1566.000000	10.343377
1567.000000	10.343297
1568.000000	10.342203
1569.000000	10.341063
1570.000000	10.340131
1571.000000	10.338660
1572.000000	10.337106
1573.000000	10.336440
1574.000000	10.336026
1575.000000	10.335449
1576.000000	10.334689
1577.000000	10.333763
1578.000000	10.333400
1579.000000	10.333143
1580.000000	10.332014
1581.000000	10.331229
1582.000000	10.331109
1583.000000	10.331340
1584.000000	10.331963
1585.000000	10.332957
1586.000000	10.334366
1587.000000	10.336197
1588.000000	10.338014
1589.000000	10.339554
1590.000000	10.341729
1591.000000	10.344889
1592.000000	10.347943
1593.000000	10.351623
1594.000000	10.356463
1595.000000	10.362163
1596.000000	10.368591
1597.000000	10.375634
1598.000000	10.383371
1599.000000	10.392254
1600.000000	10.401946
1601.000000	10.412063
1602.000000	10.422857
1603.000000	10.434671
1604.000000	10.447871
1605.000000	10.461846
1606.000000	10.476186
1607.000000	10.490977
1608.000000	10.506263
1609.000000	10.522237
1610.000000	10.539009
1611.000000	10.556363
1612.000000	10.574700
1613.000000	10.592877
1614.000000	10.611577
1615.000000	10.630891
1616.000000	10.650491
1617.000000	10.670737
1618.000000	10.690894
1619.000000	10.710771
1620.000000	10.730711
1621.000000	10.751054
1622.000000	10.771769
1623.000000	10.793300
1624.000000	10.815254
1625.000000	10.837226
1626.000000	10.859100
1627.000000	10.881260
1628.000000	10.904260
1629.000000	10.926651
1630.000000	10.949180
1631.000000	10.971943
1632.000000	10.994717
1633.000000	11.017726
1634.000000	11.040806
1635.000000	11.063189
1636.000000	11.085723
1637.000000	11.108591
1638.000000	11.131571
1639.000000	11.153514
1640.000000	11.175263
1641.000000	11.197646
1642.000000	11.219954
1643.000000	11.242131
1644.000000	11.263786
1645.000000	11.284851
1646.000000	11.305971
1647.000000	11.326560
1648.000000	11.346743
1649.000000	11.367180
1650.000000	11.387391
1651.000000	11.406611
1652.000000	11.425603
1653.000000	11.443829
1654.000000	11.462157
1655.000000	11.479809
1656.000000	11.496234
1657.000000	11.512334
1658.000000	11.527163
1659.000000	11.540786
1660.000000	11.553483
1661.000000	11.565114
1662.000000	11.575834
1663.000000	11.584834
1664.000000	11.592660
1665.000000	11.598980
1666.000000	11.603429
1667.000000	11.605794
1668.000000	11.605883
1669.000000	11.602074
1670.000000	11.597037
1671.000000	11.589166
1672.000000	11.578943
1673.000000	11.565354
1674.000000	11.548391
1675.000000	11.527343
1676.000000	11.501809
1677.000000	11.471600
1678.000000	11.435640
1679.000000	11.394034
1680.000000	11.347000
1681.000000	11.294283
1682.000000	11.237400
1683.000000	11.177763
1684.000000	11.115783
1685.000000	11.052777
1686.000000	10.989551
1687.000000	10.925674
1688.000000	10.861814
1689.000000	10.796563
1690.000000	10.729911
1691.000000	10.662623
1692.000000	10.593194
1693.000000	10.523623
1694.000000	10.453686
1695.000000	10.383743
1696.000000	10.313783
1697.000000	10.245271
1698.000000	10.178300
1699.000000	10.114451
1700.000000	10.051786
1701.000000	9.991471
1702.000000	9.934266
1703.000000	9.879629
1704.000000	9.829157
1705.000000	9.780277
1706.000000	9.733851
1707.000000	9.689120
1708.000000	9.647854
1709.000000	9.609354
1710.000000	9.574274
1711.000000	9.542683
1712.000000	9.515383
1713.000000	9.491997
1714.000000	9.473126
1715.000000	9.459291
1716.000000	9.448871
1717.000000	9.441860
1718.000000	9.436986
1719.000000	9.433603
1720.000000	9.430311
1721.000000	9.428211
1722.000000	9.425340
1723.000000	9.422563
1724.000000	9.419549
1725.000000	9.418231
1726.000000	9.417314
1727.000000	9.417103
1728.000000	9.416591
1729.000000	9.415571
1730.000000	9.413817
1731.000000	9.411866
1732.000000	9.408831
1733.000000	9.403969
1734.000000	9.397117
1735.000000	9.389811
1736.000000	9.382426
1737.000000	9.374789
1738.000000	9.367774
1739.000000	9.361546
1740.000000	9.357049
1741.000000	9.354026
1742.000000	9.353320
1743.000000	9.354303
1744.000000	9.357106
1745.000000	9.360566
1746.000000	9.365540
1747.000000	9.371029
1748.000000	9.378646
1749.000000	9.387834
1750.000000	9.397291
1751.000000	9.408363
1752.000000	9.419957
1753.000000	9.431986
1754.000000	9.444189
1755.000000	9.456854
1756.000000	9.468526
1757.000000	9.479877
1758.000000	9.491011
1759.000000	9.502666
1760.000000	9.513417
1761.000000	9.523906
1762.000000	9.535289
1763.000000	9.547454
1764.000000	9.560634
1765.000000	9.575277
1766.000000	9.591354
1767.000000	9.608554
1768.000000	9.627409
1769.000000	9.646731
1770.000000	9.666854
1771.000000	9.687254
1772.000000	9.707374
1773.000000	9.727111
1774.000000	9.745614
1775.000000	9.763246
1776.000000	9.780003
1777.000000	9.795877
1778.000000	9.810806
1779.000000	9.824883
1780.000000	9.838997
1781.000000	9.852109
1782.000000	9.865883
1783.000000	9.879534
1784.000000	9.893214
1785.000000	9.906849
1786.000000	9.921329
1787.000000	9.936166
1788.000000	9.952014
1789.000000	9.967649
1790.000000	9.984811
1791.000000	10.002931
1792.000000	10.022540
1793.000000	10.042783
1794.000000	10.064480
1795.000000	10.087186
1796.000000	10.110831
1797.000000	10.135426
1798.000000	10.160617
1799.000000	10.186577
1800.000000	10.212569
1801.000000	10.238646
1802.000000	10.264117
1803.000000	10.289046
1804.000000	10.313931
1805.000000	10.338371
1806.000000	10.362049
1807.000000	10.385226
1808.000000	10.407514
1809.000000	10.429234
1810.000000	10.450134
1811.000000	10.470834
1812.000000	10.490406
1813.000000	10.508491
1814.000000	10.526229
1815.000000	10.543577
1816.000000	10.560926
1817.000000	10.577083
1818.000000	10.591723
1819.000000	10.605526
1820.000000	10.620357
1821.000000	10.635431
1822.000000	10.650854
1823.000000	10.665163
1824.000000	10.678963
1825.000000	10.692203
1826.000000	10.705606
1827.000000	10.719177
1828.000000	10.733471
1829.000000	10.748246
1830.000000	10.763814
1831.000000	10.780051
1832.000000	10.795960
1833.000000	10.811729
1834.000000	10.827386
1835.000000	10.843257
1836.000000	10.859689
1837.000000	10.876886
1838.000000	10.894086
1839.000000	10.910777
1840.000000	10.927823
1841.000000	10.945234
1842.000000	10.962620
1843.000000	10.979503
1844.000000	10.995420
1845.000000	11.010320
1846.000000	11.024700
1847.000000	11.040351
1848.000000	11.058443
1849.000000	11.077400
1850.000000	11.095517
1851.000000	11.112600
1852.000000	11.129277
1853.000000	11.146894
1854.000000	11.165234
1855.000000	11.182437
1856.000000	11.198109
1857.000000	11.212771
1858.000000	11.227694
1859.000000	11.243337
1860.000000	11.257829
1861.000000	11.270534
1862.000000	11.281623
1863.000000	11.290534
1864.000000	11.296183
1865.000000	11.299657
1866.000000	11.301129
1867.000000	11.300154
1868.000000	11.297437
1869.000000	11.292409
1870.000000	11.284720
1871.000000	11.274049
1872.000000	11.259909
1873.000000	11.241883
1874.000000	11.220423
1875.000000	11.194606
1876.000000	11.163826
1877.000000	11.128083
1878.000000	11.087740
1879.000000	11.043529
1880.000000	10.994800
1881.000000	10.940963
1882.000000	10.880226
1883.000000	10.812714
1884.000000	10.739986
1885.000000	10.663423
1886.000000	10.583211
1887.000000	10.499591
1888.000000	10.412414
1889.000000	10.320691
1890.000000	10.226097
1891.000000	10.129014
1892.000000	10.029520
1893.000000	9.927091
1894.000000	9.821140
1895.000000	9.712680
1896.000000	9.602200
1897.000000	9.489654
1898.000000	9.375486
1899.000000	9.260843
1900.000000	9.144946
1901.000000	9.027560
1902.000000	8.909226
1903.000000	8.789783
1904.000000	8.669571
1905.000000	8.549249
1906.000000	8.428326
1907.000000	8.306089
1908.000000	8.185074
1909.000000	8.065320
1910.000000	7.947203
1911.000000	7.830777
1912.000000	7.717229
1913.000000	7.605860
1914.000000	7.497463
1915.000000	7.392823
1916.000000	7.290969
1917.000000	7.192323
1918.000000	7.096646
1919.000000	7.003617
1920.000000	6.913854
1921.000000	6.827100
1922.000000	6.742351
1923.000000	6.659440
1924.000000	6.579283
1925.000000	6.500749
1926.000000	6.424051
1927.000000	6.349626
1928.000000	6.277103
1929.000000	6.207677
1930.000000	6.140834
1931.000000	6.076483
1932.000000	6.014297
1933.000000	5.954306
1934.000000	5.896377
1935.000000	5.840797
1936.000000	5.787697
1937.000000	5.737771
1938.000000	5.690597
1939.000000	5.645746
1940.000000	5.603694
1941.000000	5.563354
1942.000000	5.527309
1943.000000	5.493691
1944.000000	5.462409
1945.000000	5.434017
1946.000000	5.407846
1947.000000	5.383906
1948.000000	5.363106
1949.000000	5.344546
1950.000000	5.328071
1951.000000	5.314500
1952.000000	5.303426
1953.000000	5.294957
1954.000000	5.288754
1955.000000	5.283911
1956.000000	5.281794
1957.000000	5.281689
1958.000000	5.283483
1959.000000	5.287834
1960.000000	5.293817
1961.000000	5.301654
1962.000000	5.310929
1963.000000	5.321794
1964.000000	5.333417
1965.000000	5.347420
1966.000000	5.362246
1967.000000	5.378480
1968.000000	5.395837
1969.000000	5.414909
1970.000000	5.434971
1971.000000	5.456066
1972.000000	5.477860
1973.000000	5.498863
1974.000000	5.521700
1975.000000	5.544917
1976.000000	5.569506
1977.000000	5.594269
1978.000000	5.619826
1979.000000	5.645960
1980.000000	5.672334
1981.000000	5.699294
1982.000000	5.725803
1983.000000	5.752857
1984.000000	5.780246
1985.000000	5.808180
1986.000000	5.835706
1987.000000	5.863940
1988.000000	5.891523
1989.000000	5.918917
1990.000000	5.947126
1991.000000	5.974597
1992.000000	6.002706
1993.000000	6.031163
1994.000000	6.058869
1995.000000	6.086549
1996.000000	6.113669
1997.000000	6.141017
1998.000000	6.168254
1999.000000	6.194840
2000.000000	6.220754
2001.000000	6.246854
2002.000000	6.272663
2003.000000	6.298391
2004.000000	6.322834
2005.000000	6.346709
2006.000000	6.370263
2007.000000	6.393551
2008.000000	6.416789
2009.000000	6.438809
2010.000000	6.459786
2011.000000	6.479803
2012.000000	6.498677
2013.000000	6.516949
2014.000000	6.534163
2015.000000	6.550529
2016.000000	6.565700
2017.000000	6.580703
2018.000000	6.594020
2019.000000	6.606260
2020.000000	6.616800
2021.000000	6.626897
2022.000000	6.635600
2023.000000	6.643220
2024.000000	6.649660
2025.000000	6.654654
2026.000000	6.658160
2027.000000	6.660486
2028.000000	6.661511
2029.000000	6.661051
2030.000000	6.659166
2031.000000	6.656897
2032.000000	6.652651
2033.000000	6.647217
2034.000000	6.640737
2035.000000	6.632234
2036.000000	6.622006
2037.000000	6.610580
2038.000000	6.597889
2039.000000	6.584466
2040.000000	6.569334
2041.000000	6.552629
2042.000000	6.534963
2043.000000	6.516069
2044.000000	6.495511
2045.000000	6.473389
2046.000000	6.450437
2047.000000	6.426803
2048.000000	6.402009
2049.000000	6.376520
2050.000000	6.349960
2051.000000	6.322757
2052.000000	6.294746
2053.000000	6.267289
2054.000000	6.239711
2055.000000	6.211691
2056.000000	6.183406
2057.000000	6.155234
2058.000000	6.127743
2059.000000	6.101097
2060.000000	6.075077
2061.000000	6.050037
2062.000000	6.025389
2063.000000	6.001523
2064.000000	5.978543
2065.000000	5.956583
2066.000000	5.935263
2067.000000	5.915063
2068.000000	5.896257
2069.000000	5.879157
2070.000000	5.862983
2071.000000	5.848014
2072.000000	5.834423
2073.000000	5.821831
2074.000000	5.810426
2075.000000	5.800723
2076.000000	5.792060
2077.000000	5.784437
2078.000000	5.778823
2079.000000	5.774377
2080.000000	5.771857
2081.000000	5.770457
2082.000000	5.770114
2083.000000	5.770569
2084.000000	5.772363
2085.000000	5.775403
2086.000000	5.779451
2087.000000	5.783877
2088.000000	5.788431
2089.000000	5.793309
2090.000000	5.799071
2091.000000	5.805520
2092.000000	5.812443
2093.000000	5.819603
2094.000000	5.826223
2095.000000	5.832100
2096.000000	5.837949
2097.000000	5.844260
2098.000000	5.850469
2099.000000	5.856814
2100.000000	5.863531
2101.000000	5.869757
2102.000000	5.875257
2103.000000	5.880457
2104.000000	5.885351
2105.000000	5.889817
2106.000000	5.894803
2107.000000	5.899974
2108.000000	5.904834
2109.000000	5.909183
2110.000000	5.913666
2111.000000	5.918611
2112.000000	5.923206
2113.000000	5.927843
2114.000000	5.932569
2115.000000	5.936826
2116.000000	5.940986
2117.000000	5.945154
2118.000000	5.949791
2119.000000	5.954223
2120.000000	5.958077
2121.000000	5.962486
2122.000000	5.966937
2123.000000	5.970791
2124.000000	5.974637
2125.000000	5.978689
2126.000000	5.982469
2127.000000	5.985860
2128.000000	5.989237
2129.000000	5.992700
2130.000000	5.995806
2131.000000	5.999211
2132.000000	6.001683
2133.000000	6.003491
2134.000000	6.005074
2135.000000	6.005840
2136.000000	6.006374
2137.000000	6.007011
2138.000000	6.007394
2139.000000	6.006769
2140.000000	6.005891
2141.000000	6.003971
2142.000000	6.000766
2143.000000	5.997254
2144.000000	5.993977
2145.000000	5.989954
2146.000000	5.983989
2147.000000	5.977346
2148.000000	5.970283
2149.000000	5.962740
2150.000000	5.954620
2151.000000	5.945786
2152.000000	5.936280
2153.000000	5.925777
2154.000000	5.914889
2155.000000	5.903703
2156.000000	5.891191
2157.000000	5.878543
2158.000000	5.866800
2159.000000	5.854509
2160.000000	5.841494
2161.000000	5.827663
2162.000000	5.814291
2163.000000	5.800343
2164.000000	5.786031
2165.000000	5.772129
2166.000000	5.757894
2167.000000	5.743197
2168.000000	5.728497
2169.000000	5.713614
2170.000000	5.698631
2171.000000	5.683917
2172.000000	5.669440
2173.000000	5.654697
2174.000000	5.640169
2175.000000	5.625957
2176.000000	5.612091
2177.000000	5.598723
2178.000000	5.585306
2179.000000	5.571651
2180.000000	5.557983
2181.000000	5.544957
2182.000000	5.532200
2183.000000	5.518603
2184.000000	5.505383
2185.000000	5.492277
2186.000000	5.478623
2187.000000	5.464717
2188.000000	5.450574
2189.000000	5.435180
2190.000000	5.419386
2191.000000	5.402637
2192.000000	5.384897
2193.000000	5.365077
2194.000000	5.343746
2195.000000	5.321303
2196.000000	5.297914
2197.000000	5.272586
2198.000000	5.245306
2199.000000	5.216740
2200.000000	5.186269
2201.000000	5.154689
2202.000000	5.122057
2203.000000	5.088223
2204.000000	5.052726
2205.000000	5.016826
2206.000000	4.980891
2207.000000	4.943654
2208.000000	4.905477
2209.000000	4.867671
2210.000000	4.829986
2211.000000	4.792043
2212.000000	4.754674
2213.000000	4.718220
2214.000000	4.682429
2215.000000	4.647400
2216.000000	4.613366
2217.000000	4.580329
2218.000000	4.549671
2219.000000	4.519843
2220.000000	4.491357
2221.000000	4.464586
2222.000000	4.439409
2223.000000	4.415766
2224.000000	4.394123
2225.000000	4.372851
2226.000000	4.354811
2227.000000	4.338769
2228.000000	4.324637
2229.000000	4.313343
2230.000000	4.303054
2231.000000	4.295229
2232.000000	4.288517
2233.000000	4.284271
2234.000000	4.281646
2235.000000	4.280697
2236.000000	4.280720
2237.000000	4.282306
2238.000000	4.284577
2239.000000	4.288663
2240.000000	4.292857
2241.000000	4.296689
2242.000000	4.300766
2243.000000	4.304937
2244.000000	4.308363
2245.000000	4.310763
2246.000000	4.312963
2247.000000	4.313289
2248.000000	4.312411
2249.000000	4.309034
2250.000000	4.303883
2251.000000	4.297503
2252.000000	4.288637
2253.000000	4.276909
2254.000000	4.263237
2255.000000	4.246489
2256.000000	4.227880
2257.000000	4.207340
2258.000000	4.183374
2259.000000	4.157497
2260.000000	4.130423
2261.000000	4.100971
2262.000000	4.070123
2263.000000	4.037520
2264.000000	4.003271
2265.000000	3.968700
2266.000000	3.932657
2267.000000	3.896777
2268.000000	3.860520
2269.000000	3.824197
2270.000000	3.788143
2271.000000	3.752811
2272.000000	3.718069
2273.000000	3.684717
2274.000000	3.651603
2275.000000	3.619469
2276.000000	3.588851
2277.000000	3.560143
2278.000000	3.532771
2279.000000	3.507429
2280.000000	3.483751
2281.000000	3.461500
2282.000000	3.441126
2283.000000	3.422563
2284.000000	3.406083
2285.000000	3.391777
2286.000000	3.378643
2287.000000	3.368006
2288.000000	3.358803
2289.000000	3.350840
2290.000000	3.345154
2291.000000	3.340643
2292.000000	3.336731
2293.000000	3.334820
2294.000000	3.334069
2295.000000	3.334369
2296.000000	3.335069
2297.000000	3.336043
2298.000000	3.337363
2299.000000	3.339097
2300.000000	3.341306
2301.000000	3.343611
2302.000000	3.345723
2303.000000	3.347711
2304.000000	3.349577
2305.000000	3.352114
2306.000000	3.353989
2307.000000	3.355786
2308.000000	3.358077
2309.000000	3.360897
2310.000000	3.364171
2311.000000	3.366537
2312.000000	3.368620
2313.000000	3.371503
2314.000000	3.374677
2315.000000	3.378497
2316.000000	3.382560
2317.000000	3.386926
2318.000000	3.391586
2319.000000	3.397471
2320.000000	3.403537
2321.000000	3.410774
2322.000000	3.418114
2323.000000	3.426020
2324.000000	3.434954
2325.000000	3.444717
2326.000000	3.454691
2327.000000	3.465897
2328.000000	3.478369
2329.000000	3.491391
2330.000000	3.505617
2331.000000	3.520674
2332.000000	3.536491
2333.000000	3.553866
2334.000000	3.571631
2335.000000	3.589294
2336.000000	3.607700
2337.000000	3.627317
2338.000000	3.647157
2339.000000	3.666580
2340.000000	3.685149
2341.000000	3.703417
2342.000000	3.721600
2343.000000	3.738331
2344.000000	3.753994
2345.000000	3.768837
2346.000000	3.782806
2347.000000	3.795271
2348.000000	3.806554
2349.000000	3.816406
2350.000000	3.825037
2351.000000	3.832163
2352.000000	3.838420
2353.000000	3.843897
2354.000000	3.848109
2355.000000	3.851794
2356.000000	3.854349
2357.000000	3.856734
2358.000000	3.859286
2359.000000	3.861060
2360.000000	3.862574
2361.000000	3.864320
2362.000000	3.865643
2363.000000	3.866571
2364.000000	3.867771
2365.000000	3.868769
2366.000000	3.869900
2367.000000	3.871211
2368.000000	3.872869
2369.000000	3.874380
2370.000000	3.876220
2371.000000	3.878320
2372.000000	3.879974
2373.000000	3.881974
2374.000000	3.885071
2375.000000	3.888634
2376.000000	3.892077
2377.000000	3.895831
2378.000000	3.899674
2379.000000	3.903623
2380.000000	3.908134
2381.000000	3.913626
2382.000000	3.919949
2383.000000	3.926214
2384.000000	3.932020
2385.000000	3.937846
2386.000000	3.944397
2387.000000	3.950723
2388.000000	3.955709
2389.000000	3.960171
2390.000000	3.964143
2391.000000	3.967354
2392.000000	3.969106
2393.000000	3.970583
2394.000000	3.971806
2395.000000	3.971754
2396.000000	3.970320
2397.000000	3.968157
2398.000000	3.965703
2399.000000	3.962657
2400.000000	3.958003
2401.000000	3.952426
2402.000000	3.946483
2403.000000	3.938997
2404.000000	3.931357
2405.000000	3.923503
2406.000000	3.914906
2407.000000	3.905369
2408.000000	3.895134
2409.000000	3.884580
2410.000000	3.873614
2411.000000	3.862500
2412.000000	3.850723
2413.000000	3.838854
2414.000000	3.826309
2415.000000	3.812663
2416.000000	3.798523
2417.000000	3.783911
2418.000000	3.768483
2419.000000	3.753063
2420.000000	3.737660
2421.000000	3.721537
2422.000000	3.704660
2423.000000	3.687500
2424.000000	3.669626
2425.000000	3.651054
2426.000000	3.632591
2427.000000	3.614426
2428.000000	3.594877
2429.000000	3.574671
2430.000000	3.554657
2431.000000	3.534843
2432.000000	3.515109
2433.000000	3.494837
2434.000000	3.474503
2435.000000	3.454954
2436.000000	3.434977
2437.000000	3.413994
2438.000000	3.393051
2439.000000	3.371843
2440.000000	3.350611
2441.000000	3.328986
2442.000000	3.307526
2443.000000	3.286254
2444.000000	3.263649
2445.000000	3.240866
2446.000000	3.218651
2447.000000	3.195706
2448.000000	3.172094
2449.000000	3.149443
2450.000000	3.126814
2451.000000	3.102871
2452.000000	3.078746
2453.000000	3.055860
2454.000000	3.033357
2455.000000	3.009457
2456.000000	2.985703
2457.000000	2.961994
2458.000000	2.939826
2459.000000	2.917977
2460.000000	2.896837
2461.000000	2.875520
2462.000000	2.853969
2463.000000	2.833674
2464.000000	2.812560
2465.000000	2.791326
2466.000000	2.771146
2467.000000	2.751580
2468.000000	2.732651
2469.000000	2.712560
2470.000000	2.693446
2471.000000	2.675314
2472.000000	2.657389
2473.000000	2.641086
2474.000000	2.625829
2475.000000	2.609911
2476.000000	2.594237
2477.000000	2.579986
2478.000000	2.565706
2479.000000	2.552560
2480.000000	2.540791
2481.000000	2.529023
2482.000000	2.517251
2483.000000	2.505366
2484.000000	2.495771
2485.000000	2.487343
2486.000000	2.479303
2487.000000	2.471483
2488.000000	2.463417
2489.000000	2.455646
2490.000000	2.450543
2491.000000	2.443943
2492.000000	2.441429
2493.000000	2.438063
2494.000000	2.436443
2495.000000	2.433760
2496.000000	2.430517
2497.000000	2.429197
2498.000000	2.429169
2499.000000	2.426769
2500.000000	2.425929
