PE UV       SUBTECH     SPECTRUM    ASCII       PEDS        4.00        
   -1
2-STRIGIDIA BELTI INBIO0004211063.ASC
23/11/17
10:41:59.00
23/11/17
10:41:59.00
Vinicio Soto Monge

250,000000
1
Lambda 1050
1050L1511233
PerkinElmer UV WinLab 6.3.2.0749 / 2.02.05 Lambda 900 UV/VIS/NIR, Aug  7 2015 09:38:08

0
0
3350/servo 860,8/2
0
0
UV/VIS
1
1
1
DoubleDePol,CommonBeamDepol,RBeamAtt,SBeamAtt,60mm sphere, WB InGaAs Detector
0
0
0
0
Program
Program
3350/servo 860,8/2
3350/0,4 860,8/0,4
3350/0,4 860,8/0,4
0
20.00
 
 
 
0
 
860,8
319,2
860,8
Front
100
on
S:100 R:100
0
0
0
0
 
0
 
 
 
0
 
 
0
0
0
0
0
 
 
 
 
0
0


0
0
#HDR
-1
-1
#GR
nm
%R
1.0
0.0
2200,000000
-1,000000
1951
8
108,797053
5,244670
#DATA
2200,000000	75,814675
2199,000000	75,440233
2198,000000	74,901966
2197,000000	73,677049
2196,000000	74,538811
2195,000000	74,143221
2194,000000	75,336577
2193,000000	74,386580
2192,000000	73,659062
2191,000000	75,558311
2190,000000	74,503479
2189,000000	75,582873
2188,000000	74,091131
2187,000000	73,972506
2186,000000	72,878419
2185,000000	74,041657
2184,000000	74,432960
2183,000000	74,263354
2182,000000	73,328577
2181,000000	74,668188
2180,000000	75,082783
2179,000000	75,226375
2178,000000	73,986735
2177,000000	74,499661
2176,000000	75,418342
2175,000000	75,867003
2174,000000	73,639805
2173,000000	74,615577
2172,000000	74,379965
2171,000000	74,427332
2170,000000	75,190248
2169,000000	74,763781
2168,000000	74,529732
2167,000000	74,540116
2166,000000	75,541699
2165,000000	74,457852
2164,000000	74,669677
2163,000000	75,783609
2162,000000	74,635708
2161,000000	74,724623
2160,000000	75,531563
2159,000000	74,941044
2158,000000	75,082912
2157,000000	74,930091
2156,000000	74,855541
2155,000000	74,716855
2154,000000	75,202123
2153,000000	77,103745
2152,000000	76,176832
2151,000000	75,320281
2150,000000	76,592257
2149,000000	76,085756
2148,000000	76,589518
2147,000000	76,759512
2146,000000	76,154460
2145,000000	77,235327
2144,000000	77,373413
2143,000000	76,471112
2142,000000	76,355743
2141,000000	77,549429
2140,000000	77,689553
2139,000000	77,148448
2138,000000	77,329237
2137,000000	78,014666
2136,000000	77,815726
2135,000000	79,165254
2134,000000	77,827786
2133,000000	77,421436
2132,000000	77,699408
2131,000000	78,494208
2130,000000	77,346885
2129,000000	76,911674
2128,000000	78,221478
2127,000000	78,837199
2126,000000	78,343042
2125,000000	78,603052
2124,000000	79,193479
2123,000000	78,895030
2122,000000	79,227139
2121,000000	78,480994
2120,000000	78,701840
2119,000000	78,853168
2118,000000	77,820673
2117,000000	78,508764
2116,000000	78,928462
2115,000000	78,614882
2114,000000	78,506094
2113,000000	77,673348
2112,000000	77,291874
2111,000000	77,699773
2110,000000	78,791999
2109,000000	78,221768
2108,000000	77,725769
2107,000000	77,231754
2106,000000	77,243468
2105,000000	78,337342
2104,000000	77,899155
2103,000000	78,267759
2102,000000	78,228984
2101,000000	77,530183
2100,000000	78,106941
2099,000000	77,314797
2098,000000	77,523250
2097,000000	77,937971
2096,000000	77,473125
2095,000000	77,686143
2094,000000	78,095418
2093,000000	78,112926
2092,000000	78,029234
2091,000000	78,560369
2090,000000	78,463622
2089,000000	79,240679
2088,000000	78,778515
2087,000000	77,976021
2086,000000	78,243945
2085,000000	79,337918
2084,000000	78,959830
2083,000000	78,439565
2082,000000	78,796576
2081,000000	78,236895
2080,000000	77,718791
2079,000000	78,313331
2078,000000	78,305297
2077,000000	78,123142
2076,000000	78,191911
2075,000000	78,008052
2074,000000	78,430471
2073,000000	78,288029
2072,000000	77,516189
2071,000000	77,490899
2070,000000	77,356829
2069,000000	77,287290
2068,000000	77,487327
2067,000000	77,054657
2066,000000	76,687383
2065,000000	76,558075
2064,000000	76,878894
2063,000000	76,843797
2062,000000	76,124734
2061,000000	76,861591
2060,000000	76,977719
2059,000000	76,848431
2058,000000	76,889379
2057,000000	77,088915
2056,000000	76,618052
2055,000000	76,119311
2054,000000	75,955349
2053,000000	76,178107
2052,000000	77,241045
2051,000000	76,709819
2050,000000	76,112316
2049,000000	76,157152
2048,000000	75,490281
2047,000000	76,113128
2046,000000	76,421930
2045,000000	77,393823
2044,000000	78,463373
2043,000000	77,887593
2042,000000	77,485558
2041,000000	78,359995
2040,000000	78,288213
2039,000000	78,860015
2038,000000	79,389831
2037,000000	79,584627
2036,000000	79,337533
2035,000000	79,407575
2034,000000	79,323690
2033,000000	78,930615
2032,000000	79,871288
2031,000000	80,095278
2030,000000	79,820606
2029,000000	80,989866
2028,000000	81,003832
2027,000000	80,441480
2026,000000	81,073335
2025,000000	81,140496
2024,000000	80,993516
2023,000000	81,612322
2022,000000	81,070252
2021,000000	80,650958
2020,000000	81,271178
2019,000000	81,428216
2018,000000	82,026072
2017,000000	81,224351
2016,000000	82,195739
2015,000000	82,025053
2014,000000	81,803843
2013,000000	81,768498
2012,000000	81,786737
2011,000000	81,884666
2010,000000	81,618182
2009,000000	81,679396
2008,000000	81,612334
2007,000000	81,833139
2006,000000	82,530257
2005,000000	82,175649
2004,000000	81,878566
2003,000000	82,131199
2002,000000	81,651027
2001,000000	81,187339
2000,000000	82,127707
1999,000000	80,642426
1998,000000	80,825765
1997,000000	81,250790
1996,000000	81,279526
1995,000000	81,756891
1994,000000	81,537117
1993,000000	81,506073
1992,000000	80,703722
1991,000000	81,411405
1990,000000	81,387833
1989,000000	81,155386
1988,000000	80,968635
1987,000000	81,854021
1986,000000	79,959167
1985,000000	80,918197
1984,000000	80,661248
1983,000000	79,690158
1982,000000	79,585636
1981,000000	79,804306
1980,000000	79,433418
1979,000000	80,007314
1978,000000	79,856156
1977,000000	79,058698
1976,000000	79,125658
1975,000000	80,472793
1974,000000	80,018601
1973,000000	80,736129
1972,000000	80,009588
1971,000000	79,998643
1970,000000	79,115382
1969,000000	79,310539
1968,000000	77,992329
1967,000000	79,934800
1966,000000	77,861588
1965,000000	78,419583
1964,000000	77,670142
1963,000000	78,064689
1962,000000	79,154988
1961,000000	78,185689
1960,000000	79,011231
1959,000000	78,829584
1958,000000	78,023787
1957,000000	77,211818
1956,000000	78,029828
1955,000000	77,410976
1954,000000	76,793368
1953,000000	77,966588
1952,000000	76,254979
1951,000000	75,341722
1950,000000	76,140723
1949,000000	76,459219
1948,000000	76,124106
1947,000000	77,639511
1946,000000	76,824671
1945,000000	75,936895
1944,000000	75,998093
1943,000000	76,454491
1942,000000	76,757591
1941,000000	76,876338
1940,000000	74,330473
1939,000000	75,371909
1938,000000	73,854090
1937,000000	76,657072
1936,000000	76,302837
1935,000000	76,513410
1934,000000	74,861182
1933,000000	76,334195
1932,000000	76,055821
1931,000000	77,384998
1930,000000	77,091222
1929,000000	75,937696
1928,000000	76,691679
1927,000000	75,146933
1926,000000	76,201159
1925,000000	76,198986
1924,000000	76,770673
1923,000000	77,237908
1922,000000	76,620671
1921,000000	76,791879
1920,000000	77,774452
1919,000000	79,372691
1918,000000	75,786421
1917,000000	75,302510
1916,000000	73,871879
1915,000000	76,281756
1914,000000	78,872364
1913,000000	79,633756
1912,000000	77,797310
1911,000000	76,840368
1910,000000	78,362206
1909,000000	79,533847
1908,000000	81,258241
1907,000000	79,840978
1906,000000	83,445348
1905,000000	80,661106
1904,000000	82,122882
1903,000000	82,771192
1902,000000	86,993572
1901,000000	83,575721
1900,000000	83,871148
1899,000000	84,888731
1898,000000	85,244733
1897,000000	84,770580
1896,000000	85,046874
1895,000000	84,435837
1894,000000	86,726221
1893,000000	88,210601
1892,000000	87,060498
1891,000000	87,485449
1890,000000	87,262658
1889,000000	89,149780
1888,000000	88,440352
1887,000000	88,880533
1886,000000	90,446153
1885,000000	87,088740
1884,000000	88,450253
1883,000000	91,715884
1882,000000	90,301311
1881,000000	89,792273
1880,000000	91,230574
1879,000000	90,477678
1878,000000	91,369608
1877,000000	91,350898
1876,000000	93,390694
1875,000000	90,464601
1874,000000	91,758438
1873,000000	91,522087
1872,000000	94,050609
1871,000000	93,017470
1870,000000	100,072388
1869,000000	93,786681
1868,000000	90,414946
1867,000000	89,388611
1866,000000	90,792258
1865,000000	93,096497
1864,000000	92,434571
1863,000000	93,854117
1862,000000	92,690256
1861,000000	91,496865
1860,000000	90,856877
1859,000000	91,593466
1858,000000	89,764793
1857,000000	88,926308
1856,000000	89,797294
1855,000000	92,449401
1854,000000	93,568144
1853,000000	95,225712
1852,000000	92,925786
1851,000000	91,225009
1850,000000	90,793564
1849,000000	91,858739
1848,000000	92,518288
1847,000000	94,846412
1846,000000	92,593605
1845,000000	91,500880
1844,000000	92,943242
1843,000000	91,456427
1842,000000	92,158138
1841,000000	93,787327
1840,000000	90,870659
1839,000000	90,019952
1838,000000	90,060272
1837,000000	90,356315
1836,000000	90,417374
1835,000000	91,932019
1834,000000	93,113547
1833,000000	91,695634
1832,000000	90,704280
1831,000000	93,646001
1830,000000	95,922373
1829,000000	91,993533
1828,000000	91,167525
1827,000000	92,038610
1826,000000	92,931536
1825,000000	93,834560
1824,000000	91,243923
1823,000000	91,784308
1822,000000	91,099584
1821,000000	90,427117
1820,000000	91,912400
1819,000000	92,781247
1818,000000	92,003750
1817,000000	95,069295
1816,000000	92,429056
1815,000000	91,755723
1814,000000	92,421191
1813,000000	91,785735
1812,000000	92,475416
1811,000000	93,594109
1810,000000	92,955649
1809,000000	91,686577
1808,000000	91,388149
1807,000000	91,418086
1806,000000	92,142741
1805,000000	92,369029
1804,000000	91,270162
1803,000000	90,847926
1802,000000	91,698419
1801,000000	92,681584
1800,000000	93,310097
1799,000000	92,716231
1798,000000	91,926377
1797,000000	92,018750
1796,000000	92,091283
1795,000000	91,572962
1794,000000	90,297023
1793,000000	89,723911
1792,000000	90,664097
1791,000000	91,651840
1790,000000	91,797180
1789,000000	91,419960
1788,000000	92,016031
1787,000000	91,961498
1786,000000	91,640536
1785,000000	92,029819
1784,000000	91,917862
1783,000000	91,213790
1782,000000	91,420788
1781,000000	91,236718
1780,000000	90,889272
1779,000000	91,249752
1778,000000	91,723369
1777,000000	91,441130
1776,000000	91,943161
1775,000000	92,317487
1774,000000	92,252158
1773,000000	91,355339
1772,000000	90,847775
1771,000000	90,603133
1770,000000	92,019232
1769,000000	91,261767
1768,000000	90,619341
1767,000000	91,165023
1766,000000	91,220494
1765,000000	91,577806
1764,000000	91,115793
1763,000000	90,571105
1762,000000	90,784541
1761,000000	91,973357
1760,000000	92,039173
1759,000000	90,916751
1758,000000	90,606960
1757,000000	91,813100
1756,000000	90,766886
1755,000000	90,506870
1754,000000	89,935319
1753,000000	91,147013
1752,000000	91,291142
1751,000000	91,288698
1750,000000	91,796753
1749,000000	90,649148
1748,000000	91,040694
1747,000000	90,459694
1746,000000	90,152655
1745,000000	89,081785
1744,000000	90,126586
1743,000000	90,427384
1742,000000	90,766678
1741,000000	89,960057
1740,000000	90,288800
1739,000000	90,784488
1738,000000	90,778499
1737,000000	89,678881
1736,000000	90,297655
1735,000000	90,682175
1734,000000	91,284298
1733,000000	90,664058
1732,000000	90,023417
1731,000000	90,630555
1730,000000	90,539332
1729,000000	89,746450
1728,000000	89,454937
1727,000000	89,786286
1726,000000	89,639166
1725,000000	90,627136
1724,000000	90,311923
1723,000000	90,864046
1722,000000	89,445741
1721,000000	90,576921
1720,000000	90,015664
1719,000000	90,128323
1718,000000	90,815361
1717,000000	91,398920
1716,000000	90,415401
1715,000000	91,477220
1714,000000	91,501491
1713,000000	92,046826
1712,000000	91,108327
1711,000000	91,350713
1710,000000	91,134936
1709,000000	91,325662
1708,000000	90,554409
1707,000000	91,316775
1706,000000	91,752222
1705,000000	91,130603
1704,000000	91,736815
1703,000000	92,051753
1702,000000	92,207718
1701,000000	91,200078
1700,000000	91,151185
1699,000000	91,322233
1698,000000	93,438915
1697,000000	92,084030
1696,000000	91,691013
1695,000000	90,893252
1694,000000	91,004554
1693,000000	91,469281
1692,000000	92,491006
1691,000000	92,376027
1690,000000	92,438043
1689,000000	91,106026
1688,000000	91,141737
1687,000000	89,940331
1686,000000	90,689381
1685,000000	92,133731
1684,000000	91,960701
1683,000000	91,432119
1682,000000	91,253003
1681,000000	90,701612
1680,000000	91,022068
1679,000000	91,744690
1678,000000	93,200504
1677,000000	90,762709
1676,000000	93,059130
1675,000000	93,156294
1674,000000	92,242788
1673,000000	92,884553
1672,000000	92,141786
1671,000000	91,387705
1670,000000	93,896594
1669,000000	92,855743
1668,000000	91,843691
1667,000000	92,576527
1666,000000	92,654079
1665,000000	93,077224
1664,000000	92,622121
1663,000000	93,223684
1662,000000	92,305854
1661,000000	93,264837
1660,000000	92,270335
1659,000000	94,887416
1658,000000	94,650577
1657,000000	93,092173
1656,000000	93,643502
1655,000000	93,085438
1654,000000	94,017895
1653,000000	93,950599
1652,000000	94,751726
1651,000000	93,213325
1650,000000	94,138833
1649,000000	92,929994
1648,000000	94,107001
1647,000000	93,098812
1646,000000	92,880729
1645,000000	93,603341
1644,000000	94,089865
1643,000000	94,002682
1642,000000	94,248685
1641,000000	93,213754
1640,000000	92,303899
1639,000000	93,212207
1638,000000	92,777724
1637,000000	92,938029
1636,000000	93,935672
1635,000000	93,550814
1634,000000	93,645103
1633,000000	93,054286
1632,000000	93,132130
1631,000000	92,666090
1630,000000	92,138498
1629,000000	92,986464
1628,000000	92,424774
1627,000000	92,316342
1626,000000	92,151564
1625,000000	92,667407
1624,000000	92,489751
1623,000000	93,904596
1622,000000	93,352479
1621,000000	93,494193
1620,000000	93,445624
1619,000000	94,237830
1618,000000	92,480387
1617,000000	93,176441
1616,000000	92,138410
1615,000000	94,369990
1614,000000	93,169859
1613,000000	93,207360
1612,000000	92,611356
1611,000000	93,105254
1610,000000	93,569304
1609,000000	92,040360
1608,000000	92,353486
1607,000000	92,570379
1606,000000	93,119031
1605,000000	92,651443
1604,000000	91,831347
1603,000000	93,189638
1602,000000	94,006459
1601,000000	93,878644
1600,000000	93,077922
1599,000000	92,139407
1598,000000	93,635835
1597,000000	92,738742
1596,000000	92,762676
1595,000000	93,244867
1594,000000	93,102481
1593,000000	92,856441
1592,000000	92,570087
1591,000000	93,468083
1590,000000	92,942153
1589,000000	91,780003
1588,000000	93,004734
1587,000000	92,703548
1586,000000	93,040930
1585,000000	92,410206
1584,000000	91,730327
1583,000000	92,958540
1582,000000	92,803207
1581,000000	92,422366
1580,000000	91,891555
1579,000000	92,300346
1578,000000	91,485510
1577,000000	91,103663
1576,000000	90,891677
1575,000000	90,982081
1574,000000	92,175481
1573,000000	92,892821
1572,000000	92,337554
1571,000000	91,884730
1570,000000	92,074573
1569,000000	92,366705
1568,000000	92,180009
1567,000000	92,733607
1566,000000	92,685959
1565,000000	91,454814
1564,000000	92,766437
1563,000000	92,739519
1562,000000	92,167970
1561,000000	91,815115
1560,000000	92,084647
1559,000000	93,321392
1558,000000	92,821228
1557,000000	93,246319
1556,000000	92,727863
1555,000000	92,476443
1554,000000	92,134948
1553,000000	92,312606
1552,000000	93,058205
1551,000000	92,272009
1550,000000	92,091194
1549,000000	92,222046
1548,000000	92,774660
1547,000000	92,577213
1546,000000	91,121156
1545,000000	91,832173
1544,000000	92,577693
1543,000000	92,394602
1542,000000	92,418396
1541,000000	91,865153
1540,000000	91,046112
1539,000000	91,239575
1538,000000	91,132713
1537,000000	90,990507
1536,000000	90,762871
1535,000000	91,358863
1534,000000	91,962322
1533,000000	90,906912
1532,000000	91,010942
1531,000000	91,844212
1530,000000	91,837165
1529,000000	91,586614
1528,000000	91,447489
1527,000000	92,033317
1526,000000	91,820261
1525,000000	91,553963
1524,000000	91,780483
1523,000000	91,786070
1522,000000	91,620982
1521,000000	91,565070
1520,000000	91,764257
1519,000000	91,539625
1518,000000	91,351655
1517,000000	90,442084
1516,000000	91,057218
1515,000000	91,131450
1514,000000	90,610072
1513,000000	90,562322
1512,000000	90,205809
1511,000000	89,686135
1510,000000	90,349851
1509,000000	89,644618
1508,000000	89,340243
1507,000000	89,961748
1506,000000	90,834977
1505,000000	90,325013
1504,000000	90,098054
1503,000000	90,136367
1502,000000	89,810471
1501,000000	89,074577
1500,000000	90,015363
1499,000000	90,330024
1498,000000	88,909886
1497,000000	89,927836
1496,000000	90,906977
1495,000000	90,545160
1494,000000	89,444976
1493,000000	89,299883
1492,000000	90,196388
1491,000000	89,849712
1490,000000	89,854983
1489,000000	90,562612
1488,000000	90,286533
1487,000000	90,248605
1486,000000	89,797252
1485,000000	89,670570
1484,000000	89,731025
1483,000000	90,479087
1482,000000	89,361981
1481,000000	90,354264
1480,000000	90,794278
1479,000000	90,263119
1478,000000	89,239622
1477,000000	88,897396
1476,000000	88,459692
1475,000000	90,081520
1474,000000	91,059399
1473,000000	89,484258
1472,000000	90,470042
1471,000000	90,850783
1470,000000	90,678321
1469,000000	91,313075
1468,000000	90,598729
1467,000000	89,041299
1466,000000	89,717835
1465,000000	90,410600
1464,000000	90,830073
1463,000000	91,130195
1462,000000	91,254759
1461,000000	91,708204
1460,000000	90,725919
1459,000000	91,323309
1458,000000	92,209864
1457,000000	90,935853
1456,000000	92,105586
1455,000000	90,625431
1454,000000	91,038590
1453,000000	90,533694
1452,000000	91,191166
1451,000000	91,605172
1450,000000	92,468070
1449,000000	91,789846
1448,000000	91,397631
1447,000000	90,498281
1446,000000	90,162163
1445,000000	91,027154
1444,000000	91,260063
1443,000000	90,564325
1442,000000	90,909934
1441,000000	94,550736
1440,000000	92,530710
1439,000000	94,911843
1438,000000	93,735992
1437,000000	91,951636
1436,000000	90,991907
1435,000000	91,089354
1434,000000	91,297052
1433,000000	92,224938
1432,000000	93,753586
1431,000000	93,183245
1430,000000	92,347129
1429,000000	92,282547
1428,000000	92,065202
1427,000000	92,651427
1426,000000	92,020158
1425,000000	93,457739
1424,000000	92,397703
1423,000000	92,728305
1422,000000	93,609850
1421,000000	92,211538
1420,000000	93,671980
1419,000000	93,701597
1418,000000	92,748847
1417,000000	93,934324
1416,000000	93,641723
1415,000000	93,835009
1414,000000	95,026731
1413,000000	93,486195
1412,000000	93,766072
1411,000000	92,876787
1410,000000	94,216742
1409,000000	97,993552
1408,000000	94,406081
1407,000000	94,422169
1406,000000	95,643910
1405,000000	93,482706
1404,000000	93,206736
1403,000000	95,080203
1402,000000	94,917596
1401,000000	95,631733
1400,000000	103,371605
1399,000000	98,488796
1398,000000	96,274318
1397,000000	95,520679
1396,000000	91,555439
1395,000000	98,666339
1394,000000	96,537427
1393,000000	95,658628
1392,000000	93,537528
1391,000000	98,416221
1390,000000	98,491853
1389,000000	97,720349
1388,000000	93,836194
1387,000000	97,471245
1386,000000	95,807851
1385,000000	98,429026
1384,000000	96,468150
1383,000000	100,900282
1382,000000	107,364534
1381,000000	100,097750
1380,000000	108,797053
1379,000000	95,974800
1378,000000	101,391356
1377,000000	95,714853
1376,000000	97,630538
1375,000000	98,006705
1374,000000	98,605648
1373,000000	96,740078
1372,000000	96,891397
1371,000000	96,571068
1370,000000	96,252980
1369,000000	96,924195
1368,000000	101,203562
1367,000000	104,136318
1366,000000	96,344235
1365,000000	92,584957
1364,000000	101,142713
1363,000000	95,505517
1362,000000	93,197638
1361,000000	99,764830
1360,000000	100,347511
1359,000000	98,742515
1358,000000	96,290770
1357,000000	98,324047
1356,000000	97,235707
1355,000000	105,797793
1354,000000	101,111866
1353,000000	98,339408
1352,000000	95,825447
1351,000000	99,232587
1350,000000	97,030777
1349,000000	96,781929
1348,000000	97,769155
1347,000000	98,099403
1346,000000	98,351893
1345,000000	98,149809
1344,000000	98,544050
1343,000000	99,488771
1342,000000	98,685417
1341,000000	97,772378
1340,000000	98,166013
1339,000000	98,449151
1338,000000	98,713569
1337,000000	98,206711
1336,000000	98,877657
1335,000000	98,304310
1334,000000	99,631781
1333,000000	100,180420
1332,000000	98,798671
1331,000000	98,719171
1330,000000	99,003179
1329,000000	98,493484
1328,000000	98,019631
1327,000000	99,139695
1326,000000	98,504332
1325,000000	98,646869
1324,000000	97,906789
1323,000000	97,195774
1322,000000	97,788492
1321,000000	98,666321
1320,000000	99,170246
1319,000000	98,588414
1318,000000	98,758812
1317,000000	98,714567
1316,000000	98,676239
1315,000000	99,651353
1314,000000	99,404614
1313,000000	98,880275
1312,000000	99,022588
1311,000000	98,697074
1310,000000	98,108095
1309,000000	97,900461
1308,000000	98,063899
1307,000000	99,284299
1306,000000	98,832387
1305,000000	98,656213
1304,000000	99,339055
1303,000000	98,928456
1302,000000	98,854015
1301,000000	98,538434
1300,000000	97,648276
1299,000000	98,462575
1298,000000	98,868757
1297,000000	98,315976
1296,000000	98,674168
1295,000000	98,324093
1294,000000	98,484000
1293,000000	99,017875
1292,000000	98,963012
1291,000000	99,475801
1290,000000	99,637328
1289,000000	98,565243
1288,000000	97,929229
1287,000000	98,033318
1286,000000	98,112414
1285,000000	99,114297
1284,000000	99,727604
1283,000000	99,448488
1282,000000	98,544461
1281,000000	97,845991
1280,000000	97,780158
1279,000000	97,969940
1278,000000	98,394142
1277,000000	98,438030
1276,000000	97,978481
1275,000000	97,877722
1274,000000	98,315390
1273,000000	97,940057
1272,000000	97,929177
1271,000000	98,534451
1270,000000	98,989801
1269,000000	98,425148
1268,000000	97,961703
1267,000000	97,793008
1266,000000	97,993763
1265,000000	98,558070
1264,000000	99,090234
1263,000000	98,837099
1262,000000	97,767911
1261,000000	97,881258
1260,000000	98,725214
1259,000000	98,541847
1258,000000	98,590671
1257,000000	98,324804
1256,000000	98,494444
1255,000000	99,394518
1254,000000	99,376832
1253,000000	98,982811
1252,000000	99,430127
1251,000000	99,713283
1250,000000	98,886314
1249,000000	99,247192
1248,000000	98,801833
1247,000000	97,495699
1246,000000	98,267020
1245,000000	98,842912
1244,000000	98,373896
1243,000000	98,647675
1242,000000	99,244577
1241,000000	98,385940
1240,000000	98,116529
1239,000000	98,277629
1238,000000	98,228841
1237,000000	98,176210
1236,000000	98,109221
1235,000000	98,091170
1234,000000	97,946293
1233,000000	97,542954
1232,000000	98,205781
1231,000000	98,735377
1230,000000	98,477761
1229,000000	98,331013
1228,000000	98,584999
1227,000000	98,994149
1226,000000	98,843301
1225,000000	98,165068
1224,000000	97,641127
1223,000000	98,782585
1222,000000	98,411849
1221,000000	98,712536
1220,000000	98,606391
1219,000000	98,455692
1218,000000	98,351493
1217,000000	98,011675
1216,000000	99,588232
1215,000000	98,323396
1214,000000	98,131367
1213,000000	97,254228
1212,000000	97,504443
1211,000000	97,655140
1210,000000	97,636166
1209,000000	97,775815
1208,000000	97,005446
1207,000000	98,211287
1206,000000	98,621340
1205,000000	97,686975
1204,000000	98,945977
1203,000000	98,947896
1202,000000	97,734422
1201,000000	98,247586
1200,000000	98,316606
1199,000000	98,006021
1198,000000	98,299271
1197,000000	97,910735
1196,000000	98,278331
1195,000000	97,890878
1194,000000	97,707526
1193,000000	97,287049
1192,000000	98,667446
1191,000000	98,867661
1190,000000	98,034686
1189,000000	97,609788
1188,000000	97,402155
1187,000000	98,009799
1186,000000	97,348315
1185,000000	97,512920
1184,000000	97,741170
1183,000000	97,449698
1182,000000	97,746757
1181,000000	97,630150
1180,000000	99,164931
1179,000000	98,570969
1178,000000	98,119745
1177,000000	98,375475
1176,000000	98,267055
1175,000000	97,912779
1174,000000	98,298430
1173,000000	98,350272
1172,000000	98,051618
1171,000000	97,816791
1170,000000	97,428750
1169,000000	98,340804
1168,000000	98,695191
1167,000000	97,976294
1166,000000	97,152387
1165,000000	96,240116
1164,000000	97,346002
1163,000000	97,010407
1162,000000	97,272341
1161,000000	98,725588
1160,000000	97,774091
1159,000000	98,138782
1158,000000	96,706213
1157,000000	98,001271
1156,000000	98,787629
1155,000000	98,403255
1154,000000	99,007813
1153,000000	97,547582
1152,000000	99,206794
1151,000000	98,808202
1150,000000	97,651437
1149,000000	98,814002
1148,000000	98,596821
1147,000000	97,510514
1146,000000	98,792709
1145,000000	97,282315
1144,000000	99,489409
1143,000000	97,889312
1142,000000	99,676957
1141,000000	100,483488
1140,000000	98,128896
1139,000000	97,891642
1138,000000	99,545566
1137,000000	98,986283
1136,000000	97,701099
1135,000000	98,936487
1134,000000	99,449820
1133,000000	98,522390
1132,000000	99,260218
1131,000000	99,147172
1130,000000	99,503355
1129,000000	98,604382
1128,000000	99,480732
1127,000000	98,946039
1126,000000	99,112233
1125,000000	100,597570
1124,000000	98,342025
1123,000000	99,331598
1122,000000	99,743109
1121,000000	98,257590
1120,000000	100,370035
1119,000000	98,250181
1118,000000	99,344808
1117,000000	98,709217
1116,000000	98,384280
1115,000000	99,780077
1114,000000	98,672466
1113,000000	98,463539
1112,000000	98,852486
1111,000000	98,375625
1110,000000	99,737479
1109,000000	99,355967
1108,000000	97,862982
1107,000000	98,241820
1106,000000	98,408400
1105,000000	97,668586
1104,000000	99,284886
1103,000000	98,354971
1102,000000	97,081127
1101,000000	98,036978
1100,000000	98,298438
1099,000000	98,341270
1098,000000	99,443697
1097,000000	99,096813
1096,000000	99,001076
1095,000000	99,714302
1094,000000	98,547510
1093,000000	99,455189
1092,000000	97,816745
1091,000000	98,456351
1090,000000	98,419171
1089,000000	98,494596
1088,000000	98,220580
1087,000000	99,167220
1086,000000	99,383040
1085,000000	98,569334
1084,000000	98,943350
1083,000000	97,311582
1082,000000	98,227268
1081,000000	98,184666
1080,000000	98,709026
1079,000000	99,402035
1078,000000	98,467517
1077,000000	97,493521
1076,000000	98,574998
1075,000000	97,979175
1074,000000	98,769031
1073,000000	98,217211
1072,000000	97,777732
1071,000000	98,228015
1070,000000	98,811565
1069,000000	98,403475
1068,000000	98,434648
1067,000000	98,392150
1066,000000	99,497102
1065,000000	98,884980
1064,000000	97,699545
1063,000000	97,365311
1062,000000	98,052853
1061,000000	97,866071
1060,000000	98,438456
1059,000000	98,431590
1058,000000	97,573451
1057,000000	97,114012
1056,000000	97,285481
1055,000000	98,543120
1054,000000	98,103770
1053,000000	97,557731
1052,000000	97,285335
1051,000000	97,202853
1050,000000	97,698664
1049,000000	97,366711
1048,000000	97,827544
1047,000000	98,500174
1046,000000	98,663076
1045,000000	98,642633
1044,000000	97,878795
1043,000000	98,142865
1042,000000	98,645480
1041,000000	97,517820
1040,000000	98,039225
1039,000000	98,230871
1038,000000	97,712176
1037,000000	97,930949
1036,000000	97,863904
1035,000000	97,653369
1034,000000	97,612392
1033,000000	98,160691
1032,000000	98,316411
1031,000000	97,113688
1030,000000	97,394622
1029,000000	97,386800
1028,000000	96,788786
1027,000000	97,486787
1026,000000	97,414697
1025,000000	97,866184
1024,000000	98,638383
1023,000000	98,607222
1022,000000	97,798963
1021,000000	98,258959
1020,000000	97,828668
1019,000000	97,164051
1018,000000	97,012271
1017,000000	96,993363
1016,000000	97,451485
1015,000000	98,039830
1014,000000	97,970693
1013,000000	98,067794
1012,000000	97,479546
1011,000000	97,600073
1010,000000	97,377836
1009,000000	96,836498
1008,000000	98,077696
1007,000000	98,519544
1006,000000	98,004864
1005,000000	97,751885
1004,000000	96,919094
1003,000000	96,719931
1002,000000	96,914533
1001,000000	96,532087
1000,000000	96,977554
999,000000	97,576812
998,000000	96,605793
997,000000	96,504634
996,000000	97,164369
995,000000	97,430448
994,000000	97,287775
993,000000	97,500148
992,000000	97,305557
991,000000	96,990652
990,000000	95,913681
989,000000	95,969030
988,000000	96,780970
987,000000	96,721442
986,000000	96,522766
985,000000	96,343715
984,000000	96,847915
983,000000	97,530430
982,000000	97,239522
981,000000	97,403046
980,000000	97,577060
979,000000	96,646282
978,000000	96,312498
977,000000	96,505659
976,000000	96,166016
975,000000	95,682448
974,000000	95,506246
973,000000	95,676644
972,000000	96,058609
971,000000	96,418668
970,000000	96,551351
969,000000	96,766551
968,000000	95,730523
967,000000	95,579202
966,000000	95,837236
965,000000	96,190492
964,000000	97,095213
963,000000	96,366480
962,000000	95,399994
961,000000	95,574296
960,000000	95,663571
959,000000	95,465516
958,000000	95,279876
957,000000	95,202482
956,000000	95,586119
955,000000	95,588348
954,000000	95,095506
953,000000	94,926777
952,000000	95,222056
951,000000	95,714800
950,000000	95,580141
949,000000	95,906311
948,000000	95,216843
947,000000	96,158880
946,000000	96,841617
945,000000	96,339622
944,000000	94,933326
943,000000	94,476174
942,000000	95,116404
941,000000	96,108359
940,000000	95,146582
939,000000	95,744505
938,000000	94,372400
937,000000	94,883653
936,000000	95,038758
935,000000	95,425299
934,000000	95,639085
933,000000	94,677631
932,000000	94,637779
931,000000	95,195114
930,000000	94,411416
929,000000	93,938855
928,000000	94,213459
927,000000	95,765564
926,000000	95,088760
925,000000	94,202822
924,000000	93,330817
923,000000	93,157532
922,000000	93,030855
921,000000	94,086020
920,000000	93,916690
919,000000	93,714733
918,000000	93,300538
917,000000	92,496931
916,000000	93,723300
915,000000	93,357868
914,000000	94,878941
913,000000	94,476102
912,000000	93,216357
911,000000	93,278943
910,000000	93,457612
909,000000	92,782070
908,000000	92,786243
907,000000	92,268485
906,000000	93,398164
905,000000	92,757259
904,000000	92,434616
903,000000	92,173318
902,000000	93,356905
901,000000	93,406507
900,000000	93,386526
899,000000	92,641158
898,000000	92,593207
897,000000	92,772483
896,000000	92,261839
895,000000	92,094366
894,000000	91,549499
893,000000	90,532431
892,000000	91,618519
891,000000	92,208828
890,000000	91,769948
889,000000	91,771246
888,000000	91,342095
887,000000	91,722063
886,000000	91,424135
885,000000	91,673478
884,000000	92,303294
883,000000	91,073538
882,000000	91,549315
881,000000	91,560122
880,000000	89,718545
879,000000	89,900788
878,000000	91,099932
877,000000	91,187170
876,000000	90,970689
875,000000	90,938634
874,000000	89,420704
873,000000	90,558259
872,000000	89,756552
871,000000	90,165864
870,000000	90,447083
869,000000	89,729991
868,000000	90,353060
867,000000	90,019851
866,000000	88,560902
865,000000	88,263277
864,000000	89,088690
863,000000	89,096456
862,000000	89,727100
861,000000	90,453191
860,000000	88,615427
859,000000	89,725455
858,000000	89,275044
857,000000	89,811729
856,000000	89,622112
855,000000	89,395602
854,000000	88,983929
853,000000	89,085418
852,000000	88,679892
851,000000	88,981982
850,000000	89,449473
849,000000	88,887613
848,000000	88,506346
847,000000	88,638482
846,000000	88,248283
845,000000	88,204708
844,000000	87,937186
843,000000	87,705212
842,000000	87,918372
841,000000	87,816426
840,000000	87,303094
839,000000	87,348642
838,000000	87,125985
837,000000	87,059422
836,000000	86,776839
835,000000	86,782004
834,000000	86,432210
833,000000	86,570377
832,000000	86,128606
831,000000	86,174611
830,000000	86,105283
829,000000	85,918882
828,000000	85,636687
827,000000	85,709162
826,000000	85,685001
825,000000	85,337705
824,000000	85,031141
823,000000	84,964218
822,000000	84,667056
821,000000	84,768974
820,000000	84,608436
819,000000	84,251142
818,000000	84,208566
817,000000	83,972468
816,000000	83,959259
815,000000	83,731443
814,000000	83,614139
813,000000	83,575198
812,000000	83,307135
811,000000	83,080168
810,000000	82,943906
809,000000	82,704222
808,000000	82,327957
807,000000	82,376915
806,000000	82,167101
805,000000	81,997631
804,000000	81,924561
803,000000	81,842744
802,000000	81,533762
801,000000	81,275549
800,000000	81,089496
799,000000	81,030647
798,000000	80,688796
797,000000	80,465989
796,000000	80,199906
795,000000	80,088203
794,000000	79,992454
793,000000	79,787584
792,000000	79,684504
791,000000	79,487746
790,000000	79,213243
789,000000	79,061767
788,000000	79,011075
787,000000	78,739550
786,000000	78,446089
785,000000	78,386833
784,000000	78,034474
783,000000	77,832582
782,000000	77,724127
781,000000	77,511885
780,000000	77,394365
779,000000	77,138746
778,000000	76,978395
777,000000	76,850629
776,000000	76,565930
775,000000	76,409973
774,000000	76,245267
773,000000	76,030744
772,000000	75,841715
771,000000	75,593245
770,000000	75,378377
769,000000	75,247753
768,000000	74,867209
767,000000	74,600572
766,000000	74,368472
765,000000	74,260797
764,000000	74,055479
763,000000	73,779166
762,000000	73,593269
761,000000	73,336918
760,000000	73,170024
759,000000	72,971594
758,000000	72,590318
757,000000	72,376797
756,000000	72,260265
755,000000	72,108975
754,000000	71,781969
753,000000	71,517869
752,000000	71,350248
751,000000	71,124791
750,000000	70,948852
749,000000	70,751832
748,000000	70,520863
747,000000	70,261238
746,000000	70,053999
745,000000	69,779634
744,000000	69,499907
743,000000	69,301610
742,000000	69,021745
741,000000	68,733281
740,000000	68,546888
739,000000	68,323393
738,000000	68,062594
737,000000	67,843126
736,000000	67,585129
735,000000	67,285438
734,000000	67,046978
733,000000	66,848928
732,000000	66,596101
731,000000	66,312333
730,000000	66,059264
729,000000	65,818513
728,000000	65,567428
727,000000	65,319527
726,000000	65,097492
725,000000	64,841662
724,000000	64,602208
723,000000	64,343175
722,000000	64,037580
721,000000	63,715974
720,000000	63,448880
719,000000	63,166016
718,000000	62,934371
717,000000	62,754016
716,000000	62,500342
715,000000	62,194748
714,000000	61,946296
713,000000	61,649901
712,000000	61,319632
711,000000	61,002523
710,000000	60,717427
709,000000	60,470483
708,000000	60,193877
707,000000	59,931622
706,000000	59,647134
705,000000	59,308895
704,000000	59,018467
703,000000	58,740066
702,000000	58,462351
701,000000	58,200113
700,000000	57,880080
699,000000	57,561590
698,000000	57,250864
697,000000	56,938112
696,000000	56,657342
695,000000	56,363785
694,000000	56,057750
693,000000	55,755962
692,000000	55,435892
691,000000	55,121313
690,000000	54,796858
689,000000	54,448347
688,000000	54,104969
687,000000	53,851083
686,000000	53,566940
685,000000	53,188193
684,000000	52,849962
683,000000	52,525832
682,000000	52,160652
681,000000	51,831405
680,000000	51,475236
679,000000	51,136907
678,000000	50,828583
677,000000	50,509108
676,000000	50,122247
675,000000	49,807063
674,000000	49,468381
673,000000	49,153555
672,000000	48,874665
671,000000	48,470792
670,000000	48,082910
669,000000	47,709691
668,000000	47,329606
667,000000	46,971230
666,000000	46,615552
665,000000	46,287257
664,000000	45,942126
663,000000	45,563431
662,000000	45,204374
661,000000	44,794306
660,000000	44,368621
659,000000	43,979295
658,000000	43,590641
657,000000	43,207498
656,000000	42,838222
655,000000	42,435536
654,000000	42,052442
653,000000	41,689105
652,000000	41,301464
651,000000	40,930197
650,000000	40,534759
649,000000	40,181480
648,000000	39,808032
647,000000	39,412956
646,000000	39,056542
645,000000	38,722811
644,000000	38,372232
643,000000	38,005901
642,000000	37,639021
641,000000	37,261258
640,000000	36,934506
639,000000	36,568104
638,000000	36,218600
637,000000	35,863389
636,000000	35,508685
635,000000	35,184692
634,000000	34,840430
633,000000	34,466364
632,000000	34,102897
631,000000	33,749430
630,000000	33,385392
629,000000	33,018504
628,000000	32,680170
627,000000	32,330731
626,000000	31,980278
625,000000	31,624972
624,000000	31,301142
623,000000	30,968670
622,000000	30,617760
621,000000	30,315406
620,000000	30,011670
619,000000	29,727039
618,000000	29,424018
617,000000	29,133273
616,000000	28,848731
615,000000	28,605269
614,000000	28,275469
613,000000	28,005036
612,000000	27,694582
611,000000	27,426430
610,000000	27,094574
609,000000	26,762713
608,000000	26,424515
607,000000	26,088437
606,000000	25,730229
605,000000	25,373796
604,000000	25,021211
603,000000	24,643996
602,000000	24,259653
601,000000	23,865708
600,000000	23,460510
599,000000	23,074776
598,000000	22,712223
597,000000	22,368743
596,000000	22,007036
595,000000	21,664407
594,000000	21,310528
593,000000	20,987364
592,000000	20,680606
591,000000	20,424859
590,000000	20,169174
589,000000	19,899136
588,000000	19,670384
587,000000	19,424872
586,000000	19,244887
585,000000	19,037391
584,000000	18,845629
583,000000	18,633682
582,000000	18,415221
581,000000	18,219835
580,000000	18,002172
579,000000	17,736456
578,000000	17,500522
577,000000	17,243891
576,000000	16,955565
575,000000	16,643311
574,000000	16,350776
573,000000	16,014302
572,000000	15,676714
571,000000	15,327248
570,000000	14,973833
569,000000	14,640164
568,000000	14,313534
567,000000	13,995373
566,000000	13,701022
565,000000	13,407651
564,000000	13,187504
563,000000	12,980118
562,000000	12,807427
561,000000	12,670965
560,000000	12,578817
559,000000	12,560313
558,000000	12,553997
557,000000	12,593678
556,000000	12,703773
555,000000	12,809714
554,000000	12,950341
553,000000	13,087015
552,000000	13,258290
551,000000	13,486236
550,000000	13,697241
549,000000	13,903027
548,000000	14,105961
547,000000	14,313432
546,000000	14,511014
545,000000	14,686876
544,000000	14,852299
543,000000	15,017550
542,000000	15,163830
541,000000	15,289543
540,000000	15,405843
539,000000	15,481917
538,000000	15,515126
537,000000	15,554242
536,000000	15,536756
535,000000	15,515125
534,000000	15,457577
533,000000	15,390363
532,000000	15,288439
531,000000	15,172083
530,000000	15,007566
529,000000	14,823391
528,000000	14,633556
527,000000	14,416492
526,000000	14,172198
525,000000	13,922048
524,000000	13,660461
523,000000	13,363134
522,000000	13,076438
521,000000	12,765214
520,000000	12,448794
519,000000	12,127884
518,000000	11,808890
517,000000	11,486277
516,000000	11,181951
515,000000	10,864762
514,000000	10,560159
513,000000	10,251816
512,000000	9,941632
511,000000	9,661328
510,000000	9,384207
509,000000	9,114561
508,000000	8,840031
507,000000	8,596246
506,000000	8,362604
505,000000	8,140417
504,000000	7,912693
503,000000	7,705838
502,000000	7,511142
501,000000	7,326719
500,000000	7,155713
499,000000	6,998007
498,000000	6,844775
497,000000	6,707354
496,000000	6,581046
495,000000	6,465777
494,000000	6,352889
493,000000	6,256685
492,000000	6,157041
491,000000	6,070547
490,000000	6,000099
489,000000	5,932606
488,000000	5,855278
487,000000	5,799504
486,000000	5,753412
485,000000	5,709543
484,000000	5,666956
483,000000	5,624333
482,000000	5,586675
481,000000	5,553348
480,000000	5,530056
479,000000	5,514937
478,000000	5,496958
477,000000	5,476284
476,000000	5,458605
475,000000	5,445015
474,000000	5,436398
473,000000	5,424210
472,000000	5,419580
471,000000	5,405535
470,000000	5,400786
469,000000	5,407123
468,000000	5,400048
467,000000	5,396243
466,000000	5,398076
465,000000	5,383817
464,000000	5,379404
463,000000	5,375643
462,000000	5,362778
461,000000	5,359377
460,000000	5,365300
459,000000	5,360990
458,000000	5,359297
457,000000	5,355431
456,000000	5,345579
455,000000	5,346876
454,000000	5,348909
453,000000	5,354145
452,000000	5,358953
451,000000	5,348615
450,000000	5,339550
449,000000	5,341428
448,000000	5,348364
447,000000	5,349330
446,000000	5,332418
445,000000	5,338890
444,000000	5,336762
443,000000	5,315750
442,000000	5,309437
441,000000	5,308777
440,000000	5,304069
439,000000	5,306213
438,000000	5,297786
437,000000	5,294485
436,000000	5,311677
435,000000	5,309866
434,000000	5,304783
433,000000	5,306918
432,000000	5,306795
431,000000	5,308942
430,000000	5,307473
429,000000	5,296260
428,000000	5,290716
427,000000	5,298460
426,000000	5,291357
425,000000	5,282221
424,000000	5,280065
423,000000	5,278440
422,000000	5,274009
421,000000	5,279506
420,000000	5,268094
419,000000	5,258914
418,000000	5,266697
417,000000	5,266018
416,000000	5,267730
415,000000	5,273710
414,000000	5,276177
413,000000	5,267920
412,000000	5,264232
411,000000	5,256528
410,000000	5,265877
409,000000	5,268463
408,000000	5,266806
407,000000	5,264434
406,000000	5,244670
405,000000	5,250884
404,000000	5,263126
403,000000	5,254651
402,000000	5,248909
401,000000	5,251313
400,000000	5,245670
399,000000	5,244955
398,000000	5,250794
397,000000	5,262815
396,000000	5,267301
395,000000	5,255903
394,000000	5,251749
393,000000	5,264415
392,000000	5,268910
391,000000	5,263848
390,000000	5,265784
389,000000	5,269558
388,000000	5,263693
387,000000	5,254927
386,000000	5,254949
385,000000	5,265959
384,000000	5,272516
383,000000	5,270564
382,000000	5,279393
381,000000	5,284538
380,000000	5,300408
379,000000	5,307053
378,000000	5,302056
377,000000	5,307680
376,000000	5,446823
375,000000	5,566934
374,000000	5,580111
373,000000	5,570066
372,000000	5,590834
371,000000	5,587719
370,000000	5,623128
369,000000	5,584524
368,000000	5,573678
367,000000	5,652305
366,000000	5,592608
365,000000	5,584231
364,000000	5,632418
363,000000	5,629321
362,000000	5,585059
361,000000	5,616152
360,000000	5,598564
359,000000	5,647536
358,000000	5,677007
357,000000	5,646184
356,000000	5,639079
355,000000	5,695294
354,000000	5,611450
353,000000	5,598155
352,000000	5,685096
351,000000	5,682475
350,000000	5,596162
349,000000	5,620357
348,000000	5,658430
347,000000	5,637429
346,000000	5,650744
345,000000	5,646315
344,000000	5,664803
343,000000	5,627671
342,000000	5,644546
341,000000	5,687292
340,000000	5,668545
339,000000	5,624412
338,000000	5,717004
337,000000	5,736050
336,000000	5,662198
335,000000	5,623310
334,000000	5,642502
333,000000	5,547500
332,000000	5,633585
331,000000	5,612422
330,000000	5,695740
329,000000	5,572442
328,000000	5,623218
327,000000	5,721370
326,000000	5,897611
325,000000	5,832516
324,000000	5,803860
323,000000	5,584194
322,000000	5,924613
321,000000	5,672716
320,000000	5,817925
319,000000	5,792261
318,000000	5,913011
317,000000	5,828734
316,000000	5,559066
315,000000	5,486639
314,000000	5,557990
313,000000	5,575911
312,000000	5,531366
311,000000	5,568591
310,000000	5,562535
309,000000	5,691159
308,000000	5,673417
307,000000	5,604546
306,000000	5,649606
305,000000	5,755147
304,000000	5,703524
303,000000	5,675445
302,000000	5,677451
301,000000	5,720143
300,000000	5,765657
299,000000	5,700058
298,000000	5,702148
297,000000	5,683205
296,000000	5,651931
295,000000	5,696309
294,000000	5,704132
293,000000	5,713844
292,000000	5,761298
291,000000	5,763563
290,000000	5,716854
289,000000	5,778396
288,000000	5,725414
287,000000	5,802154
286,000000	5,761065
285,000000	5,772744
284,000000	5,769715
283,000000	5,782390
282,000000	5,837001
281,000000	5,826329
280,000000	5,858136
279,000000	5,856882
278,000000	5,835942
277,000000	5,868115
276,000000	5,808897
275,000000	5,827087
274,000000	5,783558
273,000000	5,934655
272,000000	5,948677
271,000000	5,917829
270,000000	5,913766
269,000000	5,911968
268,000000	5,964080
267,000000	5,926044
266,000000	6,034496
265,000000	5,991471
264,000000	5,989640
263,000000	6,080835
262,000000	6,015858
261,000000	6,071942
260,000000	6,128247
259,000000	6,136792
258,000000	6,145245
257,000000	6,123304
256,000000	6,214487
255,000000	6,185133
254,000000	6,277571
253,000000	6,276570
252,000000	6,313017
251,000000	6,420938
250,000000	6,431798
