PE UV       SUBTECH     SPECTRUM    ASCII       PEDS        4.00        
   -1
CICIMAUCR0204-1.Sample.ASC
24/05/31
11:40:38.00
24/05/31
11:40:38.00
Vinicio Soto Monge
C. cupreomarginata. Sex M. Dorsal
250,000000
1
Lambda 1050
1050L1511233
PerkinElmer UV WinLab 6.3.2.0749 / 2.02.05 Lambda 900 UV/VIS/NIR, Aug  7 2015 09:38:08

0
0
3350/servo 860,8/2
0
0
UV/VIS
1
1
1
DoubleDePol,CommonBeamDepol,RBeamAtt,SBeamAtt,60mm sphere, WB InGaAs Detector
0
0
0
0
Program
Program
3350/servo 860,8/2
3350/0,2 860,8/0,2
3350/0,2 860,8/0,2
0
15.00
 
 
 
0
 
860,8
319,2
860,8
Front
100
on
S:100 R:100
0
0
0
0
 
0
 
 
 
0
 
 
0
0
0
0
0
 
 
 
 
0
0


0
0
#HDR
-1
-1
#GR
nm
%R
1.0
0.0
2500,000000
-1,000000
2251
8
68,478300
5,084100
#DATA
2500,000000	10,415900
2499,000000	10,504700
2498,000000	10,496700
2497,000000	10,438800
2496,000000	10,306600
2495,000000	10,317200
2494,000000	10,259300
2493,000000	10,262500
2492,000000	10,315800
2491,000000	10,321000
2490,000000	10,276900
2489,000000	10,284200
2488,000000	10,244600
2487,000000	10,252300
2486,000000	10,214300
2485,000000	10,258000
2484,000000	10,192400
2483,000000	10,244600
2482,000000	10,238500
2481,000000	10,235900
2480,000000	10,224600
2479,000000	10,225400
2478,000000	10,242400
2477,000000	10,253500
2476,000000	10,288100
2475,000000	10,263600
2474,000000	10,276200
2473,000000	10,280700
2472,000000	10,294300
2471,000000	10,309900
2470,000000	10,281400
2469,000000	10,294100
2468,000000	10,319600
2467,000000	10,307100
2466,000000	10,366200
2465,000000	10,370100
2464,000000	10,385600
2463,000000	10,438500
2462,000000	10,486400
2461,000000	10,510500
2460,000000	10,563600
2459,000000	10,606600
2458,000000	10,683800
2457,000000	10,742600
2456,000000	10,748400
2455,000000	10,842500
2454,000000	10,911200
2453,000000	10,998700
2452,000000	11,081900
2451,000000	11,134000
2450,000000	11,231300
2449,000000	11,322500
2448,000000	11,382800
2447,000000	11,488200
2446,000000	11,576300
2445,000000	11,646300
2444,000000	11,730600
2443,000000	11,788900
2442,000000	11,870000
2441,000000	11,962900
2440,000000	12,010500
2439,000000	12,082800
2438,000000	12,185800
2437,000000	12,256400
2436,000000	12,317100
2435,000000	12,380400
2434,000000	12,454100
2433,000000	12,527700
2432,000000	12,580600
2431,000000	12,627800
2430,000000	12,680800
2429,000000	12,745800
2428,000000	12,804000
2427,000000	12,837400
2426,000000	12,884500
2425,000000	12,932200
2424,000000	12,968000
2423,000000	13,015000
2422,000000	13,054200
2421,000000	13,086300
2420,000000	13,111700
2419,000000	13,164800
2418,000000	13,206700
2417,000000	13,256400
2416,000000	13,284900
2415,000000	13,310900
2414,000000	13,331800
2413,000000	13,374600
2412,000000	13,407600
2411,000000	13,432800
2410,000000	13,462800
2409,000000	13,483000
2408,000000	13,516800
2407,000000	13,547200
2406,000000	13,584500
2405,000000	13,619600
2404,000000	13,657000
2403,000000	13,694300
2402,000000	13,745200
2401,000000	13,803800
2400,000000	13,854000
2399,000000	13,891200
2398,000000	13,915000
2397,000000	13,934000
2396,000000	13,957200
2395,000000	13,997800
2394,000000	14,027000
2393,000000	14,052500
2392,000000	14,086700
2391,000000	14,119900
2390,000000	14,138100
2389,000000	14,168600
2388,000000	14,203400
2387,000000	14,212300
2386,000000	14,215200
2385,000000	14,224000
2384,000000	14,220800
2383,000000	14,236500
2382,000000	14,258700
2381,000000	14,256900
2380,000000	14,242600
2379,000000	14,239000
2378,000000	14,232200
2377,000000	14,231200
2376,000000	14,224000
2375,000000	14,200800
2374,000000	14,191300
2373,000000	14,180100
2372,000000	14,152600
2371,000000	14,137700
2370,000000	14,111800
2369,000000	14,073800
2368,000000	14,035800
2367,000000	13,989900
2366,000000	13,947700
2365,000000	13,897100
2364,000000	13,846400
2363,000000	13,795200
2362,000000	13,733600
2361,000000	13,687300
2360,000000	13,643600
2359,000000	13,591000
2358,000000	13,530100
2357,000000	13,479100
2356,000000	13,451600
2355,000000	13,425200
2354,000000	13,396500
2353,000000	13,375600
2352,000000	13,363500
2351,000000	13,356600
2350,000000	13,367300
2349,000000	13,398500
2348,000000	13,441400
2347,000000	13,467200
2346,000000	13,492400
2345,000000	13,544900
2344,000000	13,586800
2343,000000	13,634200
2342,000000	13,665000
2341,000000	13,700600
2340,000000	13,742000
2339,000000	13,753200
2338,000000	13,763100
2337,000000	13,789300
2336,000000	13,775100
2335,000000	13,766400
2334,000000	13,771500
2333,000000	13,740100
2332,000000	13,709100
2331,000000	13,666600
2330,000000	13,624700
2329,000000	13,570200
2328,000000	13,510300
2327,000000	13,446800
2326,000000	13,385500
2325,000000	13,299600
2324,000000	13,205900
2323,000000	13,102700
2322,000000	13,012200
2321,000000	12,904200
2320,000000	12,789000
2319,000000	12,670600
2318,000000	12,539500
2317,000000	12,407400
2316,000000	12,286200
2315,000000	12,154600
2314,000000	12,043600
2313,000000	11,932300
2312,000000	11,814800
2311,000000	11,716100
2310,000000	11,619300
2309,000000	11,544100
2308,000000	11,489200
2307,000000	11,449300
2306,000000	11,423000
2305,000000	11,411500
2304,000000	11,429600
2303,000000	11,454300
2302,000000	11,506900
2301,000000	11,566800
2300,000000	11,634000
2299,000000	11,715300
2298,000000	11,827800
2297,000000	11,914500
2296,000000	12,011600
2295,000000	12,087800
2294,000000	12,163300
2293,000000	12,231400
2292,000000	12,289500
2291,000000	12,344700
2290,000000	12,373200
2289,000000	12,405900
2288,000000	12,413600
2287,000000	12,424400
2286,000000	12,404600
2285,000000	12,377800
2284,000000	12,330100
2283,000000	12,280800
2282,000000	12,241100
2281,000000	12,192200
2280,000000	12,119500
2279,000000	12,056200
2278,000000	12,002100
2277,000000	11,947000
2276,000000	11,893400
2275,000000	11,836000
2274,000000	11,808000
2273,000000	11,783500
2272,000000	11,750900
2271,000000	11,743600
2270,000000	11,773200
2269,000000	11,808800
2268,000000	11,826600
2267,000000	11,898300
2266,000000	12,000700
2265,000000	12,117100
2264,000000	12,250900
2263,000000	12,390500
2262,000000	12,563900
2261,000000	12,768400
2260,000000	12,971500
2259,000000	13,210600
2258,000000	13,455200
2257,000000	13,667700
2256,000000	13,933300
2255,000000	14,172200
2254,000000	14,403200
2253,000000	14,642500
2252,000000	14,868300
2251,000000	15,092000
2250,000000	15,296100
2249,000000	15,469700
2248,000000	15,662700
2247,000000	15,845100
2246,000000	16,002100
2245,000000	16,171300
2244,000000	16,279300
2243,000000	16,395600
2242,000000	16,509700
2241,000000	16,599500
2240,000000	16,690200
2239,000000	16,793400
2238,000000	16,860200
2237,000000	16,951400
2236,000000	16,995600
2235,000000	17,085000
2234,000000	17,120100
2233,000000	17,149000
2232,000000	17,196700
2231,000000	17,251900
2230,000000	17,249800
2229,000000	17,269900
2228,000000	17,266500
2227,000000	17,279500
2226,000000	17,292300
2225,000000	17,276800
2224,000000	17,269900
2223,000000	17,264800
2222,000000	17,219700
2221,000000	17,172200
2220,000000	17,187600
2219,000000	17,165400
2218,000000	17,117400
2217,000000	17,080200
2216,000000	17,050200
2215,000000	17,019200
2214,000000	16,998500
2213,000000	16,954600
2212,000000	16,917600
2211,000000	16,895200
2210,000000	16,877200
2209,000000	16,833300
2208,000000	16,819400
2207,000000	16,810400
2206,000000	16,761900
2205,000000	16,731600
2204,000000	16,728200
2203,000000	16,707200
2202,000000	16,688700
2201,000000	16,672000
2200,000000	16,637900
2199,000000	16,637000
2198,000000	16,610300
2197,000000	16,578800
2196,000000	16,584900
2195,000000	16,560900
2194,000000	16,541600
2193,000000	16,547800
2192,000000	16,519900
2191,000000	16,523600
2190,000000	16,511100
2189,000000	16,484600
2188,000000	16,482600
2187,000000	16,463500
2186,000000	16,434400
2185,000000	16,419100
2184,000000	16,415100
2183,000000	16,404600
2182,000000	16,384400
2181,000000	16,399500
2180,000000	16,377300
2179,000000	16,367700
2178,000000	16,355900
2177,000000	16,336100
2176,000000	16,333000
2175,000000	16,349600
2174,000000	16,358600
2173,000000	16,339900
2172,000000	16,333000
2171,000000	16,342900
2170,000000	16,378500
2169,000000	16,384500
2168,000000	16,380100
2167,000000	16,394600
2166,000000	16,405200
2165,000000	16,442300
2164,000000	16,455700
2163,000000	16,479700
2162,000000	16,507500
2161,000000	16,530900
2160,000000	16,560300
2159,000000	16,603400
2158,000000	16,646900
2157,000000	16,689700
2156,000000	16,726700
2155,000000	16,765300
2154,000000	16,786700
2153,000000	16,827500
2152,000000	16,885000
2151,000000	16,939700
2150,000000	16,970700
2149,000000	16,995800
2148,000000	17,048100
2147,000000	17,076900
2146,000000	17,099100
2145,000000	17,161000
2144,000000	17,202500
2143,000000	17,242000
2142,000000	17,261900
2141,000000	17,285800
2140,000000	17,311000
2139,000000	17,346900
2138,000000	17,372700
2137,000000	17,400200
2136,000000	17,433400
2135,000000	17,435800
2134,000000	17,455700
2133,000000	17,462800
2132,000000	17,471500
2131,000000	17,476400
2130,000000	17,489100
2129,000000	17,493800
2128,000000	17,489300
2127,000000	17,493200
2126,000000	17,461100
2125,000000	17,450200
2124,000000	17,454300
2123,000000	17,449800
2122,000000	17,428100
2121,000000	17,408600
2120,000000	17,387300
2119,000000	17,360100
2118,000000	17,331900
2117,000000	17,297200
2116,000000	17,263400
2115,000000	17,244400
2114,000000	17,209700
2113,000000	17,166100
2112,000000	17,133600
2111,000000	17,097800
2110,000000	17,071800
2109,000000	17,037200
2108,000000	16,996900
2107,000000	16,946600
2106,000000	16,903800
2105,000000	16,889200
2104,000000	16,859400
2103,000000	16,802500
2102,000000	16,760400
2101,000000	16,727800
2100,000000	16,705800
2099,000000	16,659200
2098,000000	16,624200
2097,000000	16,590800
2096,000000	16,546600
2095,000000	16,518200
2094,000000	16,487700
2093,000000	16,448600
2092,000000	16,425000
2091,000000	16,416400
2090,000000	16,375500
2089,000000	16,331300
2088,000000	16,307400
2087,000000	16,282300
2086,000000	16,247100
2085,000000	16,208400
2084,000000	16,177900
2083,000000	16,153200
2082,000000	16,119800
2081,000000	16,063800
2080,000000	16,009200
2079,000000	15,974100
2078,000000	15,919200
2077,000000	15,874400
2076,000000	15,839900
2075,000000	15,770600
2074,000000	15,710200
2073,000000	15,674300
2072,000000	15,614500
2071,000000	15,563300
2070,000000	15,521300
2069,000000	15,466800
2068,000000	15,422500
2067,000000	15,363800
2066,000000	15,305500
2065,000000	15,243300
2064,000000	15,184300
2063,000000	15,135400
2062,000000	15,086700
2061,000000	15,047700
2060,000000	14,989300
2059,000000	14,960400
2058,000000	14,945300
2057,000000	14,927500
2056,000000	14,920400
2055,000000	14,901400
2054,000000	14,909800
2053,000000	14,935900
2052,000000	14,946800
2051,000000	14,970600
2050,000000	15,004000
2049,000000	15,044000
2048,000000	15,092800
2047,000000	15,153900
2046,000000	15,208600
2045,000000	15,279600
2044,000000	15,357400
2043,000000	15,415200
2042,000000	15,492500
2041,000000	15,556000
2040,000000	15,625600
2039,000000	15,693900
2038,000000	15,751600
2037,000000	15,808100
2036,000000	15,865500
2035,000000	15,917900
2034,000000	15,979400
2033,000000	16,018100
2032,000000	16,049100
2031,000000	16,087200
2030,000000	16,121300
2029,000000	16,151000
2028,000000	16,178600
2027,000000	16,189200
2026,000000	16,207800
2025,000000	16,227700
2024,000000	16,260000
2023,000000	16,270900
2022,000000	16,254900
2021,000000	16,270700
2020,000000	16,289300
2019,000000	16,281300
2018,000000	16,303100
2017,000000	16,283500
2016,000000	16,267700
2015,000000	16,265900
2014,000000	16,243900
2013,000000	16,224600
2012,000000	16,194900
2011,000000	16,169800
2010,000000	16,147700
2009,000000	16,116200
2008,000000	16,080600
2007,000000	16,064600
2006,000000	16,038700
2005,000000	15,982800
2004,000000	15,946700
2003,000000	15,880200
2002,000000	15,829700
2001,000000	15,779700
2000,000000	15,721400
1999,000000	15,657200
1998,000000	15,609500
1997,000000	15,542300
1996,000000	15,483700
1995,000000	15,424700
1994,000000	15,332000
1993,000000	15,271500
1992,000000	15,200400
1991,000000	15,117500
1990,000000	15,050500
1989,000000	14,988900
1988,000000	14,916200
1987,000000	14,827900
1986,000000	14,734100
1985,000000	14,650700
1984,000000	14,564400
1983,000000	14,494200
1982,000000	14,414600
1981,000000	14,319600
1980,000000	14,235200
1979,000000	14,157100
1978,000000	14,091900
1977,000000	13,981300
1976,000000	13,915900
1975,000000	13,833700
1974,000000	13,757200
1973,000000	13,676100
1972,000000	13,600100
1971,000000	13,535600
1970,000000	13,465000
1969,000000	13,384800
1968,000000	13,303400
1967,000000	13,241900
1966,000000	13,177200
1965,000000	13,098900
1964,000000	13,036000
1963,000000	12,967800
1962,000000	12,897600
1961,000000	12,823300
1960,000000	12,764200
1959,000000	12,684800
1958,000000	12,626400
1957,000000	12,562700
1956,000000	12,505600
1955,000000	12,428600
1954,000000	12,396100
1953,000000	12,321100
1952,000000	12,261500
1951,000000	12,203700
1950,000000	12,153900
1949,000000	12,099300
1948,000000	12,047500
1947,000000	12,029700
1946,000000	11,969400
1945,000000	11,960200
1944,000000	11,924700
1943,000000	11,882700
1942,000000	11,877100
1941,000000	11,880600
1940,000000	11,845900
1939,000000	11,848800
1938,000000	11,848800
1937,000000	11,868500
1936,000000	11,846000
1935,000000	11,865200
1934,000000	11,888000
1933,000000	11,898000
1932,000000	11,984300
1931,000000	12,004900
1930,000000	12,081400
1929,000000	12,149700
1928,000000	12,220700
1927,000000	12,319400
1926,000000	12,391800
1925,000000	12,483700
1924,000000	12,583600
1923,000000	12,704000
1922,000000	12,798600
1921,000000	12,961000
1920,000000	13,086600
1919,000000	13,238700
1918,000000	13,350000
1917,000000	13,501600
1916,000000	13,641200
1915,000000	13,829400
1914,000000	13,997600
1913,000000	14,206000
1912,000000	14,410100
1911,000000	14,599900
1910,000000	14,775000
1909,000000	14,947700
1908,000000	15,184500
1907,000000	15,385800
1906,000000	15,634900
1905,000000	15,921500
1904,000000	16,172500
1903,000000	16,414400
1902,000000	16,678700
1901,000000	16,944900
1900,000000	17,219400
1899,000000	17,518200
1898,000000	17,812300
1897,000000	18,133700
1896,000000	18,401700
1895,000000	18,655000
1894,000000	18,957600
1893,000000	19,248900
1892,000000	19,599600
1891,000000	19,992000
1890,000000	20,356200
1889,000000	20,703100
1888,000000	21,090600
1887,000000	21,444800
1886,000000	21,831700
1885,000000	22,235500
1884,000000	22,701500
1883,000000	23,170600
1882,000000	23,629000
1881,000000	24,095800
1880,000000	24,531000
1879,000000	24,978800
1878,000000	25,410000
1877,000000	25,838400
1876,000000	26,242100
1875,000000	26,641600
1874,000000	27,005400
1873,000000	27,373800
1872,000000	27,736700
1871,000000	28,060800
1870,000000	28,356400
1869,000000	28,625300
1868,000000	28,836900
1867,000000	29,008200
1866,000000	29,153000
1865,000000	29,287000
1864,000000	29,414900
1863,000000	29,531300
1862,000000	29,646900
1861,000000	29,775700
1860,000000	29,899000
1859,000000	30,005300
1858,000000	30,080000
1857,000000	30,163900
1856,000000	30,198700
1855,000000	30,224700
1854,000000	30,282300
1853,000000	30,291900
1852,000000	30,284200
1851,000000	30,313200
1850,000000	30,321600
1849,000000	30,327200
1848,000000	30,352200
1847,000000	30,364600
1846,000000	30,320700
1845,000000	30,272600
1844,000000	30,254300
1843,000000	30,230400
1842,000000	30,257700
1841,000000	30,285600
1840,000000	30,265900
1839,000000	30,243600
1838,000000	30,221200
1837,000000	30,205700
1836,000000	30,171600
1835,000000	30,129700
1834,000000	30,076800
1833,000000	30,009100
1832,000000	29,950900
1831,000000	29,916900
1830,000000	29,885600
1829,000000	29,840900
1828,000000	29,772600
1827,000000	29,709300
1826,000000	29,663200
1825,000000	29,614700
1824,000000	29,563800
1823,000000	29,546100
1822,000000	29,542200
1821,000000	29,539300
1820,000000	29,521900
1819,000000	29,490500
1818,000000	29,448600
1817,000000	29,424900
1816,000000	29,413100
1815,000000	29,412300
1814,000000	29,392400
1813,000000	29,388700
1812,000000	29,374300
1811,000000	29,345400
1810,000000	29,324100
1809,000000	29,284700
1808,000000	29,253500
1807,000000	29,222900
1806,000000	29,200100
1805,000000	29,161500
1804,000000	29,111500
1803,000000	29,082900
1802,000000	29,055200
1801,000000	29,015400
1800,000000	28,967400
1799,000000	28,920700
1798,000000	28,875400
1797,000000	28,832900
1796,000000	28,801900
1795,000000	28,767900
1794,000000	28,720500
1793,000000	28,678800
1792,000000	28,635900
1791,000000	28,592800
1790,000000	28,549500
1789,000000	28,505800
1788,000000	28,456000
1787,000000	28,407900
1786,000000	28,365600
1785,000000	28,311100
1784,000000	28,262200
1783,000000	28,201100
1782,000000	28,136600
1781,000000	28,078800
1780,000000	28,028200
1779,000000	27,978400
1778,000000	27,915800
1777,000000	27,842100
1776,000000	27,780900
1775,000000	27,709500
1774,000000	27,637800
1773,000000	27,552000
1772,000000	27,458500
1771,000000	27,351700
1770,000000	27,251800
1769,000000	27,178400
1768,000000	27,102400
1767,000000	27,013700
1766,000000	26,939000
1765,000000	26,867400
1764,000000	26,831500
1763,000000	26,811200
1762,000000	26,799400
1761,000000	26,812200
1760,000000	26,857200
1759,000000	26,920100
1758,000000	26,968400
1757,000000	27,027900
1756,000000	27,088800
1755,000000	27,138300
1754,000000	27,164800
1753,000000	27,197000
1752,000000	27,226700
1751,000000	27,235300
1750,000000	27,214600
1749,000000	27,201700
1748,000000	27,173600
1747,000000	27,127600
1746,000000	27,067300
1745,000000	26,988600
1744,000000	26,895100
1743,000000	26,794200
1742,000000	26,661200
1741,000000	26,500100
1740,000000	26,335500
1739,000000	26,158100
1738,000000	26,010700
1737,000000	25,861500
1736,000000	25,715800
1735,000000	25,602800
1734,000000	25,531700
1733,000000	25,487700
1732,000000	25,506000
1731,000000	25,543600
1730,000000	25,607800
1729,000000	25,683300
1728,000000	25,767900
1727,000000	25,860100
1726,000000	25,943200
1725,000000	26,027400
1724,000000	26,101200
1723,000000	26,140600
1722,000000	26,186700
1721,000000	26,239000
1720,000000	26,284300
1719,000000	26,337100
1718,000000	26,392000
1717,000000	26,465100
1716,000000	26,531800
1715,000000	26,617000
1714,000000	26,693600
1713,000000	26,758100
1712,000000	26,824600
1711,000000	26,899100
1710,000000	26,949000
1709,000000	26,968300
1708,000000	26,988100
1707,000000	26,990100
1706,000000	26,958000
1705,000000	26,945200
1704,000000	26,898100
1703,000000	26,839900
1702,000000	26,790800
1701,000000	26,698400
1700,000000	26,605400
1699,000000	26,474900
1698,000000	26,346900
1697,000000	26,264300
1696,000000	26,173600
1695,000000	26,117800
1694,000000	26,130100
1693,000000	26,199000
1692,000000	26,295600
1691,000000	26,414400
1690,000000	26,517900
1689,000000	26,658700
1688,000000	26,741800
1687,000000	26,817200
1686,000000	26,881700
1685,000000	26,932700
1684,000000	27,012000
1683,000000	27,122500
1682,000000	27,318500
1681,000000	27,633200
1680,000000	28,004800
1679,000000	28,402900
1678,000000	28,839400
1677,000000	29,259300
1676,000000	29,654200
1675,000000	30,005100
1674,000000	30,312400
1673,000000	30,579000
1672,000000	30,834400
1671,000000	31,030800
1670,000000	31,219400
1669,000000	31,387600
1668,000000	31,533700
1667,000000	31,641700
1666,000000	31,741800
1665,000000	31,838700
1664,000000	31,941100
1663,000000	32,003700
1662,000000	32,068500
1661,000000	32,139900
1660,000000	32,210800
1659,000000	32,256900
1658,000000	32,264100
1657,000000	32,310900
1656,000000	32,339600
1655,000000	32,360300
1654,000000	32,356400
1653,000000	32,386700
1652,000000	32,375900
1651,000000	32,368400
1650,000000	32,337200
1649,000000	32,311400
1648,000000	32,271900
1647,000000	32,270800
1646,000000	32,252300
1645,000000	32,213900
1644,000000	32,183700
1643,000000	32,152500
1642,000000	32,098000
1641,000000	32,074800
1640,000000	32,026700
1639,000000	31,969400
1638,000000	31,938300
1637,000000	31,885100
1636,000000	31,861000
1635,000000	31,809100
1634,000000	31,754500
1633,000000	31,690000
1632,000000	31,633500
1631,000000	31,571400
1630,000000	31,511300
1629,000000	31,433700
1628,000000	31,384100
1627,000000	31,312300
1626,000000	31,248000
1625,000000	31,175500
1624,000000	31,113900
1623,000000	31,031200
1622,000000	30,989200
1621,000000	30,928500
1620,000000	30,854300
1619,000000	30,803500
1618,000000	30,732600
1617,000000	30,670400
1616,000000	30,626600
1615,000000	30,564800
1614,000000	30,483300
1613,000000	30,422800
1612,000000	30,376600
1611,000000	30,326400
1610,000000	30,265000
1609,000000	30,201500
1608,000000	30,128200
1607,000000	30,084900
1606,000000	30,017800
1605,000000	29,952100
1604,000000	29,884900
1603,000000	29,815800
1602,000000	29,756300
1601,000000	29,685700
1600,000000	29,623600
1599,000000	29,559200
1598,000000	29,490800
1597,000000	29,444400
1596,000000	29,395000
1595,000000	29,331700
1594,000000	29,261500
1593,000000	29,194300
1592,000000	29,139500
1591,000000	29,082700
1590,000000	29,034600
1589,000000	28,985200
1588,000000	28,925900
1587,000000	28,893000
1586,000000	28,839400
1585,000000	28,798300
1584,000000	28,768800
1583,000000	28,701700
1582,000000	28,661900
1581,000000	28,621200
1580,000000	28,586600
1579,000000	28,557400
1578,000000	28,513700
1577,000000	28,509200
1576,000000	28,479300
1575,000000	28,447900
1574,000000	28,439000
1573,000000	28,425300
1572,000000	28,413800
1571,000000	28,398100
1570,000000	28,388400
1569,000000	28,378800
1568,000000	28,369500
1567,000000	28,361900
1566,000000	28,361600
1565,000000	28,364000
1564,000000	28,361200
1563,000000	28,367300
1562,000000	28,358000
1561,000000	28,345100
1560,000000	28,348000
1559,000000	28,343700
1558,000000	28,328300
1557,000000	28,298600
1556,000000	28,287200
1555,000000	28,267600
1554,000000	28,245400
1553,000000	28,216200
1552,000000	28,170800
1551,000000	28,154100
1550,000000	28,128500
1549,000000	28,085600
1548,000000	28,064900
1547,000000	28,036300
1546,000000	27,994600
1545,000000	27,969400
1544,000000	27,933800
1543,000000	27,909000
1542,000000	27,890700
1541,000000	27,866500
1540,000000	27,859700
1539,000000	27,830600
1538,000000	27,806500
1537,000000	27,797200
1536,000000	27,769400
1535,000000	27,749000
1534,000000	27,727700
1533,000000	27,693100
1532,000000	27,666600
1531,000000	27,633600
1530,000000	27,600500
1529,000000	27,571900
1528,000000	27,543900
1527,000000	27,498200
1526,000000	27,450400
1525,000000	27,422100
1524,000000	27,373700
1523,000000	27,320100
1522,000000	27,285100
1521,000000	27,250200
1520,000000	27,217700
1519,000000	27,172300
1518,000000	27,117600
1517,000000	27,069300
1516,000000	27,022600
1515,000000	26,973000
1514,000000	26,922700
1513,000000	26,872400
1512,000000	26,834300
1511,000000	26,777500
1510,000000	26,724100
1509,000000	26,676100
1508,000000	26,631400
1507,000000	26,572100
1506,000000	26,507700
1505,000000	26,457900
1504,000000	26,397200
1503,000000	26,354400
1502,000000	26,307400
1501,000000	26,250100
1500,000000	26,208500
1499,000000	26,159200
1498,000000	26,110400
1497,000000	26,089200
1496,000000	26,052900
1495,000000	26,011900
1494,000000	25,976800
1493,000000	25,948600
1492,000000	25,927500
1491,000000	25,896800
1490,000000	25,871400
1489,000000	25,853300
1488,000000	25,821700
1487,000000	25,790500
1486,000000	25,778200
1485,000000	25,756600
1484,000000	25,729900
1483,000000	25,711500
1482,000000	25,698500
1481,000000	25,684200
1480,000000	25,667700
1479,000000	25,655900
1478,000000	25,657500
1477,000000	25,651800
1476,000000	25,642000
1475,000000	25,653700
1474,000000	25,656000
1473,000000	25,650200
1472,000000	25,658400
1471,000000	25,670700
1470,000000	25,688500
1469,000000	25,683000
1468,000000	25,695300
1467,000000	25,714400
1466,000000	25,728600
1465,000000	25,741100
1464,000000	25,739100
1463,000000	25,766500
1462,000000	25,792200
1461,000000	25,818700
1460,000000	25,847300
1459,000000	25,889700
1458,000000	25,924800
1457,000000	25,977700
1456,000000	26,046000
1455,000000	26,100300
1454,000000	26,144000
1453,000000	26,186300
1452,000000	26,261500
1451,000000	26,347200
1450,000000	26,415800
1449,000000	26,465800
1448,000000	26,523500
1447,000000	26,613200
1446,000000	26,708600
1445,000000	26,773700
1444,000000	26,845800
1443,000000	26,894300
1442,000000	27,003700
1441,000000	27,106600
1440,000000	27,180500
1439,000000	27,283200
1438,000000	27,376100
1437,000000	27,466500
1436,000000	27,569100
1435,000000	27,659000
1434,000000	27,768300
1433,000000	27,855800
1432,000000	27,965200
1431,000000	28,083500
1430,000000	28,189400
1429,000000	28,310400
1428,000000	28,455000
1427,000000	28,594600
1426,000000	28,747400
1425,000000	28,919700
1424,000000	29,117200
1423,000000	29,265200
1422,000000	29,442000
1421,000000	29,620700
1420,000000	29,830400
1419,000000	30,051700
1418,000000	30,239500
1417,000000	30,421000
1416,000000	30,637700
1415,000000	30,873300
1414,000000	31,131900
1413,000000	31,365700
1412,000000	31,569900
1411,000000	31,821400
1410,000000	32,109900
1409,000000	32,432900
1408,000000	32,739400
1407,000000	33,053400
1406,000000	33,339800
1405,000000	33,709800
1404,000000	34,012500
1403,000000	34,395400
1402,000000	34,694600
1401,000000	35,083900
1400,000000	35,403100
1399,000000	35,715300
1398,000000	35,914900
1397,000000	36,192600
1396,000000	36,517500
1395,000000	36,824400
1394,000000	37,060800
1393,000000	37,276900
1392,000000	37,539900
1391,000000	37,808000
1390,000000	38,070800
1389,000000	38,331200
1388,000000	38,700500
1387,000000	39,049200
1386,000000	39,411000
1385,000000	39,802900
1384,000000	40,240400
1383,000000	40,672800
1382,000000	41,098300
1381,000000	41,489200
1380,000000	41,719000
1379,000000	41,920500
1378,000000	42,107500
1377,000000	42,252700
1376,000000	42,413300
1375,000000	42,587200
1374,000000	42,756600
1373,000000	43,019100
1372,000000	43,253700
1371,000000	43,552000
1370,000000	43,835600
1369,000000	44,052200
1368,000000	44,317900
1367,000000	44,518500
1366,000000	44,712800
1365,000000	44,906100
1364,000000	45,073800
1363,000000	45,205100
1362,000000	45,381700
1361,000000	45,492400
1360,000000	45,591800
1359,000000	45,617100
1358,000000	45,722700
1357,000000	45,837100
1356,000000	45,971100
1355,000000	46,209200
1354,000000	46,486800
1353,000000	46,762800
1352,000000	47,146600
1351,000000	47,513100
1350,000000	47,888300
1349,000000	48,215100
1348,000000	48,525600
1347,000000	48,829800
1346,000000	49,098300
1345,000000	49,353600
1344,000000	49,642900
1343,000000	49,890100
1342,000000	50,117900
1341,000000	50,370300
1340,000000	50,615100
1339,000000	50,856600
1338,000000	51,074200
1337,000000	51,295000
1336,000000	51,506300
1335,000000	51,738100
1334,000000	51,947800
1333,000000	52,128900
1332,000000	52,334200
1331,000000	52,525000
1330,000000	52,702200
1329,000000	52,874200
1328,000000	53,057100
1327,000000	53,219100
1326,000000	53,365300
1325,000000	53,523900
1324,000000	53,660300
1323,000000	53,793200
1322,000000	53,927700
1321,000000	54,047500
1320,000000	54,169800
1319,000000	54,294100
1318,000000	54,389100
1317,000000	54,506900
1316,000000	54,605600
1315,000000	54,720400
1314,000000	54,810000
1313,000000	54,893200
1312,000000	54,963300
1311,000000	55,059100
1310,000000	55,130200
1309,000000	55,204600
1308,000000	55,285100
1307,000000	55,338600
1306,000000	55,402200
1305,000000	55,436800
1304,000000	55,486600
1303,000000	55,522100
1302,000000	55,557900
1301,000000	55,584600
1300,000000	55,609600
1299,000000	55,632700
1298,000000	55,662600
1297,000000	55,671500
1296,000000	55,692300
1295,000000	55,703300
1294,000000	55,702100
1293,000000	55,709700
1292,000000	55,711500
1291,000000	55,708100
1290,000000	55,700100
1289,000000	55,683800
1288,000000	55,657200
1287,000000	55,644700
1286,000000	55,629700
1285,000000	55,592900
1284,000000	55,562600
1283,000000	55,519100
1282,000000	55,482200
1281,000000	55,443800
1280,000000	55,411300
1279,000000	55,377400
1278,000000	55,343100
1277,000000	55,317400
1276,000000	55,278900
1275,000000	55,247900
1274,000000	55,216000
1273,000000	55,181800
1272,000000	55,164300
1271,000000	55,140100
1270,000000	55,108100
1269,000000	55,088900
1268,000000	55,078500
1267,000000	55,060300
1266,000000	55,029600
1265,000000	55,011300
1264,000000	54,983500
1263,000000	54,954900
1262,000000	54,922600
1261,000000	54,905700
1260,000000	54,875300
1259,000000	54,838900
1258,000000	54,821000
1257,000000	54,794200
1256,000000	54,761100
1255,000000	54,738200
1254,000000	54,700900
1253,000000	54,664800
1252,000000	54,604900
1251,000000	54,551400
1250,000000	54,512500
1249,000000	54,462500
1248,000000	54,405600
1247,000000	54,339500
1246,000000	54,268300
1245,000000	54,192800
1244,000000	54,114300
1243,000000	54,037500
1242,000000	53,957700
1241,000000	53,877100
1240,000000	53,785500
1239,000000	53,693000
1238,000000	53,591600
1237,000000	53,483500
1236,000000	53,380800
1235,000000	53,278400
1234,000000	53,161400
1233,000000	53,057600
1232,000000	52,953700
1231,000000	52,837900
1230,000000	52,713300
1229,000000	52,586700
1228,000000	52,466200
1227,000000	52,343200
1226,000000	52,219800
1225,000000	52,093700
1224,000000	51,965000
1223,000000	51,839500
1222,000000	51,712900
1221,000000	51,582900
1220,000000	51,452600
1219,000000	51,311900
1218,000000	51,183500
1217,000000	51,075000
1216,000000	50,968600
1215,000000	50,861100
1214,000000	50,753200
1213,000000	50,639300
1212,000000	50,539600
1211,000000	50,454000
1210,000000	50,357200
1209,000000	50,265300
1208,000000	50,176300
1207,000000	50,085300
1206,000000	50,019400
1205,000000	49,973000
1204,000000	49,933500
1203,000000	49,885400
1202,000000	49,843200
1201,000000	49,808500
1200,000000	49,772400
1199,000000	49,713800
1198,000000	49,651700
1197,000000	49,557800
1196,000000	49,436800
1195,000000	49,285500
1194,000000	49,091200
1193,000000	48,853700
1192,000000	48,587700
1191,000000	48,279400
1190,000000	47,949000
1189,000000	47,634700
1188,000000	47,374500
1187,000000	47,192800
1186,000000	47,087100
1185,000000	47,057000
1184,000000	47,118800
1183,000000	47,290300
1182,000000	47,551900
1181,000000	47,874200
1180,000000	48,220300
1179,000000	48,584400
1178,000000	48,924300
1177,000000	49,240400
1176,000000	49,508800
1175,000000	49,756800
1174,000000	50,003200
1173,000000	50,227700
1172,000000	50,447300
1171,000000	50,687300
1170,000000	50,943400
1169,000000	51,186300
1168,000000	51,447500
1167,000000	51,711400
1166,000000	51,973300
1165,000000	52,242500
1164,000000	52,518300
1163,000000	52,811300
1162,000000	53,090900
1161,000000	53,362100
1160,000000	53,649000
1159,000000	53,929800
1158,000000	54,186400
1157,000000	54,432900
1156,000000	54,671100
1155,000000	54,891700
1154,000000	55,062100
1153,000000	55,213500
1152,000000	55,331400
1151,000000	55,423600
1150,000000	55,495800
1149,000000	55,543700
1148,000000	55,638700
1147,000000	55,714400
1146,000000	55,842800
1145,000000	55,985200
1144,000000	56,182500
1143,000000	56,402200
1142,000000	56,657600
1141,000000	56,928800
1140,000000	57,223600
1139,000000	57,517200
1138,000000	57,804600
1137,000000	58,105600
1136,000000	58,453800
1135,000000	58,792000
1134,000000	59,153300
1133,000000	59,430400
1132,000000	59,705100
1131,000000	59,942500
1130,000000	60,183900
1129,000000	60,397900
1128,000000	60,589700
1127,000000	60,728400
1126,000000	60,854000
1125,000000	60,929000
1124,000000	61,035900
1123,000000	61,109900
1122,000000	61,178600
1121,000000	61,223900
1120,000000	61,268200
1119,000000	61,289300
1118,000000	61,320800
1117,000000	61,341600
1116,000000	61,334400
1115,000000	61,365100
1114,000000	61,349300
1113,000000	61,343700
1112,000000	61,349000
1111,000000	61,344500
1110,000000	61,333400
1109,000000	61,336300
1108,000000	61,329800
1107,000000	61,317700
1106,000000	61,318700
1105,000000	61,309300
1104,000000	61,299000
1103,000000	61,285300
1102,000000	61,268400
1101,000000	61,258200
1100,000000	61,241800
1099,000000	61,232900
1098,000000	61,209300
1097,000000	61,192000
1096,000000	61,169900
1095,000000	61,133700
1094,000000	61,113000
1093,000000	61,073000
1092,000000	61,069400
1091,000000	61,025000
1090,000000	60,993200
1089,000000	60,993400
1088,000000	60,946000
1087,000000	60,900800
1086,000000	60,854300
1085,000000	60,826600
1084,000000	60,796900
1083,000000	60,738800
1082,000000	60,715600
1081,000000	60,657900
1080,000000	60,637500
1079,000000	60,606700
1078,000000	60,586900
1077,000000	60,545900
1076,000000	60,515500
1075,000000	60,493800
1074,000000	60,443700
1073,000000	60,428800
1072,000000	60,415900
1071,000000	60,362300
1070,000000	60,333100
1069,000000	60,331100
1068,000000	60,300900
1067,000000	60,262800
1066,000000	60,229300
1065,000000	60,207900
1064,000000	60,200700
1063,000000	60,178100
1062,000000	60,136500
1061,000000	60,125000
1060,000000	60,095500
1059,000000	60,064700
1058,000000	60,051700
1057,000000	60,030400
1056,000000	60,013000
1055,000000	59,964800
1054,000000	59,966000
1053,000000	59,942500
1052,000000	59,941600
1051,000000	59,904700
1050,000000	59,906700
1049,000000	59,901500
1048,000000	59,873900
1047,000000	59,885800
1046,000000	59,881200
1045,000000	59,881200
1044,000000	59,873200
1043,000000	59,857600
1042,000000	59,876500
1041,000000	59,852100
1040,000000	59,851100
1039,000000	59,857800
1038,000000	59,864800
1037,000000	59,855200
1036,000000	59,856000
1035,000000	59,843500
1034,000000	59,855700
1033,000000	59,847500
1032,000000	59,819000
1031,000000	59,836600
1030,000000	59,819800
1029,000000	59,802200
1028,000000	59,794300
1027,000000	59,789500
1026,000000	59,772300
1025,000000	59,758300
1024,000000	59,737000
1023,000000	59,715800
1022,000000	59,719500
1021,000000	59,712600
1020,000000	59,699700
1019,000000	59,688900
1018,000000	59,692600
1017,000000	59,688000
1016,000000	59,702800
1015,000000	59,707500
1014,000000	59,716100
1013,000000	59,729700
1012,000000	59,747400
1011,000000	59,786000
1010,000000	59,814700
1009,000000	59,855600
1008,000000	59,879400
1007,000000	59,925300
1006,000000	59,961900
1005,000000	60,016700
1004,000000	60,075400
1003,000000	60,124000
1002,000000	60,175900
1001,000000	60,222500
1000,000000	60,276900
999,000000	60,312600
998,000000	60,368400
997,000000	60,436300
996,000000	60,501000
995,000000	60,555100
994,000000	60,617300
993,000000	60,686000
992,000000	60,764000
991,000000	60,843700
990,000000	60,902000
989,000000	60,976500
988,000000	61,066600
987,000000	61,146900
986,000000	61,218400
985,000000	61,311200
984,000000	61,405800
983,000000	61,502200
982,000000	61,596300
981,000000	61,687800
980,000000	61,776800
979,000000	61,871500
978,000000	61,966600
977,000000	62,074400
976,000000	62,171300
975,000000	62,273700
974,000000	62,366000
973,000000	62,449400
972,000000	62,557800
971,000000	62,661400
970,000000	62,747000
969,000000	62,844700
968,000000	62,948700
967,000000	63,063300
966,000000	63,172300
965,000000	63,269000
964,000000	63,369000
963,000000	63,479500
962,000000	63,598200
961,000000	63,698000
960,000000	63,805300
959,000000	63,914600
958,000000	64,025100
957,000000	64,121600
956,000000	64,216300
955,000000	64,324900
954,000000	64,422200
953,000000	64,507400
952,000000	64,592400
951,000000	64,679800
950,000000	64,758400
949,000000	64,847500
948,000000	64,936700
947,000000	65,001300
946,000000	65,078300
945,000000	65,162300
944,000000	65,230700
943,000000	65,306700
942,000000	65,376100
941,000000	65,435200
940,000000	65,493400
939,000000	65,552700
938,000000	65,609400
937,000000	65,679500
936,000000	65,732300
935,000000	65,787000
934,000000	65,845600
933,000000	65,897500
932,000000	65,965500
931,000000	66,032600
930,000000	66,068100
929,000000	66,097600
928,000000	66,152900
927,000000	66,190500
926,000000	66,216900
925,000000	66,254300
924,000000	66,296000
923,000000	66,357200
922,000000	66,381000
921,000000	66,396400
920,000000	66,428300
919,000000	66,453700
918,000000	66,464500
917,000000	66,483500
916,000000	66,493800
915,000000	66,509900
914,000000	66,517000
913,000000	66,520600
912,000000	66,531500
911,000000	66,543800
910,000000	66,553600
909,000000	66,563200
908,000000	66,563500
907,000000	66,563200
906,000000	66,571200
905,000000	66,576000
904,000000	66,567700
903,000000	66,569700
902,000000	66,589200
901,000000	66,571200
900,000000	66,561100
899,000000	66,570000
898,000000	66,565700
897,000000	66,569900
896,000000	66,563600
895,000000	66,525800
894,000000	66,489000
893,000000	66,472500
892,000000	66,460600
891,000000	66,391800
890,000000	66,339500
889,000000	66,304100
888,000000	66,222000
887,000000	66,146200
886,000000	66,064100
885,000000	65,981000
884,000000	65,871700
883,000000	65,805700
882,000000	65,696300
881,000000	65,597400
880,000000	65,472700
879,000000	65,375000
878,000000	65,237500
877,000000	65,093900
876,000000	64,889200
875,000000	64,655300
874,000000	64,398700
873,000000	64,102200
872,000000	63,864400
871,000000	63,763400
870,000000	63,762900
869,000000	63,809900
868,000000	63,829500
867,000000	63,842900
866,000000	63,855300
865,000000	63,878600
864,000000	63,907700
863,000000	63,925600
862,000000	63,919200
861,000000	63,917500
860,000000	63,952600
859,000000	63,963900
858,000000	63,989600
857,000000	67,464000
856,000000	68,478300
855,000000	68,109000
854,000000	67,522700
853,000000	67,860500
852,000000	68,192700
851,000000	67,756200
850,000000	67,989800
849,000000	67,526800
848,000000	68,052900
847,000000	67,700000
846,000000	67,450400
845,000000	67,413600
844,000000	67,338800
843,000000	67,103100
842,000000	67,272800
841,000000	67,399300
840,000000	66,961600
839,000000	66,857400
838,000000	66,745700
837,000000	66,811400
836,000000	66,772200
835,000000	66,519200
834,000000	66,301200
833,000000	66,369700
832,000000	66,192700
831,000000	66,173900
830,000000	66,384400
829,000000	66,123600
828,000000	65,967100
827,000000	65,850000
826,000000	65,762400
825,000000	65,829700
824,000000	65,523500
823,000000	65,702500
822,000000	65,383500
821,000000	65,325300
820,000000	65,345100
819,000000	65,138000
818,000000	65,293200
817,000000	65,069200
816,000000	64,958900
815,000000	64,868400
814,000000	64,814900
813,000000	64,586400
812,000000	64,563800
811,000000	64,620700
810,000000	64,359100
809,000000	64,240800
808,000000	64,437800
807,000000	64,180900
806,000000	64,141600
805,000000	64,036900
804,000000	64,090500
803,000000	63,955100
802,000000	63,624400
801,000000	63,488900
800,000000	63,363600
799,000000	63,475800
798,000000	63,388200
797,000000	63,115400
796,000000	63,200100
795,000000	63,069200
794,000000	62,900800
793,000000	62,900800
792,000000	62,816100
791,000000	62,761700
790,000000	62,671500
789,000000	62,435200
788,000000	62,276500
787,000000	62,183600
786,000000	62,253900
785,000000	62,060600
784,000000	61,914400
783,000000	61,993800
782,000000	61,716000
781,000000	61,726700
780,000000	61,496100
779,000000	61,467300
778,000000	61,288900
777,000000	61,184400
776,000000	61,032000
775,000000	61,022800
774,000000	60,848500
773,000000	60,872600
772,000000	60,625800
771,000000	60,541900
770,000000	60,486800
769,000000	60,133000
768,000000	60,120000
767,000000	60,001500
766,000000	59,885800
765,000000	59,781600
764,000000	59,656400
763,000000	59,467600
762,000000	59,337100
761,000000	59,216200
760,000000	59,068600
759,000000	59,043900
758,000000	58,970400
757,000000	58,772000
756,000000	58,665800
755,000000	58,495600
754,000000	58,397500
753,000000	58,166900
752,000000	58,191100
751,000000	58,018900
750,000000	58,015900
749,000000	57,776300
748,000000	57,793000
747,000000	57,630000
746,000000	57,581000
745,000000	57,490800
744,000000	57,370300
743,000000	57,358600
742,000000	57,231200
741,000000	57,179500
740,000000	57,175900
739,000000	57,152700
738,000000	57,088000
737,000000	56,940800
736,000000	56,780900
735,000000	56,590500
734,000000	56,522300
733,000000	56,469800
732,000000	56,365500
731,000000	56,169900
730,000000	55,990700
729,000000	55,857100
728,000000	55,800200
727,000000	55,653200
726,000000	55,604900
725,000000	55,489600
724,000000	55,358100
723,000000	55,170600
722,000000	55,026800
721,000000	54,955500
720,000000	54,891800
719,000000	54,810300
718,000000	54,690600
717,000000	54,617800
716,000000	54,434400
715,000000	54,209400
714,000000	54,100300
713,000000	53,931600
712,000000	53,802300
711,000000	53,664300
710,000000	53,481200
709,000000	53,332600
708,000000	53,164000
707,000000	52,963900
706,000000	52,753500
705,000000	52,609000
704,000000	52,437900
703,000000	52,268800
702,000000	52,100000
701,000000	51,911900
700,000000	51,705700
699,000000	51,469800
698,000000	51,276500
697,000000	51,198900
696,000000	51,024200
695,000000	50,835500
694,000000	50,652200
693,000000	50,506700
692,000000	50,346700
691,000000	50,150700
690,000000	49,994500
689,000000	49,838500
688,000000	49,636500
687,000000	49,412000
686,000000	49,221100
685,000000	48,998300
684,000000	48,807400
683,000000	48,671600
682,000000	48,499300
681,000000	48,341200
680,000000	48,224600
679,000000	48,126000
678,000000	48,062300
677,000000	48,043500
676,000000	47,998400
675,000000	47,939100
674,000000	47,928600
673,000000	47,932300
672,000000	47,982600
671,000000	47,949900
670,000000	47,906500
669,000000	47,905900
668,000000	47,879200
667,000000	47,860100
666,000000	47,806700
665,000000	47,749900
664,000000	47,723000
663,000000	47,702300
662,000000	47,679000
661,000000	47,662400
660,000000	47,630300
659,000000	47,608200
658,000000	47,617900
657,000000	47,607100
656,000000	47,618700
655,000000	47,636000
654,000000	47,609200
653,000000	47,571500
652,000000	47,508600
651,000000	47,430300
650,000000	47,317500
649,000000	47,157100
648,000000	46,974200
647,000000	46,767600
646,000000	46,510100
645,000000	46,238400
644,000000	45,933800
643,000000	45,643500
642,000000	45,375500
641,000000	45,092800
640,000000	44,833000
639,000000	44,581500
638,000000	44,410600
637,000000	44,294500
636,000000	44,240100
635,000000	44,216100
634,000000	44,218700
633,000000	44,320000
632,000000	44,474800
631,000000	44,675100
630,000000	44,911800
629,000000	45,186100
628,000000	45,484200
627,000000	45,823400
626,000000	46,221500
625,000000	46,593100
624,000000	46,985300
623,000000	47,458300
622,000000	47,919500
621,000000	48,371100
620,000000	48,829300
619,000000	49,289200
618,000000	49,808500
617,000000	50,295600
616,000000	50,799200
615,000000	51,299300
614,000000	51,804800
613,000000	52,316700
612,000000	52,814700
611,000000	53,315100
610,000000	53,851700
609,000000	54,321500
608,000000	54,718900
607,000000	55,121300
606,000000	55,479400
605,000000	55,833500
604,000000	56,149900
603,000000	56,424200
602,000000	56,713100
601,000000	56,943500
600,000000	57,179000
599,000000	57,425400
598,000000	57,658700
597,000000	57,888000
596,000000	58,128100
595,000000	58,330400
594,000000	58,581000
593,000000	58,788400
592,000000	58,972900
591,000000	59,179100
590,000000	59,400600
589,000000	59,591700
588,000000	59,777900
587,000000	59,978600
586,000000	60,203800
585,000000	60,373300
584,000000	60,556300
583,000000	60,802500
582,000000	61,040300
581,000000	61,251700
580,000000	61,489400
579,000000	61,732700
578,000000	61,947100
577,000000	62,179800
576,000000	62,358500
575,000000	62,549800
574,000000	62,743000
573,000000	62,889300
572,000000	62,988100
571,000000	63,062900
570,000000	63,144400
569,000000	63,174400
568,000000	63,187400
567,000000	63,188500
566,000000	63,200200
565,000000	63,210900
564,000000	63,210200
563,000000	63,221000
562,000000	63,223800
561,000000	63,268900
560,000000	63,277200
559,000000	63,246900
558,000000	63,253300
557,000000	63,177200
556,000000	63,119700
555,000000	62,972800
554,000000	62,807300
553,000000	62,607900
552,000000	62,377800
551,000000	62,072600
550,000000	61,772800
549,000000	61,409300
548,000000	61,036800
547,000000	60,612500
546,000000	60,161100
545,000000	59,702100
544,000000	59,195900
543,000000	58,632800
542,000000	58,077700
541,000000	57,462700
540,000000	56,759700
539,000000	56,073900
538,000000	55,310000
537,000000	54,528900
536,000000	53,694000
535,000000	52,868700
534,000000	52,002100
533,000000	51,117500
532,000000	50,226500
531,000000	49,338400
530,000000	48,455100
529,000000	47,592000
528,000000	46,747700
527,000000	45,917000
526,000000	45,123500
525,000000	44,301200
524,000000	43,541000
523,000000	42,822500
522,000000	42,128700
521,000000	41,447800
520,000000	40,803600
519,000000	40,208900
518,000000	39,612000
517,000000	38,993500
516,000000	38,445900
515,000000	37,887700
514,000000	37,314900
513,000000	36,811000
512,000000	36,256300
511,000000	35,751700
510,000000	35,245700
509,000000	34,734000
508,000000	34,180700
507,000000	33,647800
506,000000	33,107400
505,000000	32,585600
504,000000	32,079000
503,000000	31,534900
502,000000	31,017000
501,000000	30,428400
500,000000	29,927900
499,000000	29,353500
498,000000	28,836500
497,000000	28,340000
496,000000	27,833100
495,000000	27,371600
494,000000	26,892900
493,000000	26,421400
492,000000	26,016000
491,000000	25,609800
490,000000	25,255500
489,000000	24,889700
488,000000	24,556600
487,000000	24,271700
486,000000	23,996000
485,000000	23,700000
484,000000	23,488300
483,000000	23,255200
482,000000	23,048400
481,000000	22,825700
480,000000	22,612200
479,000000	22,444300
478,000000	22,249100
477,000000	22,052900
476,000000	21,890700
475,000000	21,708000
474,000000	21,542300
473,000000	21,368600
472,000000	21,221100
471,000000	21,043600
470,000000	20,888500
469,000000	20,733000
468,000000	20,569900
467,000000	20,416700
466,000000	20,278700
465,000000	20,085100
464,000000	19,938800
463,000000	19,786300
462,000000	19,657900
461,000000	19,490800
460,000000	19,361400
459,000000	19,185200
458,000000	19,027900
457,000000	18,882000
456,000000	18,701000
455,000000	18,582700
454,000000	18,446800
453,000000	18,261500
452,000000	18,057600
451,000000	17,891800
450,000000	17,708200
449,000000	17,509700
448,000000	17,314100
447,000000	17,128100
446,000000	16,909000
445,000000	16,683700
444,000000	16,473200
443,000000	16,231400
442,000000	15,979600
441,000000	15,727600
440,000000	15,496500
439,000000	15,241200
438,000000	14,981400
437,000000	14,726900
436,000000	14,458000
435,000000	14,190400
434,000000	13,912400
433,000000	13,641000
432,000000	13,381500
431,000000	13,084400
430,000000	12,796400
429,000000	12,525700
428,000000	12,258700
427,000000	11,995400
426,000000	11,725000
425,000000	11,458200
424,000000	11,184700
423,000000	10,930300
422,000000	10,656100
421,000000	10,398600
420,000000	10,154100
419,000000	9,917600
418,000000	9,694500
417,000000	9,460900
416,000000	9,245100
415,000000	9,038900
414,000000	8,829400
413,000000	8,643400
412,000000	8,455800
411,000000	8,278400
410,000000	8,107300
409,000000	7,946600
408,000000	7,797800
407,000000	7,644900
406,000000	7,505700
405,000000	7,367300
404,000000	7,231500
403,000000	7,126100
402,000000	7,022600
401,000000	6,903500
400,000000	6,792400
399,000000	6,698100
398,000000	6,621900
397,000000	6,549100
396,000000	6,475500
395,000000	6,379000
394,000000	6,295300
393,000000	6,226700
392,000000	6,169400
391,000000	6,109800
390,000000	6,047500
389,000000	6,002000
388,000000	5,932100
387,000000	5,886600
386,000000	5,870700
385,000000	5,847900
384,000000	5,781100
383,000000	5,748200
382,000000	5,755200
381,000000	5,733100
380,000000	5,685000
379,000000	5,650500
378,000000	5,630700
377,000000	5,626700
376,000000	5,435300
375,000000	5,084100
374,000000	5,102700
373,000000	5,264300
372,000000	5,305100
371,000000	5,374800
370,000000	5,472000
369,000000	5,465200
368,000000	5,382200
367,000000	5,419700
366,000000	5,482500
365,000000	5,488700
364,000000	5,602200
363,000000	5,627300
362,000000	5,468700
361,000000	5,357400
360,000000	5,394100
359,000000	5,371600
358,000000	5,259100
357,000000	5,455100
356,000000	5,526500
355,000000	5,450500
354,000000	5,440600
353,000000	5,336000
352,000000	5,359500
351,000000	5,471900
350,000000	5,437200
349,000000	5,515000
348,000000	5,672400
347,000000	5,422400
346,000000	5,445300
345,000000	5,447400
344,000000	5,516300
343,000000	5,563500
342,000000	5,488500
341,000000	5,511800
340,000000	5,497500
339,000000	5,578700
338,000000	5,840000
337,000000	5,804300
336,000000	5,476100
335,000000	5,573600
334,000000	5,682300
333,000000	5,515700
332,000000	5,289500
331,000000	5,432300
330,000000	5,897000
329,000000	5,825400
328,000000	5,855400
327,000000	5,848000
326,000000	5,524500
325,000000	5,746900
324,000000	6,017300
323,000000	5,787000
322,000000	6,042400
321,000000	5,913200
320,000000	5,467600
319,000000	6,273900
318,000000	6,891100
317,000000	6,551200
316,000000	5,694100
315,000000	5,170600
314,000000	5,146700
313,000000	5,144400
312,000000	5,156400
311,000000	5,188300
310,000000	5,187200
309,000000	5,173300
308,000000	5,174600
307,000000	5,179100
306,000000	5,177300
305,000000	5,208800
304,000000	5,179300
303,000000	5,153400
302,000000	5,160700
301,000000	5,170600
300,000000	5,173000
299,000000	5,139800
298,000000	5,176200
297,000000	5,215400
296,000000	5,233800
295,000000	5,229300
294,000000	5,236200
293,000000	5,225300
292,000000	5,230200
291,000000	5,263400
290,000000	5,248000
289,000000	5,262100
288,000000	5,272400
287,000000	5,279500
286,000000	5,266500
285,000000	5,273900
284,000000	5,293300
283,000000	5,267800
282,000000	5,291500
281,000000	5,298400
280,000000	5,316100
279,000000	5,327800
278,000000	5,352700
277,000000	5,358200
276,000000	5,382600
275,000000	5,387900
274,000000	5,391100
273,000000	5,353700
272,000000	5,391400
271,000000	5,403200
270,000000	5,406600
269,000000	5,411100
268,000000	5,477400
267,000000	5,488300
266,000000	5,516600
265,000000	5,519400
264,000000	5,507100
263,000000	5,541000
262,000000	5,597100
261,000000	5,609200
260,000000	5,646800
259,000000	5,606900
258,000000	5,593700
257,000000	5,650200
256,000000	5,650800
255,000000	5,606400
254,000000	5,621700
253,000000	5,631500
252,000000	5,678400
251,000000	5,665100
250,000000	5,646600
