PE UV       SUBTECH     SPECTRUM    ASCII       PEDS        4.00        
   -1
CICIMAUCR0209-3.ASC
24/06/06
17:01:56.00
24/06/06
17:01:56.00
Vinicio Soto Monge
C. cupreomarginata. Sex F. Dorsal
250,000000
1
Lambda 1050
1050L1511233
PerkinElmer UV WinLab 6.3.2.0749 / 2.02.05 Lambda 900 UV/VIS/NIR, Aug  7 2015 09:38:08

0
0
3350/servo 860,8/2
0
0
UV/VIS
1
1
1
DoubleDePol,CommonBeamDepol,RBeamAtt,SBeamAtt,60mm sphere, WB InGaAs Detector
0
0
0
0
Program
Program
3350/servo 860,8/2
3350/0,2 860,8/0,2
3350/0,2 860,8/0,2
0
15.00
 
 
 
0
 
860,8
319,2
860,8
Front
100
on
S:100 R:100
0
0
0
0
 
0
 
 
 
0
 
 
0
0
0
0
0
 
 
 
 
0
0


0
0
#HDR
-1
-1
#GR
nm
%R
1.0
0.0
2500,000000
-1,000000
2251
8
73,477300
5,040500
#DATA
2500,000000	8,689800
2499,000000	8,650700
2498,000000	8,678900
2497,000000	8,661700
2496,000000	8,753300
2495,000000	8,720400
2494,000000	8,576500
2493,000000	8,653200
2492,000000	8,618000
2491,000000	8,635000
2490,000000	8,585500
2489,000000	8,601500
2488,000000	8,550600
2487,000000	8,451600
2486,000000	8,489600
2485,000000	8,531400
2484,000000	8,516400
2483,000000	8,521700
2482,000000	8,403400
2481,000000	8,431200
2480,000000	8,433800
2479,000000	8,438300
2478,000000	8,511600
2477,000000	8,530500
2476,000000	8,531900
2475,000000	8,537900
2474,000000	8,519100
2473,000000	8,548300
2472,000000	8,506400
2471,000000	8,584400
2470,000000	8,596100
2469,000000	8,618800
2468,000000	8,608800
2467,000000	8,647900
2466,000000	8,665700
2465,000000	8,667600
2464,000000	8,702100
2463,000000	8,717000
2462,000000	8,722000
2461,000000	8,747900
2460,000000	8,792000
2459,000000	8,850800
2458,000000	8,961200
2457,000000	8,950100
2456,000000	9,011000
2455,000000	9,065700
2454,000000	9,108100
2453,000000	9,168300
2452,000000	9,220400
2451,000000	9,300400
2450,000000	9,340000
2449,000000	9,435300
2448,000000	9,506900
2447,000000	9,580200
2446,000000	9,664100
2445,000000	9,716300
2444,000000	9,820000
2443,000000	9,897200
2442,000000	9,922200
2441,000000	10,002600
2440,000000	10,099500
2439,000000	10,182300
2438,000000	10,236600
2437,000000	10,315200
2436,000000	10,397500
2435,000000	10,463800
2434,000000	10,518500
2433,000000	10,583100
2432,000000	10,652000
2431,000000	10,708800
2430,000000	10,765000
2429,000000	10,827900
2428,000000	10,875200
2427,000000	10,938900
2426,000000	11,003500
2425,000000	11,050200
2424,000000	11,093300
2423,000000	11,154800
2422,000000	11,196000
2421,000000	11,244100
2420,000000	11,287100
2419,000000	11,347900
2418,000000	11,398500
2417,000000	11,423400
2416,000000	11,460900
2415,000000	11,506100
2414,000000	11,547400
2413,000000	11,569300
2412,000000	11,599500
2411,000000	11,636500
2410,000000	11,676700
2409,000000	11,710300
2408,000000	11,745200
2407,000000	11,777800
2406,000000	11,809900
2405,000000	11,834300
2404,000000	11,854500
2403,000000	11,878200
2402,000000	11,907400
2401,000000	11,943500
2400,000000	11,977300
2399,000000	11,998800
2398,000000	12,004500
2397,000000	11,983600
2396,000000	11,990300
2395,000000	12,005300
2394,000000	12,024800
2393,000000	12,056800
2392,000000	12,075600
2391,000000	12,095700
2390,000000	12,118400
2389,000000	12,127600
2388,000000	12,140400
2387,000000	12,139200
2386,000000	12,159900
2385,000000	12,165200
2384,000000	12,154500
2383,000000	12,165800
2382,000000	12,148100
2381,000000	12,140800
2380,000000	12,155400
2379,000000	12,140300
2378,000000	12,125200
2377,000000	12,127300
2376,000000	12,104100
2375,000000	12,069000
2374,000000	12,075400
2373,000000	12,073700
2372,000000	12,042900
2371,000000	12,003100
2370,000000	11,983700
2369,000000	11,954900
2368,000000	11,922900
2367,000000	11,917000
2366,000000	11,870000
2365,000000	11,820900
2364,000000	11,807900
2363,000000	11,771700
2362,000000	11,707800
2361,000000	11,644800
2360,000000	11,609800
2359,000000	11,560800
2358,000000	11,502100
2357,000000	11,471500
2356,000000	11,417700
2355,000000	11,374600
2354,000000	11,350500
2353,000000	11,324600
2352,000000	11,290800
2351,000000	11,273900
2350,000000	11,276600
2349,000000	11,264500
2348,000000	11,252500
2347,000000	11,266500
2346,000000	11,271200
2345,000000	11,299200
2344,000000	11,336600
2343,000000	11,344800
2342,000000	11,368000
2341,000000	11,395700
2340,000000	11,417000
2339,000000	11,441300
2338,000000	11,466300
2337,000000	11,471100
2336,000000	11,485100
2335,000000	11,495000
2334,000000	11,470000
2333,000000	11,458200
2332,000000	11,448200
2331,000000	11,418200
2330,000000	11,401800
2329,000000	11,361700
2328,000000	11,322700
2327,000000	11,276200
2326,000000	11,229600
2325,000000	11,169500
2324,000000	11,104700
2323,000000	11,046700
2322,000000	10,978100
2321,000000	10,901800
2320,000000	10,841100
2319,000000	10,729800
2318,000000	10,622400
2317,000000	10,556900
2316,000000	10,440600
2315,000000	10,327000
2314,000000	10,231400
2313,000000	10,136300
2312,000000	10,046500
2311,000000	9,964400
2310,000000	9,875800
2309,000000	9,794400
2308,000000	9,734600
2307,000000	9,695700
2306,000000	9,647600
2305,000000	9,622200
2304,000000	9,585000
2303,000000	9,591100
2302,000000	9,610700
2301,000000	9,645700
2300,000000	9,670100
2299,000000	9,727900
2298,000000	9,806800
2297,000000	9,869500
2296,000000	9,921600
2295,000000	9,998900
2294,000000	10,052800
2293,000000	10,115900
2292,000000	10,189700
2291,000000	10,272100
2290,000000	10,312800
2289,000000	10,356700
2288,000000	10,378300
2287,000000	10,397200
2286,000000	10,423700
2285,000000	10,436200
2284,000000	10,438800
2283,000000	10,408900
2282,000000	10,404800
2281,000000	10,376300
2280,000000	10,356900
2279,000000	10,321800
2278,000000	10,303200
2277,000000	10,264600
2276,000000	10,224600
2275,000000	10,192800
2274,000000	10,177900
2273,000000	10,148000
2272,000000	10,132000
2271,000000	10,112200
2270,000000	10,115100
2269,000000	10,138000
2268,000000	10,172500
2267,000000	10,201300
2266,000000	10,256700
2265,000000	10,324300
2264,000000	10,437900
2263,000000	10,536000
2262,000000	10,660900
2261,000000	10,813900
2260,000000	10,971200
2259,000000	11,153200
2258,000000	11,344900
2257,000000	11,527500
2256,000000	11,748800
2255,000000	11,959600
2254,000000	12,183000
2253,000000	12,401200
2252,000000	12,611400
2251,000000	12,822300
2250,000000	13,036100
2249,000000	13,234400
2248,000000	13,413900
2247,000000	13,575400
2246,000000	13,752600
2245,000000	13,912600
2244,000000	14,055300
2243,000000	14,192000
2242,000000	14,308500
2241,000000	14,434300
2240,000000	14,512300
2239,000000	14,606900
2238,000000	14,700800
2237,000000	14,767300
2236,000000	14,851800
2235,000000	14,894600
2234,000000	14,954400
2233,000000	15,022900
2232,000000	15,048500
2231,000000	15,079000
2230,000000	15,120800
2229,000000	15,134600
2228,000000	15,159600
2227,000000	15,155900
2226,000000	15,142200
2225,000000	15,157300
2224,000000	15,144600
2223,000000	15,139500
2222,000000	15,106700
2221,000000	15,065700
2220,000000	15,040400
2219,000000	15,006200
2218,000000	14,973400
2217,000000	14,944100
2216,000000	14,916200
2215,000000	14,852200
2214,000000	14,845500
2213,000000	14,803100
2212,000000	14,765400
2211,000000	14,729500
2210,000000	14,682500
2209,000000	14,673600
2208,000000	14,640400
2207,000000	14,616000
2206,000000	14,591800
2205,000000	14,559400
2204,000000	14,502700
2203,000000	14,475000
2202,000000	14,464200
2201,000000	14,453200
2200,000000	14,434800
2199,000000	14,400300
2198,000000	14,379200
2197,000000	14,348600
2196,000000	14,340900
2195,000000	14,328000
2194,000000	14,317300
2193,000000	14,269000
2192,000000	14,248500
2191,000000	14,271300
2190,000000	14,251600
2189,000000	14,240800
2188,000000	14,219600
2187,000000	14,213600
2186,000000	14,167700
2185,000000	14,178100
2184,000000	14,178300
2183,000000	14,142900
2182,000000	14,142500
2181,000000	14,107500
2180,000000	14,122800
2179,000000	14,103400
2178,000000	14,089100
2177,000000	14,072900
2176,000000	14,077100
2175,000000	14,070400
2174,000000	14,084800
2173,000000	14,083200
2172,000000	14,080900
2171,000000	14,102100
2170,000000	14,116100
2169,000000	14,125300
2168,000000	14,132100
2167,000000	14,160800
2166,000000	14,186900
2165,000000	14,215900
2164,000000	14,267500
2163,000000	14,295900
2162,000000	14,313500
2161,000000	14,357600
2160,000000	14,380200
2159,000000	14,415400
2158,000000	14,467100
2157,000000	14,512800
2156,000000	14,555900
2155,000000	14,607300
2154,000000	14,655900
2153,000000	14,697900
2152,000000	14,744100
2151,000000	14,795600
2150,000000	14,866100
2149,000000	14,921400
2148,000000	14,970600
2147,000000	15,026900
2146,000000	15,054500
2145,000000	15,110800
2144,000000	15,172700
2143,000000	15,217000
2142,000000	15,249200
2141,000000	15,300200
2140,000000	15,353900
2139,000000	15,396400
2138,000000	15,410900
2137,000000	15,454700
2136,000000	15,486100
2135,000000	15,517800
2134,000000	15,542000
2133,000000	15,576200
2132,000000	15,595700
2131,000000	15,610900
2130,000000	15,626700
2129,000000	15,643300
2128,000000	15,650600
2127,000000	15,662300
2126,000000	15,677500
2125,000000	15,681200
2124,000000	15,654300
2123,000000	15,633700
2122,000000	15,623400
2121,000000	15,625300
2120,000000	15,614400
2119,000000	15,616100
2118,000000	15,596400
2117,000000	15,569600
2116,000000	15,537800
2115,000000	15,504000
2114,000000	15,486900
2113,000000	15,456200
2112,000000	15,415500
2111,000000	15,375200
2110,000000	15,343000
2109,000000	15,322800
2108,000000	15,293200
2107,000000	15,250600
2106,000000	15,221300
2105,000000	15,199900
2104,000000	15,165400
2103,000000	15,125600
2102,000000	15,096300
2101,000000	15,072300
2100,000000	15,039200
2099,000000	14,997200
2098,000000	14,965700
2097,000000	14,938500
2096,000000	14,919200
2095,000000	14,884800
2094,000000	14,845100
2093,000000	14,820600
2092,000000	14,803100
2091,000000	14,790900
2090,000000	14,766600
2089,000000	14,738800
2088,000000	14,722900
2087,000000	14,685300
2086,000000	14,641100
2085,000000	14,618200
2084,000000	14,593600
2083,000000	14,579400
2082,000000	14,545300
2081,000000	14,495700
2080,000000	14,462100
2079,000000	14,416200
2078,000000	14,372400
2077,000000	14,332800
2076,000000	14,274700
2075,000000	14,219900
2074,000000	14,167200
2073,000000	14,101300
2072,000000	14,045800
2071,000000	13,982900
2070,000000	13,905800
2069,000000	13,842400
2068,000000	13,778200
2067,000000	13,710200
2066,000000	13,637800
2065,000000	13,563400
2064,000000	13,491200
2063,000000	13,423900
2062,000000	13,350400
2061,000000	13,290400
2060,000000	13,236700
2059,000000	13,165500
2058,000000	13,103700
2057,000000	13,049400
2056,000000	13,002500
2055,000000	12,964600
2054,000000	12,928000
2053,000000	12,895700
2052,000000	12,890400
2051,000000	12,904800
2050,000000	12,920900
2049,000000	12,941000
2048,000000	12,974100
2047,000000	13,020900
2046,000000	13,071700
2045,000000	13,126800
2044,000000	13,197600
2043,000000	13,269400
2042,000000	13,343600
2041,000000	13,422800
2040,000000	13,502100
2039,000000	13,581400
2038,000000	13,650000
2037,000000	13,714600
2036,000000	13,792000
2035,000000	13,858600
2034,000000	13,909700
2033,000000	13,956600
2032,000000	14,012500
2031,000000	14,052300
2030,000000	14,104400
2029,000000	14,140000
2028,000000	14,172600
2027,000000	14,196500
2026,000000	14,216400
2025,000000	14,246900
2024,000000	14,261700
2023,000000	14,280900
2022,000000	14,287800
2021,000000	14,308100
2020,000000	14,298800
2019,000000	14,298000
2018,000000	14,314600
2017,000000	14,324000
2016,000000	14,317500
2015,000000	14,311000
2014,000000	14,294700
2013,000000	14,283600
2012,000000	14,270400
2011,000000	14,247600
2010,000000	14,218900
2009,000000	14,195900
2008,000000	14,163600
2007,000000	14,157700
2006,000000	14,123600
2005,000000	14,090500
2004,000000	14,050900
2003,000000	14,005900
2002,000000	13,980600
2001,000000	13,919400
2000,000000	13,850900
1999,000000	13,807100
1998,000000	13,769200
1997,000000	13,714000
1996,000000	13,663200
1995,000000	13,597400
1994,000000	13,541500
1993,000000	13,461500
1992,000000	13,384500
1991,000000	13,328600
1990,000000	13,263000
1989,000000	13,197800
1988,000000	13,117900
1987,000000	13,047600
1986,000000	12,958300
1985,000000	12,881400
1984,000000	12,812100
1983,000000	12,723900
1982,000000	12,649500
1981,000000	12,575200
1980,000000	12,488900
1979,000000	12,413200
1978,000000	12,354400
1977,000000	12,266300
1976,000000	12,185900
1975,000000	12,108600
1974,000000	12,029900
1973,000000	11,974400
1972,000000	11,897000
1971,000000	11,843600
1970,000000	11,748500
1969,000000	11,697700
1968,000000	11,623600
1967,000000	11,576200
1966,000000	11,475100
1965,000000	11,417000
1964,000000	11,330300
1963,000000	11,285900
1962,000000	11,233900
1961,000000	11,196700
1960,000000	11,108100
1959,000000	11,062700
1958,000000	10,988600
1957,000000	10,929000
1956,000000	10,884100
1955,000000	10,836900
1954,000000	10,794800
1953,000000	10,723700
1952,000000	10,657000
1951,000000	10,614200
1950,000000	10,580500
1949,000000	10,529900
1948,000000	10,476600
1947,000000	10,417600
1946,000000	10,382300
1945,000000	10,360600
1944,000000	10,321800
1943,000000	10,320400
1942,000000	10,283700
1941,000000	10,266200
1940,000000	10,258000
1939,000000	10,266400
1938,000000	10,261700
1937,000000	10,239300
1936,000000	10,246400
1935,000000	10,241700
1934,000000	10,270000
1933,000000	10,283100
1932,000000	10,310400
1931,000000	10,323800
1930,000000	10,369900
1929,000000	10,448200
1928,000000	10,496200
1927,000000	10,549500
1926,000000	10,617700
1925,000000	10,711200
1924,000000	10,766900
1923,000000	10,838800
1922,000000	10,947000
1921,000000	11,032400
1920,000000	11,146600
1919,000000	11,271800
1918,000000	11,369100
1917,000000	11,482700
1916,000000	11,594000
1915,000000	11,724400
1914,000000	11,859100
1913,000000	12,027400
1912,000000	12,202800
1911,000000	12,379600
1910,000000	12,527200
1909,000000	12,671200
1908,000000	12,864700
1907,000000	13,042700
1906,000000	13,253500
1905,000000	13,503400
1904,000000	13,741600
1903,000000	14,003800
1902,000000	14,247200
1901,000000	14,472000
1900,000000	14,734300
1899,000000	15,007000
1898,000000	15,286600
1897,000000	15,602100
1896,000000	15,882300
1895,000000	16,154400
1894,000000	16,457600
1893,000000	16,760700
1892,000000	17,103400
1891,000000	17,524700
1890,000000	17,933200
1889,000000	18,315900
1888,000000	18,704600
1887,000000	19,120100
1886,000000	19,520600
1885,000000	19,968700
1884,000000	20,440300
1883,000000	20,940000
1882,000000	21,467700
1881,000000	21,940900
1880,000000	22,444000
1879,000000	22,923200
1878,000000	23,373200
1877,000000	23,855200
1876,000000	24,345700
1875,000000	24,796500
1874,000000	25,247100
1873,000000	25,677300
1872,000000	26,095700
1871,000000	26,477200
1870,000000	26,830700
1869,000000	27,133300
1868,000000	27,429700
1867,000000	27,660700
1866,000000	27,854100
1865,000000	28,025400
1864,000000	28,188700
1863,000000	28,338800
1862,000000	28,509300
1861,000000	28,684400
1860,000000	28,851500
1859,000000	29,006900
1858,000000	29,133800
1857,000000	29,239400
1856,000000	29,322300
1855,000000	29,393000
1854,000000	29,454300
1853,000000	29,496500
1852,000000	29,491300
1851,000000	29,501800
1850,000000	29,542100
1849,000000	29,592000
1848,000000	29,649900
1847,000000	29,652500
1846,000000	29,607700
1845,000000	29,555300
1844,000000	29,517900
1843,000000	29,497800
1842,000000	29,507200
1841,000000	29,535600
1840,000000	29,538500
1839,000000	29,513200
1838,000000	29,483000
1837,000000	29,461300
1836,000000	29,412500
1835,000000	29,355800
1834,000000	29,290500
1833,000000	29,217200
1832,000000	29,151300
1831,000000	29,110300
1830,000000	29,061800
1829,000000	29,022800
1828,000000	28,966300
1827,000000	28,899900
1826,000000	28,827800
1825,000000	28,760500
1824,000000	28,684200
1823,000000	28,643100
1822,000000	28,636200
1821,000000	28,641800
1820,000000	28,622400
1819,000000	28,583600
1818,000000	28,523200
1817,000000	28,479100
1816,000000	28,470300
1815,000000	28,448800
1814,000000	28,411100
1813,000000	28,391400
1812,000000	28,392900
1811,000000	28,376000
1810,000000	28,334700
1809,000000	28,280000
1808,000000	28,244700
1807,000000	28,216900
1806,000000	28,181700
1805,000000	28,132100
1804,000000	28,064400
1803,000000	28,010300
1802,000000	27,979800
1801,000000	27,938400
1800,000000	27,887500
1799,000000	27,825300
1798,000000	27,760300
1797,000000	27,703600
1796,000000	27,657400
1795,000000	27,613700
1794,000000	27,568000
1793,000000	27,522800
1792,000000	27,471000
1791,000000	27,429900
1790,000000	27,378700
1789,000000	27,313000
1788,000000	27,276200
1787,000000	27,247900
1786,000000	27,195800
1785,000000	27,131400
1784,000000	27,083600
1783,000000	27,026300
1782,000000	26,964400
1781,000000	26,901600
1780,000000	26,843100
1779,000000	26,788500
1778,000000	26,716600
1777,000000	26,643100
1776,000000	26,567000
1775,000000	26,486500
1774,000000	26,405000
1773,000000	26,314500
1772,000000	26,210700
1771,000000	26,100300
1770,000000	25,989700
1769,000000	25,900000
1768,000000	25,795000
1767,000000	25,677600
1766,000000	25,582700
1765,000000	25,489100
1764,000000	25,421200
1763,000000	25,379600
1762,000000	25,351500
1761,000000	25,356500
1760,000000	25,385400
1759,000000	25,425100
1758,000000	25,468700
1757,000000	25,528200
1756,000000	25,597000
1755,000000	25,664900
1754,000000	25,738600
1753,000000	25,780700
1752,000000	25,816300
1751,000000	25,845000
1750,000000	25,852400
1749,000000	25,852700
1748,000000	25,830800
1747,000000	25,802300
1746,000000	25,754200
1745,000000	25,694500
1744,000000	25,617100
1743,000000	25,503900
1742,000000	25,382400
1741,000000	25,241700
1740,000000	25,076200
1739,000000	24,891600
1738,000000	24,705600
1737,000000	24,504000
1736,000000	24,310800
1735,000000	24,160500
1734,000000	24,026400
1733,000000	23,932800
1732,000000	23,862300
1731,000000	23,824500
1730,000000	23,845700
1729,000000	23,891700
1728,000000	23,958200
1727,000000	24,043400
1726,000000	24,111400
1725,000000	24,191800
1724,000000	24,264700
1723,000000	24,325300
1722,000000	24,395200
1721,000000	24,466100
1720,000000	24,535100
1719,000000	24,638600
1718,000000	24,719100
1717,000000	24,808800
1716,000000	24,906100
1715,000000	25,023300
1714,000000	25,146800
1713,000000	25,267000
1712,000000	25,388100
1711,000000	25,486100
1710,000000	25,566400
1709,000000	25,637000
1708,000000	25,696400
1707,000000	25,711400
1706,000000	25,728200
1705,000000	25,732000
1704,000000	25,715100
1703,000000	25,696500
1702,000000	25,662200
1701,000000	25,597500
1700,000000	25,528100
1699,000000	25,421100
1698,000000	25,329700
1697,000000	25,226200
1696,000000	25,143300
1695,000000	25,086100
1694,000000	25,043200
1693,000000	25,053800
1692,000000	25,084000
1691,000000	25,165100
1690,000000	25,261400
1689,000000	25,368200
1688,000000	25,488300
1687,000000	25,565700
1686,000000	25,642500
1685,000000	25,701600
1684,000000	25,775700
1683,000000	25,887400
1682,000000	26,047000
1681,000000	26,281700
1680,000000	26,572500
1679,000000	26,943300
1678,000000	27,344100
1677,000000	27,775100
1676,000000	28,208600
1675,000000	28,589900
1674,000000	28,951700
1673,000000	29,277300
1672,000000	29,539400
1671,000000	29,791500
1670,000000	30,012700
1669,000000	30,206200
1668,000000	30,397100
1667,000000	30,514600
1666,000000	30,658300
1665,000000	30,776100
1664,000000	30,871700
1663,000000	30,978800
1662,000000	31,074200
1661,000000	31,156400
1660,000000	31,235700
1659,000000	31,294500
1658,000000	31,334600
1657,000000	31,397100
1656,000000	31,412700
1655,000000	31,436500
1654,000000	31,478800
1653,000000	31,463900
1652,000000	31,456700
1651,000000	31,448000
1650,000000	31,431800
1649,000000	31,420900
1648,000000	31,383600
1647,000000	31,362600
1646,000000	31,305100
1645,000000	31,265900
1644,000000	31,234300
1643,000000	31,195000
1642,000000	31,167000
1641,000000	31,096800
1640,000000	31,050000
1639,000000	31,005200
1638,000000	30,946800
1637,000000	30,887700
1636,000000	30,817600
1635,000000	30,762100
1634,000000	30,702000
1633,000000	30,642500
1632,000000	30,571100
1631,000000	30,497500
1630,000000	30,428200
1629,000000	30,330500
1628,000000	30,280600
1627,000000	30,192700
1626,000000	30,110100
1625,000000	30,040100
1624,000000	29,977100
1623,000000	29,890000
1622,000000	29,801400
1621,000000	29,733300
1620,000000	29,645300
1619,000000	29,585300
1618,000000	29,515000
1617,000000	29,435500
1616,000000	29,364300
1615,000000	29,290400
1614,000000	29,212100
1613,000000	29,128000
1612,000000	29,064700
1611,000000	28,987000
1610,000000	28,904000
1609,000000	28,838400
1608,000000	28,749800
1607,000000	28,692100
1606,000000	28,612300
1605,000000	28,504900
1604,000000	28,436700
1603,000000	28,361900
1602,000000	28,277700
1601,000000	28,194300
1600,000000	28,103800
1599,000000	28,039200
1598,000000	27,980300
1597,000000	27,885800
1596,000000	27,809000
1595,000000	27,756100
1594,000000	27,688200
1593,000000	27,617000
1592,000000	27,557200
1591,000000	27,494300
1590,000000	27,437300
1589,000000	27,385500
1588,000000	27,306900
1587,000000	27,237800
1586,000000	27,174500
1585,000000	27,117500
1584,000000	27,069500
1583,000000	27,021300
1582,000000	26,956200
1581,000000	26,894800
1580,000000	26,847600
1579,000000	26,798000
1578,000000	26,768600
1577,000000	26,746100
1576,000000	26,717200
1575,000000	26,653400
1574,000000	26,641600
1573,000000	26,610800
1572,000000	26,596200
1571,000000	26,569400
1570,000000	26,551600
1569,000000	26,532000
1568,000000	26,517200
1567,000000	26,502500
1566,000000	26,504600
1565,000000	26,488300
1564,000000	26,478100
1563,000000	26,478500
1562,000000	26,476500
1561,000000	26,459100
1560,000000	26,448100
1559,000000	26,422000
1558,000000	26,416100
1557,000000	26,409200
1556,000000	26,360100
1555,000000	26,334700
1554,000000	26,300700
1553,000000	26,266300
1552,000000	26,217500
1551,000000	26,181300
1550,000000	26,138500
1549,000000	26,099800
1548,000000	26,071100
1547,000000	26,019900
1546,000000	25,969400
1545,000000	25,912600
1544,000000	25,879900
1543,000000	25,829400
1542,000000	25,788500
1541,000000	25,756600
1540,000000	25,711000
1539,000000	25,668000
1538,000000	25,640700
1537,000000	25,630400
1536,000000	25,586700
1535,000000	25,544300
1534,000000	25,536900
1533,000000	25,509600
1532,000000	25,455300
1531,000000	25,407500
1530,000000	25,370200
1529,000000	25,320500
1528,000000	25,270300
1527,000000	25,231400
1526,000000	25,189200
1525,000000	25,144000
1524,000000	25,090000
1523,000000	25,041300
1522,000000	24,985500
1521,000000	24,931600
1520,000000	24,883600
1519,000000	24,825500
1518,000000	24,767200
1517,000000	24,722700
1516,000000	24,663600
1515,000000	24,604800
1514,000000	24,549200
1513,000000	24,486700
1512,000000	24,423300
1511,000000	24,356800
1510,000000	24,296500
1509,000000	24,227700
1508,000000	24,165200
1507,000000	24,094700
1506,000000	24,017800
1505,000000	23,965900
1504,000000	23,908900
1503,000000	23,840800
1502,000000	23,783500
1501,000000	23,714100
1500,000000	23,645800
1499,000000	23,593000
1498,000000	23,537300
1497,000000	23,476400
1496,000000	23,423100
1495,000000	23,385600
1494,000000	23,342600
1493,000000	23,293200
1492,000000	23,250400
1491,000000	23,212400
1490,000000	23,169100
1489,000000	23,136500
1488,000000	23,101800
1487,000000	23,078100
1486,000000	23,037800
1485,000000	22,981500
1484,000000	22,945700
1483,000000	22,918900
1482,000000	22,899600
1481,000000	22,875000
1480,000000	22,853700
1479,000000	22,822400
1478,000000	22,797300
1477,000000	22,793400
1476,000000	22,776900
1475,000000	22,766500
1474,000000	22,752900
1473,000000	22,762000
1472,000000	22,782400
1471,000000	22,790100
1470,000000	22,784300
1469,000000	22,774700
1468,000000	22,783900
1467,000000	22,786300
1466,000000	22,787200
1465,000000	22,805100
1464,000000	22,814000
1463,000000	22,823600
1462,000000	22,834300
1461,000000	22,858800
1460,000000	22,893000
1459,000000	22,931000
1458,000000	22,965200
1457,000000	23,009400
1456,000000	23,046000
1455,000000	23,107100
1454,000000	23,159800
1453,000000	23,201200
1452,000000	23,256600
1451,000000	23,327800
1450,000000	23,413000
1449,000000	23,453900
1448,000000	23,500900
1447,000000	23,570300
1446,000000	23,642600
1445,000000	23,739000
1444,000000	23,797000
1443,000000	23,865100
1442,000000	23,946800
1441,000000	24,036700
1440,000000	24,116600
1439,000000	24,208400
1438,000000	24,311800
1437,000000	24,380900
1436,000000	24,451700
1435,000000	24,556900
1434,000000	24,654400
1433,000000	24,771000
1432,000000	24,890000
1431,000000	25,002400
1430,000000	25,110600
1429,000000	25,233100
1428,000000	25,365700
1427,000000	25,505100
1426,000000	25,659400
1425,000000	25,812400
1424,000000	25,988700
1423,000000	26,189800
1422,000000	26,368900
1421,000000	26,539900
1420,000000	26,748300
1419,000000	26,976700
1418,000000	27,204800
1417,000000	27,393500
1416,000000	27,576800
1415,000000	27,846100
1414,000000	28,124800
1413,000000	28,408500
1412,000000	28,662900
1411,000000	28,909000
1410,000000	29,229200
1409,000000	29,593900
1408,000000	29,934700
1407,000000	30,303700
1406,000000	30,666400
1405,000000	31,032600
1404,000000	31,427600
1403,000000	31,803600
1402,000000	32,198800
1401,000000	32,610000
1400,000000	33,073800
1399,000000	33,454200
1398,000000	33,792800
1397,000000	34,079700
1396,000000	34,460500
1395,000000	34,884500
1394,000000	35,243600
1393,000000	35,558700
1392,000000	35,869300
1391,000000	36,241900
1390,000000	36,613200
1389,000000	36,966600
1388,000000	37,415100
1387,000000	37,926400
1386,000000	38,362600
1385,000000	38,874400
1384,000000	39,406200
1383,000000	39,966700
1382,000000	40,544600
1381,000000	41,081800
1380,000000	41,482700
1379,000000	41,745300
1378,000000	42,103600
1377,000000	42,299900
1376,000000	42,514000
1375,000000	42,723800
1374,000000	42,945700
1373,000000	43,179100
1372,000000	43,488600
1371,000000	43,818100
1370,000000	44,176700
1369,000000	44,472400
1368,000000	44,758800
1367,000000	45,047900
1366,000000	45,307900
1365,000000	45,514700
1364,000000	45,756800
1363,000000	45,924300
1362,000000	46,115800
1361,000000	46,311000
1360,000000	46,496000
1359,000000	46,575800
1358,000000	46,644000
1357,000000	46,747400
1356,000000	46,865300
1355,000000	47,046100
1354,000000	47,308100
1353,000000	47,650700
1352,000000	48,008200
1351,000000	48,395600
1350,000000	48,786900
1349,000000	49,219800
1348,000000	49,601000
1347,000000	49,960500
1346,000000	50,321600
1345,000000	50,627700
1344,000000	50,958200
1343,000000	51,298100
1342,000000	51,614900
1341,000000	51,920700
1340,000000	52,209800
1339,000000	52,497700
1338,000000	52,794000
1337,000000	53,069700
1336,000000	53,368400
1335,000000	53,640600
1334,000000	53,922600
1333,000000	54,172000
1332,000000	54,428300
1331,000000	54,703100
1330,000000	54,942900
1329,000000	55,191300
1328,000000	55,412000
1327,000000	55,630000
1326,000000	55,846400
1325,000000	56,064200
1324,000000	56,262000
1323,000000	56,446300
1322,000000	56,628900
1321,000000	56,802900
1320,000000	56,978900
1319,000000	57,149800
1318,000000	57,324400
1317,000000	57,468500
1316,000000	57,617500
1315,000000	57,749800
1314,000000	57,890200
1313,000000	58,031000
1312,000000	58,174300
1311,000000	58,284000
1310,000000	58,413600
1309,000000	58,521600
1308,000000	58,625400
1307,000000	58,711300
1306,000000	58,802400
1305,000000	58,895600
1304,000000	58,971000
1303,000000	59,040900
1302,000000	59,101700
1301,000000	59,155800
1300,000000	59,209500
1299,000000	59,259700
1298,000000	59,300600
1297,000000	59,333500
1296,000000	59,375700
1295,000000	59,405200
1294,000000	59,425900
1293,000000	59,442300
1292,000000	59,460600
1291,000000	59,464300
1290,000000	59,485500
1289,000000	59,493100
1288,000000	59,474300
1287,000000	59,450100
1286,000000	59,435800
1285,000000	59,401500
1284,000000	59,365000
1283,000000	59,330600
1282,000000	59,301500
1281,000000	59,266800
1280,000000	59,230600
1279,000000	59,189200
1278,000000	59,151900
1277,000000	59,114600
1276,000000	59,085700
1275,000000	59,047800
1274,000000	59,021400
1273,000000	58,978600
1272,000000	58,948900
1271,000000	58,933600
1270,000000	58,929600
1269,000000	58,920300
1268,000000	58,883600
1267,000000	58,860200
1266,000000	58,850900
1265,000000	58,823800
1264,000000	58,783400
1263,000000	58,767900
1262,000000	58,732800
1261,000000	58,703500
1260,000000	58,683400
1259,000000	58,648600
1258,000000	58,608900
1257,000000	58,580500
1256,000000	58,542500
1255,000000	58,505800
1254,000000	58,459500
1253,000000	58,419800
1252,000000	58,388400
1251,000000	58,335900
1250,000000	58,263700
1249,000000	58,194900
1248,000000	58,122400
1247,000000	58,047600
1246,000000	57,980400
1245,000000	57,877400
1244,000000	57,770200
1243,000000	57,687000
1242,000000	57,588400
1241,000000	57,473700
1240,000000	57,361100
1239,000000	57,248500
1238,000000	57,130400
1237,000000	57,017100
1236,000000	56,902300
1235,000000	56,784800
1234,000000	56,641800
1233,000000	56,500400
1232,000000	56,369700
1231,000000	56,228600
1230,000000	56,082200
1229,000000	55,942800
1228,000000	55,792600
1227,000000	55,636800
1226,000000	55,489300
1225,000000	55,344400
1224,000000	55,184700
1223,000000	55,018200
1222,000000	54,859400
1221,000000	54,703800
1220,000000	54,547900
1219,000000	54,383800
1218,000000	54,229100
1217,000000	54,088400
1216,000000	53,949900
1215,000000	53,815700
1214,000000	53,683000
1213,000000	53,567500
1212,000000	53,447000
1211,000000	53,325300
1210,000000	53,210100
1209,000000	53,082000
1208,000000	52,974800
1207,000000	52,879000
1206,000000	52,786100
1205,000000	52,703700
1204,000000	52,630200
1203,000000	52,557300
1202,000000	52,510100
1201,000000	52,476100
1200,000000	52,429600
1199,000000	52,385800
1198,000000	52,331900
1197,000000	52,260400
1196,000000	52,145700
1195,000000	52,005900
1194,000000	51,839800
1193,000000	51,639300
1192,000000	51,379300
1191,000000	51,077300
1190,000000	50,727900
1189,000000	50,381500
1188,000000	50,053500
1187,000000	49,798800
1186,000000	49,619700
1185,000000	49,522400
1184,000000	49,526400
1183,000000	49,632700
1182,000000	49,836900
1181,000000	50,138200
1180,000000	50,511200
1179,000000	50,928000
1178,000000	51,372100
1177,000000	51,765400
1176,000000	52,127600
1175,000000	52,437900
1174,000000	52,732200
1173,000000	53,010500
1172,000000	53,299700
1171,000000	53,569600
1170,000000	53,858400
1169,000000	54,142500
1168,000000	54,448900
1167,000000	54,765700
1166,000000	55,088900
1165,000000	55,407900
1164,000000	55,738600
1163,000000	56,075300
1162,000000	56,419200
1161,000000	56,784300
1160,000000	57,137800
1159,000000	57,483600
1158,000000	57,828200
1157,000000	58,169700
1156,000000	58,483800
1155,000000	58,786000
1154,000000	59,046100
1153,000000	59,282500
1152,000000	59,484600
1151,000000	59,660900
1150,000000	59,790800
1149,000000	59,920500
1148,000000	60,040300
1147,000000	60,144900
1146,000000	60,298600
1145,000000	60,466900
1144,000000	60,698200
1143,000000	60,939400
1142,000000	61,248000
1141,000000	61,588200
1140,000000	61,954800
1139,000000	62,316100
1138,000000	62,695700
1137,000000	63,102600
1136,000000	63,508100
1135,000000	63,952800
1134,000000	64,419000
1133,000000	64,837500
1132,000000	65,208100
1131,000000	65,564800
1130,000000	65,898400
1129,000000	66,240100
1128,000000	66,509100
1127,000000	66,734500
1126,000000	66,951200
1125,000000	67,105600
1124,000000	67,235000
1123,000000	67,370200
1122,000000	67,447700
1121,000000	67,530700
1120,000000	67,606500
1119,000000	67,661400
1118,000000	67,719300
1117,000000	67,761000
1116,000000	67,788700
1115,000000	67,809900
1114,000000	67,839600
1113,000000	67,847300
1112,000000	67,849300
1111,000000	67,858500
1110,000000	67,860600
1109,000000	67,862300
1108,000000	67,867600
1107,000000	67,877800
1106,000000	67,869400
1105,000000	67,880100
1104,000000	67,882600
1103,000000	67,871400
1102,000000	67,895300
1101,000000	67,883800
1100,000000	67,883900
1099,000000	67,871700
1098,000000	67,897200
1097,000000	67,897900
1096,000000	67,874600
1095,000000	67,862000
1094,000000	67,862300
1093,000000	67,833800
1092,000000	67,825000
1091,000000	67,785000
1090,000000	67,777800
1089,000000	67,750900
1088,000000	67,704900
1087,000000	67,696600
1086,000000	67,666100
1085,000000	67,623300
1084,000000	67,601500
1083,000000	67,576400
1082,000000	67,503900
1081,000000	67,516500
1080,000000	67,470700
1079,000000	67,433900
1078,000000	67,407200
1077,000000	67,360500
1076,000000	67,336500
1075,000000	67,310000
1074,000000	67,274200
1073,000000	67,237700
1072,000000	67,192900
1071,000000	67,176300
1070,000000	67,148700
1069,000000	67,100000
1068,000000	67,073900
1067,000000	67,031200
1066,000000	67,016300
1065,000000	66,973700
1064,000000	66,928900
1063,000000	66,891700
1062,000000	66,855500
1061,000000	66,821400
1060,000000	66,789500
1059,000000	66,743400
1058,000000	66,721500
1057,000000	66,661000
1056,000000	66,627700
1055,000000	66,587900
1054,000000	66,558000
1053,000000	66,488800
1052,000000	66,482300
1051,000000	66,437400
1050,000000	66,389800
1049,000000	66,355900
1048,000000	66,331700
1047,000000	66,304600
1046,000000	66,279100
1045,000000	66,244000
1044,000000	66,217100
1043,000000	66,196800
1042,000000	66,174800
1041,000000	66,162500
1040,000000	66,123400
1039,000000	66,111400
1038,000000	66,082600
1037,000000	66,065800
1036,000000	66,032300
1035,000000	65,986900
1034,000000	65,966400
1033,000000	65,915700
1032,000000	65,889100
1031,000000	65,872900
1030,000000	65,832800
1029,000000	65,781200
1028,000000	65,754600
1027,000000	65,710800
1026,000000	65,675100
1025,000000	65,632100
1024,000000	65,590800
1023,000000	65,533800
1022,000000	65,486700
1021,000000	65,441500
1020,000000	65,404600
1019,000000	65,389800
1018,000000	65,339400
1017,000000	65,304600
1016,000000	65,269700
1015,000000	65,246900
1014,000000	65,240600
1013,000000	65,241200
1012,000000	65,226500
1011,000000	65,223400
1010,000000	65,252200
1009,000000	65,262000
1008,000000	65,271000
1007,000000	65,293000
1006,000000	65,329600
1005,000000	65,349800
1004,000000	65,389500
1003,000000	65,413200
1002,000000	65,448300
1001,000000	65,481500
1000,000000	65,504300
999,000000	65,533100
998,000000	65,568300
997,000000	65,607300
996,000000	65,650100
995,000000	65,700300
994,000000	65,745700
993,000000	65,782500
992,000000	65,842600
991,000000	65,889500
990,000000	65,936300
989,000000	66,009300
988,000000	66,068700
987,000000	66,136000
986,000000	66,203300
985,000000	66,258500
984,000000	66,316500
983,000000	66,397300
982,000000	66,476300
981,000000	66,549700
980,000000	66,623100
979,000000	66,707800
978,000000	66,783500
977,000000	66,855500
976,000000	66,951700
975,000000	67,021400
974,000000	67,105700
973,000000	67,209400
972,000000	67,283800
971,000000	67,361200
970,000000	67,447300
969,000000	67,535200
968,000000	67,615600
967,000000	67,696600
966,000000	67,793400
965,000000	67,899300
964,000000	67,997700
963,000000	68,092600
962,000000	68,193500
961,000000	68,299600
960,000000	68,411100
959,000000	68,521500
958,000000	68,622100
957,000000	68,724600
956,000000	68,821100
955,000000	68,930200
954,000000	69,048900
953,000000	69,141300
952,000000	69,235400
951,000000	69,334400
950,000000	69,427200
949,000000	69,543000
948,000000	69,641200
947,000000	69,714500
946,000000	69,803900
945,000000	69,900900
944,000000	69,991800
943,000000	70,086100
942,000000	70,164700
941,000000	70,232400
940,000000	70,312600
939,000000	70,379700
938,000000	70,449200
937,000000	70,530300
936,000000	70,605300
935,000000	70,679200
934,000000	70,745200
933,000000	70,813300
932,000000	70,880700
931,000000	70,951200
930,000000	71,024600
929,000000	71,085900
928,000000	71,134600
927,000000	71,194600
926,000000	71,247700
925,000000	71,305900
924,000000	71,370300
923,000000	71,427400
922,000000	71,479400
921,000000	71,532600
920,000000	71,576700
919,000000	71,624800
918,000000	71,664100
917,000000	71,698700
916,000000	71,737300
915,000000	71,778200
914,000000	71,812900
913,000000	71,835600
912,000000	71,869600
911,000000	71,897400
910,000000	71,926300
909,000000	71,974800
908,000000	72,020600
907,000000	72,061000
906,000000	72,109600
905,000000	72,146100
904,000000	72,209700
903,000000	72,277600
902,000000	72,348000
901,000000	72,418300
900,000000	72,485800
899,000000	72,557100
898,000000	72,631900
897,000000	72,686000
896,000000	72,750600
895,000000	72,823600
894,000000	72,880500
893,000000	72,938300
892,000000	72,986100
891,000000	73,040400
890,000000	73,080400
889,000000	73,141500
888,000000	73,192100
887,000000	73,227900
886,000000	73,267500
885,000000	73,295700
884,000000	73,329800
883,000000	73,378700
882,000000	73,399300
881,000000	73,440700
880,000000	73,450300
879,000000	73,464700
878,000000	73,472700
877,000000	73,477300
876,000000	73,466300
875,000000	73,433200
874,000000	73,398700
873,000000	73,323900
872,000000	73,218900
871,000000	73,106100
870,000000	73,020100
869,000000	72,956200
868,000000	72,901700
867,000000	72,899700
866,000000	72,859800
865,000000	72,818800
864,000000	72,764200
863,000000	72,708000
862,000000	72,645500
861,000000	72,548800
860,000000	72,474400
859,000000	72,407900
858,000000	72,348000
857,000000	70,619800
856,000000	70,347700
855,000000	69,793600
854,000000	69,790600
853,000000	69,668400
852,000000	69,498800
851,000000	69,600700
850,000000	69,032800
849,000000	68,550500
848,000000	68,719400
847,000000	68,528900
846,000000	68,245400
845,000000	68,332800
844,000000	68,222300
843,000000	68,147000
842,000000	67,918700
841,000000	67,947700
840,000000	67,679600
839,000000	67,553400
838,000000	67,453500
837,000000	67,253700
836,000000	67,101800
835,000000	66,928600
834,000000	66,637600
833,000000	66,575000
832,000000	66,533600
831,000000	66,274300
830,000000	66,057600
829,000000	66,051500
828,000000	65,717800
827,000000	65,628000
826,000000	65,429000
825,000000	65,419400
824,000000	65,052400
823,000000	65,186800
822,000000	65,016400
821,000000	64,813800
820,000000	64,576600
819,000000	64,491400
818,000000	64,360800
817,000000	64,193700
816,000000	64,093000
815,000000	63,793900
814,000000	63,517500
813,000000	63,520500
812,000000	63,413700
811,000000	63,168500
810,000000	62,875700
809,000000	62,881000
808,000000	62,813800
807,000000	62,572400
806,000000	62,409700
805,000000	62,113600
804,000000	61,965200
803,000000	61,899400
802,000000	61,795800
801,000000	61,637600
800,000000	61,466900
799,000000	61,188300
798,000000	61,140200
797,000000	60,846000
796,000000	60,814400
795,000000	60,550500
794,000000	60,502800
793,000000	60,189000
792,000000	59,971200
791,000000	59,792700
790,000000	59,737300
789,000000	59,453400
788,000000	59,319100
787,000000	59,061800
786,000000	58,894300
785,000000	58,844500
784,000000	58,533800
783,000000	58,412400
782,000000	58,173900
781,000000	57,918400
780,000000	57,664100
779,000000	57,436600
778,000000	57,297500
777,000000	56,974000
776,000000	56,783900
775,000000	56,718100
774,000000	56,494700
773,000000	56,227100
772,000000	55,986100
771,000000	55,810000
770,000000	55,598900
769,000000	55,423300
768,000000	55,225900
767,000000	54,983600
766,000000	54,795500
765,000000	54,649200
764,000000	54,411100
763,000000	54,269300
762,000000	53,990100
761,000000	53,844600
760,000000	53,629200
759,000000	53,493500
758,000000	53,416900
757,000000	53,096600
756,000000	52,957600
755,000000	52,783900
754,000000	52,572800
753,000000	52,426200
752,000000	52,266500
751,000000	52,182900
750,000000	51,980300
749,000000	51,791100
748,000000	51,727800
747,000000	51,605300
746,000000	51,400600
745,000000	51,291200
744,000000	51,105000
743,000000	50,958700
742,000000	50,822300
741,000000	50,654300
740,000000	50,593300
739,000000	50,486300
738,000000	50,299000
737,000000	50,182400
736,000000	50,043300
735,000000	49,894900
734,000000	49,809800
733,000000	49,647800
732,000000	49,517900
731,000000	49,410000
730,000000	49,255400
729,000000	49,140300
728,000000	49,010700
727,000000	48,894700
726,000000	48,871100
725,000000	48,658900
724,000000	48,527500
723,000000	48,369000
722,000000	48,232200
721,000000	48,125900
720,000000	47,961700
719,000000	47,861700
718,000000	47,660200
717,000000	47,561300
716,000000	47,402900
715,000000	47,228300
714,000000	47,030100
713,000000	46,854900
712,000000	46,726300
711,000000	46,590500
710,000000	46,383100
709,000000	46,229200
708,000000	46,067500
707,000000	45,858100
706,000000	45,745000
705,000000	45,672300
704,000000	45,493800
703,000000	45,405400
702,000000	45,276400
701,000000	45,205500
700,000000	45,198400
699,000000	45,175600
698,000000	45,141700
697,000000	45,110000
696,000000	45,086000
695,000000	45,158700
694,000000	45,226000
693,000000	45,257400
692,000000	45,289400
691,000000	45,335200
690,000000	45,371200
689,000000	45,524300
688,000000	45,621800
687,000000	45,691900
686,000000	45,842400
685,000000	45,976700
684,000000	46,112800
683,000000	46,241400
682,000000	46,329600
681,000000	46,368300
680,000000	46,492400
679,000000	46,641300
678,000000	46,763800
677,000000	46,874300
676,000000	46,957100
675,000000	47,023500
674,000000	47,124100
673,000000	47,268600
672,000000	47,338800
671,000000	47,418600
670,000000	47,465800
669,000000	47,468400
668,000000	47,509100
667,000000	47,520400
666,000000	47,511500
665,000000	47,490100
664,000000	47,442300
663,000000	47,377600
662,000000	47,302500
661,000000	47,248000
660,000000	47,189700
659,000000	47,085000
658,000000	46,969300
657,000000	46,850900
656,000000	46,692800
655,000000	46,528200
654,000000	46,403300
653,000000	46,269900
652,000000	46,141700
651,000000	46,020300
650,000000	45,874700
649,000000	45,757400
648,000000	45,673100
647,000000	45,607900
646,000000	45,598700
645,000000	45,576100
644,000000	45,560900
643,000000	45,613200
642,000000	45,673700
641,000000	45,763500
640,000000	45,893900
639,000000	46,052500
638,000000	46,268900
637,000000	46,478300
636,000000	46,727400
635,000000	47,023800
634,000000	47,312800
633,000000	47,643400
632,000000	47,993800
631,000000	48,357700
630,000000	48,745100
629,000000	49,136300
628,000000	49,538700
627,000000	49,967700
626,000000	50,398100
625,000000	50,825100
624,000000	51,254500
623,000000	51,723000
622,000000	52,181900
621,000000	52,616500
620,000000	53,060900
619,000000	53,489700
618,000000	53,884600
617,000000	54,292300
616,000000	54,686000
615,000000	55,049600
614,000000	55,418300
613,000000	55,789600
612,000000	56,156300
611,000000	56,464700
610,000000	56,725200
609,000000	57,026600
608,000000	57,302500
607,000000	57,529200
606,000000	57,757700
605,000000	57,965600
604,000000	58,194900
603,000000	58,432400
602,000000	58,648400
601,000000	58,829000
600,000000	58,999200
599,000000	59,120300
598,000000	59,266300
597,000000	59,409300
596,000000	59,521200
595,000000	59,632900
594,000000	59,733500
593,000000	59,787700
592,000000	59,816300
591,000000	59,847000
590,000000	59,858500
589,000000	59,836300
588,000000	59,832100
587,000000	59,816700
586,000000	59,798400
585,000000	59,746100
584,000000	59,703000
583,000000	59,657800
582,000000	59,586300
581,000000	59,508800
580,000000	59,457600
579,000000	59,362600
578,000000	59,269000
577,000000	59,159200
576,000000	59,002300
575,000000	58,867200
574,000000	58,725600
573,000000	58,515200
572,000000	58,315200
571,000000	58,130000
570,000000	57,881300
569,000000	57,616200
568,000000	57,371000
567,000000	57,099500
566,000000	56,807300
565,000000	56,519600
564,000000	56,171900
563,000000	55,815500
562,000000	55,458700
561,000000	55,042600
560,000000	54,588100
559,000000	54,068800
558,000000	53,588400
557,000000	53,106600
556,000000	52,546700
555,000000	51,981300
554,000000	51,396400
553,000000	50,761400
552,000000	50,089700
551,000000	49,365300
550,000000	48,650700
549,000000	47,905600
548,000000	47,133800
547,000000	46,357700
546,000000	45,549200
545,000000	44,699100
544,000000	43,841500
543,000000	42,943500
542,000000	42,095800
541,000000	41,211900
540,000000	40,350200
539,000000	39,490700
538,000000	38,637800
537,000000	37,835200
536,000000	37,013900
535,000000	36,202600
534,000000	35,396100
533,000000	34,622400
532,000000	33,853700
531,000000	33,098100
530,000000	32,347300
529,000000	31,639800
528,000000	30,972800
527,000000	30,308500
526,000000	29,663300
525,000000	29,057600
524,000000	28,460100
523,000000	27,896300
522,000000	27,326800
521,000000	26,800200
520,000000	26,318200
519,000000	25,831000
518,000000	25,350100
517,000000	24,920300
516,000000	24,482900
515,000000	24,056000
514,000000	23,656300
513,000000	23,268400
512,000000	22,916200
511,000000	22,544700
510,000000	22,216500
509,000000	21,883800
508,000000	21,566800
507,000000	21,247200
506,000000	20,913000
505,000000	20,666000
504,000000	20,364100
503,000000	20,102800
502,000000	19,836400
501,000000	19,558800
500,000000	19,331600
499,000000	19,109000
498,000000	18,849900
497,000000	18,602100
496,000000	18,402400
495,000000	18,207200
494,000000	17,955400
493,000000	17,756600
492,000000	17,567300
491,000000	17,354200
490,000000	17,152800
489,000000	16,965200
488,000000	16,763800
487,000000	16,584800
486,000000	16,409400
485,000000	16,219700
484,000000	16,048500
483,000000	15,844300
482,000000	15,651800
481,000000	15,482000
480,000000	15,301000
479,000000	15,118100
478,000000	14,947800
477,000000	14,765300
476,000000	14,589000
475,000000	14,441700
474,000000	14,257400
473,000000	14,078200
472,000000	13,918800
471,000000	13,752600
470,000000	13,592700
469,000000	13,413400
468,000000	13,277800
467,000000	13,096900
466,000000	12,956500
465,000000	12,795000
464,000000	12,622700
463,000000	12,487800
462,000000	12,329400
461,000000	12,167400
460,000000	12,034500
459,000000	11,874700
458,000000	11,706200
457,000000	11,569300
456,000000	11,438800
455,000000	11,302300
454,000000	11,138700
453,000000	11,006300
452,000000	10,855000
451,000000	10,703500
450,000000	10,569200
449,000000	10,442000
448,000000	10,279800
447,000000	10,144400
446,000000	10,016500
445,000000	9,879800
444,000000	9,741200
443,000000	9,610000
442,000000	9,464100
441,000000	9,336200
440,000000	9,209700
439,000000	9,088800
438,000000	8,969000
437,000000	8,842400
436,000000	8,717100
435,000000	8,584000
434,000000	8,465400
433,000000	8,374800
432,000000	8,264800
431,000000	8,145500
430,000000	8,046700
429,000000	7,944200
428,000000	7,853900
427,000000	7,766400
426,000000	7,662800
425,000000	7,583300
424,000000	7,495900
423,000000	7,416500
422,000000	7,363000
421,000000	7,291700
420,000000	7,230700
419,000000	7,143800
418,000000	7,097700
417,000000	7,029100
416,000000	6,979900
415,000000	6,924100
414,000000	6,867700
413,000000	6,814800
412,000000	6,796000
411,000000	6,735400
410,000000	6,688000
409,000000	6,655000
408,000000	6,611300
407,000000	6,569900
406,000000	6,545700
405,000000	6,511100
404,000000	6,469300
403,000000	6,427000
402,000000	6,382400
401,000000	6,365000
400,000000	6,342100
399,000000	6,325100
398,000000	6,281800
397,000000	6,256800
396,000000	6,212200
395,000000	6,177200
394,000000	6,152200
393,000000	6,113400
392,000000	6,068400
391,000000	6,041400
390,000000	6,024300
389,000000	5,978800
388,000000	5,963400
387,000000	5,941700
386,000000	5,896100
385,000000	5,884700
384,000000	5,855900
383,000000	5,815200
382,000000	5,787100
381,000000	5,775200
380,000000	5,744100
379,000000	5,703900
378,000000	5,697400
377,000000	5,682800
376,000000	5,651800
375,000000	5,617300
374,000000	5,646600
373,000000	5,704300
372,000000	5,644500
371,000000	5,528000
370,000000	5,525800
369,000000	5,514700
368,000000	5,469700
367,000000	5,501600
366,000000	5,476200
365,000000	5,473300
364,000000	5,456100
363,000000	5,497700
362,000000	5,525500
361,000000	5,457100
360,000000	5,402300
359,000000	5,383500
358,000000	5,327500
357,000000	5,309600
356,000000	5,308900
355,000000	5,390200
354,000000	5,349600
353,000000	5,245300
352,000000	5,211200
351,000000	5,221900
350,000000	5,254400
349,000000	5,244100
348,000000	5,211300
347,000000	5,202700
346,000000	5,246100
345,000000	5,296400
344,000000	5,232700
343,000000	5,209700
342,000000	5,244200
341,000000	5,263100
340,000000	5,264000
339,000000	5,218400
338,000000	5,226700
337,000000	5,219100
336,000000	5,118800
335,000000	5,144100
334,000000	5,175000
333,000000	5,198100
332,000000	5,172100
331,000000	5,140100
330,000000	5,158200
329,000000	5,100700
328,000000	5,109800
327,000000	5,167700
326,000000	5,260100
325,000000	5,297000
324,000000	5,358800
323,000000	5,256900
322,000000	5,143000
321,000000	5,154100
320,000000	5,194000
319,000000	5,328400
318,000000	5,283700
317,000000	5,050900
316,000000	5,040500
315,000000	5,135500
314,000000	5,132700
313,000000	5,126800
312,000000	5,121900
311,000000	5,114200
310,000000	5,135500
309,000000	5,163800
308,000000	5,168000
307,000000	5,138400
306,000000	5,138900
305,000000	5,169000
304,000000	5,182900
303,000000	5,191400
302,000000	5,164000
301,000000	5,168300
300,000000	5,175500
299,000000	5,189100
298,000000	5,201800
297,000000	5,194200
296,000000	5,181200
295,000000	5,222400
294,000000	5,221400
293,000000	5,209900
292,000000	5,232300
291,000000	5,223500
290,000000	5,216600
289,000000	5,227000
288,000000	5,258700
287,000000	5,282400
286,000000	5,301800
285,000000	5,282000
284,000000	5,298300
283,000000	5,312900
282,000000	5,329700
281,000000	5,346600
280,000000	5,357100
279,000000	5,348500
278,000000	5,347300
277,000000	5,367500
276,000000	5,410200
275,000000	5,452000
274,000000	5,443200
273,000000	5,448500
272,000000	5,487700
271,000000	5,470500
270,000000	5,477400
269,000000	5,478600
268,000000	5,519900
267,000000	5,548400
266,000000	5,579400
265,000000	5,564300
264,000000	5,610400
263,000000	5,638200
262,000000	5,642500
261,000000	5,675900
260,000000	5,701100
259,000000	5,722100
258,000000	5,707100
257,000000	5,742400
256,000000	5,763200
255,000000	5,780900
254,000000	5,767000
253,000000	5,823200
252,000000	5,811700
251,000000	5,799000
250,000000	5,821800
