PE UV       SUBTECH     SPECTRUM    ASCII       PEDS        4.00        
   -1
CICIMAUCR0210-3.ASC
24/06/06
17:17:43.00
24/06/06
17:17:43.00
Vinicio Soto Monge
C. resplendens. Sex F. Dorsal
250,000000
1
Lambda 1050
1050L1511233
PerkinElmer UV WinLab 6.3.2.0749 / 2.02.05 Lambda 900 UV/VIS/NIR, Aug  7 2015 09:38:08

0
0
3350/servo 860,8/2
0
0
UV/VIS
1
1
1
DoubleDePol,CommonBeamDepol,RBeamAtt,SBeamAtt,60mm sphere, WB InGaAs Detector
0
0
0
0
Program
Program
3350/servo 860,8/2
3350/0,2 860,8/0,2
3350/0,2 860,8/0,2
0
15.00
 
 
 
0
 
860,8
319,2
860,8
Front
100
on
S:100 R:100
0
0
0
0
 
0
 
 
 
0
 
 
0
0
0
0
0
 
 
 
 
0
0


0
0
#HDR
-1
-1
#GR
nm
%R
1.0
0.0
2500,000000
-1,000000
2251
8
91,100500
5,644400
#DATA
2500,000000	6,633800
2499,000000	6,702200
2498,000000	6,884800
2497,000000	6,646800
2496,000000	6,593700
2495,000000	6,641400
2494,000000	6,686800
2493,000000	6,672300
2492,000000	6,667200
2491,000000	6,645600
2490,000000	6,616800
2489,000000	6,541700
2488,000000	6,558200
2487,000000	6,525800
2486,000000	6,535100
2485,000000	6,530300
2484,000000	6,604600
2483,000000	6,469000
2482,000000	6,499200
2481,000000	6,585100
2480,000000	6,487500
2479,000000	6,482000
2478,000000	6,515200
2477,000000	6,457500
2476,000000	6,548700
2475,000000	6,517300
2474,000000	6,523400
2473,000000	6,514400
2472,000000	6,520000
2471,000000	6,516400
2470,000000	6,534100
2469,000000	6,502000
2468,000000	6,517900
2467,000000	6,493600
2466,000000	6,477800
2465,000000	6,509500
2464,000000	6,554200
2463,000000	6,553600
2462,000000	6,574300
2461,000000	6,595100
2460,000000	6,564000
2459,000000	6,565100
2458,000000	6,579500
2457,000000	6,598400
2456,000000	6,611300
2455,000000	6,656500
2454,000000	6,661800
2453,000000	6,697500
2452,000000	6,740400
2451,000000	6,773100
2450,000000	6,805500
2449,000000	6,809300
2448,000000	6,837700
2447,000000	6,857900
2446,000000	6,906400
2445,000000	6,932200
2444,000000	6,958600
2443,000000	6,999800
2442,000000	7,006900
2441,000000	7,069000
2440,000000	7,088300
2439,000000	7,103800
2438,000000	7,139400
2437,000000	7,161500
2436,000000	7,175200
2435,000000	7,227900
2434,000000	7,239800
2433,000000	7,280200
2432,000000	7,307500
2431,000000	7,308800
2430,000000	7,335600
2429,000000	7,359700
2428,000000	7,367500
2427,000000	7,406200
2426,000000	7,421900
2425,000000	7,431700
2424,000000	7,454700
2423,000000	7,489300
2422,000000	7,510900
2421,000000	7,527300
2420,000000	7,539200
2419,000000	7,527700
2418,000000	7,554400
2417,000000	7,577000
2416,000000	7,602700
2415,000000	7,594300
2414,000000	7,613600
2413,000000	7,622200
2412,000000	7,649200
2411,000000	7,659600
2410,000000	7,685200
2409,000000	7,704000
2408,000000	7,706100
2407,000000	7,721300
2406,000000	7,728500
2405,000000	7,737000
2404,000000	7,755200
2403,000000	7,762100
2402,000000	7,778700
2401,000000	7,796600
2400,000000	7,819600
2399,000000	7,824100
2398,000000	7,825700
2397,000000	7,847800
2396,000000	7,869400
2395,000000	7,879400
2394,000000	7,895400
2393,000000	7,903800
2392,000000	7,918100
2391,000000	7,937700
2390,000000	7,957900
2389,000000	7,967400
2388,000000	7,970000
2387,000000	7,978500
2386,000000	7,994500
2385,000000	8,003000
2384,000000	8,002400
2383,000000	7,987500
2382,000000	7,990400
2381,000000	7,997300
2380,000000	8,009100
2379,000000	8,025100
2378,000000	8,008100
2377,000000	7,993200
2376,000000	7,992000
2375,000000	7,971600
2374,000000	7,976100
2373,000000	7,983400
2372,000000	7,984200
2371,000000	7,973100
2370,000000	7,941200
2369,000000	7,921000
2368,000000	7,902200
2367,000000	7,895200
2366,000000	7,892500
2365,000000	7,866000
2364,000000	7,838000
2363,000000	7,809400
2362,000000	7,778700
2361,000000	7,748200
2360,000000	7,735700
2359,000000	7,713000
2358,000000	7,680900
2357,000000	7,665800
2356,000000	7,648800
2355,000000	7,631800
2354,000000	7,611100
2353,000000	7,609100
2352,000000	7,609300
2351,000000	7,607600
2350,000000	7,627800
2349,000000	7,634900
2348,000000	7,640900
2347,000000	7,668400
2346,000000	7,686300
2345,000000	7,706800
2344,000000	7,734900
2343,000000	7,762700
2342,000000	7,773600
2341,000000	7,791300
2340,000000	7,824100
2339,000000	7,841500
2338,000000	7,840900
2337,000000	7,853700
2336,000000	7,862700
2335,000000	7,874800
2334,000000	7,879000
2333,000000	7,861700
2332,000000	7,849600
2331,000000	7,841400
2330,000000	7,827500
2329,000000	7,804100
2328,000000	7,773400
2327,000000	7,740200
2326,000000	7,719900
2325,000000	7,686700
2324,000000	7,660700
2323,000000	7,615300
2322,000000	7,552400
2321,000000	7,493200
2320,000000	7,459500
2319,000000	7,418900
2318,000000	7,368300
2317,000000	7,305800
2316,000000	7,251000
2315,000000	7,211200
2314,000000	7,161100
2313,000000	7,130100
2312,000000	7,073900
2311,000000	7,032100
2310,000000	7,017500
2309,000000	6,984200
2308,000000	6,963500
2307,000000	6,944600
2306,000000	6,936400
2305,000000	6,936700
2304,000000	6,933600
2303,000000	6,950500
2302,000000	6,980600
2301,000000	7,019300
2300,000000	7,048300
2299,000000	7,091200
2298,000000	7,123800
2297,000000	7,182100
2296,000000	7,208700
2295,000000	7,261500
2294,000000	7,300200
2293,000000	7,328700
2292,000000	7,370900
2291,000000	7,390700
2290,000000	7,421900
2289,000000	7,442200
2288,000000	7,449600
2287,000000	7,443300
2286,000000	7,466600
2285,000000	7,435500
2284,000000	7,430800
2283,000000	7,414000
2282,000000	7,392700
2281,000000	7,374400
2280,000000	7,363400
2279,000000	7,335700
2278,000000	7,306700
2277,000000	7,269000
2276,000000	7,255000
2275,000000	7,238000
2274,000000	7,223300
2273,000000	7,206000
2272,000000	7,210800
2271,000000	7,209700
2270,000000	7,198000
2269,000000	7,209100
2268,000000	7,246400
2267,000000	7,256700
2266,000000	7,295400
2265,000000	7,349600
2264,000000	7,402500
2263,000000	7,487700
2262,000000	7,566100
2261,000000	7,657100
2260,000000	7,765100
2259,000000	7,867200
2258,000000	7,977400
2257,000000	8,095000
2256,000000	8,222200
2255,000000	8,345100
2254,000000	8,498300
2253,000000	8,621800
2252,000000	8,744000
2251,000000	8,882500
2250,000000	9,023500
2249,000000	9,139100
2248,000000	9,276200
2247,000000	9,373900
2246,000000	9,467700
2245,000000	9,569200
2244,000000	9,676900
2243,000000	9,747000
2242,000000	9,853000
2241,000000	9,913500
2240,000000	10,001700
2239,000000	10,070500
2238,000000	10,117900
2237,000000	10,175000
2236,000000	10,262900
2235,000000	10,300500
2234,000000	10,350900
2233,000000	10,398400
2232,000000	10,437400
2231,000000	10,483000
2230,000000	10,498400
2229,000000	10,526400
2228,000000	10,557900
2227,000000	10,561600
2226,000000	10,576300
2225,000000	10,597000
2224,000000	10,600400
2223,000000	10,626600
2222,000000	10,609600
2221,000000	10,608200
2220,000000	10,590600
2219,000000	10,612600
2218,000000	10,603400
2217,000000	10,579100
2216,000000	10,585200
2215,000000	10,596200
2214,000000	10,560100
2213,000000	10,535500
2212,000000	10,538800
2211,000000	10,512100
2210,000000	10,514000
2209,000000	10,526600
2208,000000	10,469900
2207,000000	10,464900
2206,000000	10,485700
2205,000000	10,462100
2204,000000	10,450100
2203,000000	10,464000
2202,000000	10,440700
2201,000000	10,436500
2200,000000	10,426500
2199,000000	10,413000
2198,000000	10,410000
2197,000000	10,409900
2196,000000	10,395300
2195,000000	10,394300
2194,000000	10,368700
2193,000000	10,377500
2192,000000	10,379600
2191,000000	10,361300
2190,000000	10,362500
2189,000000	10,340900
2188,000000	10,346300
2187,000000	10,337000
2186,000000	10,302000
2185,000000	10,296000
2184,000000	10,299200
2183,000000	10,295300
2182,000000	10,273900
2181,000000	10,250500
2180,000000	10,252400
2179,000000	10,251200
2178,000000	10,245600
2177,000000	10,249000
2176,000000	10,230500
2175,000000	10,220800
2174,000000	10,220800
2173,000000	10,210800
2172,000000	10,216800
2171,000000	10,200700
2170,000000	10,199600
2169,000000	10,207600
2168,000000	10,218400
2167,000000	10,210800
2166,000000	10,219500
2165,000000	10,216200
2164,000000	10,238400
2163,000000	10,228900
2162,000000	10,239100
2161,000000	10,233500
2160,000000	10,247500
2159,000000	10,264500
2158,000000	10,284800
2157,000000	10,283700
2156,000000	10,312800
2155,000000	10,312700
2154,000000	10,342700
2153,000000	10,370300
2152,000000	10,372800
2151,000000	10,397800
2150,000000	10,418200
2149,000000	10,440800
2148,000000	10,462400
2147,000000	10,481100
2146,000000	10,502100
2145,000000	10,502000
2144,000000	10,526700
2143,000000	10,557300
2142,000000	10,555000
2141,000000	10,564400
2140,000000	10,585100
2139,000000	10,584000
2138,000000	10,583100
2137,000000	10,589100
2136,000000	10,602400
2135,000000	10,608300
2134,000000	10,603700
2133,000000	10,610700
2132,000000	10,617600
2131,000000	10,606300
2130,000000	10,607900
2129,000000	10,618400
2128,000000	10,617300
2127,000000	10,613700
2126,000000	10,615500
2125,000000	10,610700
2124,000000	10,584800
2123,000000	10,587400
2122,000000	10,590900
2121,000000	10,573000
2120,000000	10,554300
2119,000000	10,535400
2118,000000	10,519700
2117,000000	10,506500
2116,000000	10,508800
2115,000000	10,479400
2114,000000	10,460400
2113,000000	10,447000
2112,000000	10,421800
2111,000000	10,396400
2110,000000	10,369600
2109,000000	10,368100
2108,000000	10,359500
2107,000000	10,333100
2106,000000	10,313900
2105,000000	10,295500
2104,000000	10,267600
2103,000000	10,247600
2102,000000	10,230800
2101,000000	10,212400
2100,000000	10,188200
2099,000000	10,167900
2098,000000	10,159400
2097,000000	10,144900
2096,000000	10,118100
2095,000000	10,078100
2094,000000	10,079400
2093,000000	10,073300
2092,000000	10,057100
2091,000000	10,040700
2090,000000	10,018000
2089,000000	10,014600
2088,000000	9,999200
2087,000000	9,983200
2086,000000	9,968400
2085,000000	9,949900
2084,000000	9,936700
2083,000000	9,919400
2082,000000	9,906800
2081,000000	9,909000
2080,000000	9,900200
2079,000000	9,870500
2078,000000	9,839100
2077,000000	9,826400
2076,000000	9,808200
2075,000000	9,788300
2074,000000	9,778800
2073,000000	9,766500
2072,000000	9,740300
2071,000000	9,717700
2070,000000	9,700900
2069,000000	9,677000
2068,000000	9,660600
2067,000000	9,649400
2066,000000	9,633400
2065,000000	9,615400
2064,000000	9,599800
2063,000000	9,586500
2062,000000	9,566700
2061,000000	9,553600
2060,000000	9,540800
2059,000000	9,534300
2058,000000	9,535900
2057,000000	9,525600
2056,000000	9,531000
2055,000000	9,525300
2054,000000	9,512600
2053,000000	9,533300
2052,000000	9,560000
2051,000000	9,583600
2050,000000	9,596400
2049,000000	9,627400
2048,000000	9,637700
2047,000000	9,657600
2046,000000	9,705300
2045,000000	9,752900
2044,000000	9,793400
2043,000000	9,824900
2042,000000	9,857300
2041,000000	9,880800
2040,000000	9,922400
2039,000000	9,955500
2038,000000	9,991000
2037,000000	10,012400
2036,000000	10,064600
2035,000000	10,103900
2034,000000	10,111900
2033,000000	10,140800
2032,000000	10,165100
2031,000000	10,189700
2030,000000	10,194800
2029,000000	10,222500
2028,000000	10,222700
2027,000000	10,236600
2026,000000	10,252000
2025,000000	10,259300
2024,000000	10,272600
2023,000000	10,267600
2022,000000	10,275900
2021,000000	10,269800
2020,000000	10,291100
2019,000000	10,303600
2018,000000	10,295500
2017,000000	10,276400
2016,000000	10,284200
2015,000000	10,261600
2014,000000	10,296800
2013,000000	10,264300
2012,000000	10,246600
2011,000000	10,248100
2010,000000	10,213800
2009,000000	10,193700
2008,000000	10,175500
2007,000000	10,168500
2006,000000	10,146400
2005,000000	10,131300
2004,000000	10,110700
2003,000000	10,087200
2002,000000	10,043500
2001,000000	10,020300
2000,000000	10,003000
1999,000000	9,981900
1998,000000	9,936700
1997,000000	9,916600
1996,000000	9,864400
1995,000000	9,836800
1994,000000	9,790100
1993,000000	9,760500
1992,000000	9,722700
1991,000000	9,694900
1990,000000	9,630400
1989,000000	9,589200
1988,000000	9,553700
1987,000000	9,519100
1986,000000	9,475000
1985,000000	9,424700
1984,000000	9,387700
1983,000000	9,336100
1982,000000	9,322400
1981,000000	9,272100
1980,000000	9,210400
1979,000000	9,186000
1978,000000	9,135300
1977,000000	9,090300
1976,000000	9,064300
1975,000000	9,020900
1974,000000	8,966300
1973,000000	8,957300
1972,000000	8,888200
1971,000000	8,860300
1970,000000	8,823700
1969,000000	8,797400
1968,000000	8,735800
1967,000000	8,694000
1966,000000	8,688600
1965,000000	8,649600
1964,000000	8,600800
1963,000000	8,574300
1962,000000	8,534500
1961,000000	8,505300
1960,000000	8,444600
1959,000000	8,438700
1958,000000	8,423100
1957,000000	8,380600
1956,000000	8,358300
1955,000000	8,347200
1954,000000	8,290800
1953,000000	8,274100
1952,000000	8,258600
1951,000000	8,220300
1950,000000	8,198800
1949,000000	8,180000
1948,000000	8,158400
1947,000000	8,134100
1946,000000	8,107800
1945,000000	8,096600
1944,000000	8,085200
1943,000000	8,051200
1942,000000	8,044300
1941,000000	8,058300
1940,000000	8,027800
1939,000000	8,028000
1938,000000	8,034700
1937,000000	8,009400
1936,000000	7,996000
1935,000000	7,991000
1934,000000	8,016900
1933,000000	8,010100
1932,000000	8,009700
1931,000000	8,024300
1930,000000	8,065200
1929,000000	8,081300
1928,000000	8,093500
1927,000000	8,114100
1926,000000	8,163800
1925,000000	8,181400
1924,000000	8,218000
1923,000000	8,271800
1922,000000	8,290500
1921,000000	8,337200
1920,000000	8,393500
1919,000000	8,446700
1918,000000	8,511600
1917,000000	8,558300
1916,000000	8,631300
1915,000000	8,713700
1914,000000	8,779400
1913,000000	8,833100
1912,000000	8,938200
1911,000000	9,028100
1910,000000	9,107000
1909,000000	9,218700
1908,000000	9,296600
1907,000000	9,402300
1906,000000	9,513900
1905,000000	9,618600
1904,000000	9,768900
1903,000000	9,888400
1902,000000	10,038800
1901,000000	10,165900
1900,000000	10,277500
1899,000000	10,449000
1898,000000	10,620900
1897,000000	10,814500
1896,000000	10,986800
1895,000000	11,158200
1894,000000	11,348400
1893,000000	11,518400
1892,000000	11,730700
1891,000000	11,998800
1890,000000	12,240400
1889,000000	12,484400
1888,000000	12,759500
1887,000000	13,054300
1886,000000	13,362200
1885,000000	13,706100
1884,000000	14,043600
1883,000000	14,446400
1882,000000	14,891800
1881,000000	15,326000
1880,000000	15,774700
1879,000000	16,196200
1878,000000	16,618500
1877,000000	17,041500
1876,000000	17,477600
1875,000000	17,900000
1874,000000	18,326800
1873,000000	18,723200
1872,000000	19,122900
1871,000000	19,498900
1870,000000	19,860400
1869,000000	20,224900
1868,000000	20,530500
1867,000000	20,818800
1866,000000	21,053900
1865,000000	21,241600
1864,000000	21,429200
1863,000000	21,599200
1862,000000	21,735900
1861,000000	21,888000
1860,000000	22,052900
1859,000000	22,194200
1858,000000	22,310900
1857,000000	22,428100
1856,000000	22,530400
1855,000000	22,584700
1854,000000	22,635800
1853,000000	22,689700
1852,000000	22,702900
1851,000000	22,732800
1850,000000	22,755400
1849,000000	22,756900
1848,000000	22,750400
1847,000000	22,777400
1846,000000	22,775600
1845,000000	22,751600
1844,000000	22,708700
1843,000000	22,690000
1842,000000	22,677200
1841,000000	22,700300
1840,000000	22,705300
1839,000000	22,689600
1838,000000	22,664500
1837,000000	22,635100
1836,000000	22,613600
1835,000000	22,592600
1834,000000	22,539900
1833,000000	22,482800
1832,000000	22,423500
1831,000000	22,380300
1830,000000	22,342100
1829,000000	22,276800
1828,000000	22,231600
1827,000000	22,153300
1826,000000	22,090300
1825,000000	22,042000
1824,000000	21,979700
1823,000000	21,924300
1822,000000	21,880700
1821,000000	21,854200
1820,000000	21,836400
1819,000000	21,811900
1818,000000	21,763900
1817,000000	21,723600
1816,000000	21,702000
1815,000000	21,692400
1814,000000	21,694200
1813,000000	21,669000
1812,000000	21,642500
1811,000000	21,611800
1810,000000	21,589300
1809,000000	21,557600
1808,000000	21,531400
1807,000000	21,497200
1806,000000	21,459900
1805,000000	21,414600
1804,000000	21,361100
1803,000000	21,312100
1802,000000	21,267500
1801,000000	21,229400
1800,000000	21,179600
1799,000000	21,128500
1798,000000	21,073700
1797,000000	21,028700
1796,000000	20,981000
1795,000000	20,924700
1794,000000	20,872800
1793,000000	20,832100
1792,000000	20,792700
1791,000000	20,736000
1790,000000	20,669200
1789,000000	20,616200
1788,000000	20,576400
1787,000000	20,516600
1786,000000	20,462400
1785,000000	20,411500
1784,000000	20,349000
1783,000000	20,282000
1782,000000	20,208900
1781,000000	20,134300
1780,000000	20,071200
1779,000000	20,012800
1778,000000	19,958700
1777,000000	19,881500
1776,000000	19,810100
1775,000000	19,737700
1774,000000	19,645200
1773,000000	19,561400
1772,000000	19,479500
1771,000000	19,379500
1770,000000	19,301400
1769,000000	19,201000
1768,000000	19,094100
1767,000000	19,019200
1766,000000	18,940800
1765,000000	18,864300
1764,000000	18,809100
1763,000000	18,771500
1762,000000	18,756700
1761,000000	18,761300
1760,000000	18,797800
1759,000000	18,850900
1758,000000	18,909300
1757,000000	18,975600
1756,000000	19,031600
1755,000000	19,111000
1754,000000	19,172100
1753,000000	19,208200
1752,000000	19,248100
1751,000000	19,266800
1750,000000	19,288400
1749,000000	19,298200
1748,000000	19,265000
1747,000000	19,223100
1746,000000	19,192300
1745,000000	19,147100
1744,000000	19,075200
1743,000000	18,977100
1742,000000	18,859900
1741,000000	18,722700
1740,000000	18,557900
1739,000000	18,391400
1738,000000	18,213900
1737,000000	18,043300
1736,000000	17,889000
1735,000000	17,749600
1734,000000	17,652800
1733,000000	17,585100
1732,000000	17,560800
1731,000000	17,555100
1730,000000	17,586800
1729,000000	17,674700
1728,000000	17,759000
1727,000000	17,869300
1726,000000	17,962700
1725,000000	18,068800
1724,000000	18,152800
1723,000000	18,213100
1722,000000	18,254700
1721,000000	18,299900
1720,000000	18,330700
1719,000000	18,350400
1718,000000	18,369000
1717,000000	18,380300
1716,000000	18,426200
1715,000000	18,479600
1714,000000	18,529800
1713,000000	18,585100
1712,000000	18,637200
1711,000000	18,680100
1710,000000	18,710200
1709,000000	18,733400
1708,000000	18,745400
1707,000000	18,732700
1706,000000	18,692800
1705,000000	18,659000
1704,000000	18,626600
1703,000000	18,552800
1702,000000	18,475600
1701,000000	18,386300
1700,000000	18,274200
1699,000000	18,171300
1698,000000	18,029400
1697,000000	17,891300
1696,000000	17,767600
1695,000000	17,670400
1694,000000	17,645200
1693,000000	17,645300
1692,000000	17,709000
1691,000000	17,828200
1690,000000	17,950000
1689,000000	18,090700
1688,000000	18,224200
1687,000000	18,333700
1686,000000	18,388800
1685,000000	18,412700
1684,000000	18,440800
1683,000000	18,514200
1682,000000	18,624500
1681,000000	18,810700
1680,000000	19,100500
1679,000000	19,478000
1678,000000	19,916800
1677,000000	20,386400
1676,000000	20,815600
1675,000000	21,233600
1674,000000	21,601600
1673,000000	21,902600
1672,000000	22,204500
1671,000000	22,439000
1670,000000	22,631400
1669,000000	22,821200
1668,000000	22,970500
1667,000000	23,076400
1666,000000	23,206400
1665,000000	23,296900
1664,000000	23,362900
1663,000000	23,443600
1662,000000	23,485900
1661,000000	23,549900
1660,000000	23,591100
1659,000000	23,617600
1658,000000	23,650400
1657,000000	23,659800
1656,000000	23,678500
1655,000000	23,683100
1654,000000	23,692400
1653,000000	23,672900
1652,000000	23,659300
1651,000000	23,634400
1650,000000	23,598700
1649,000000	23,586200
1648,000000	23,554600
1647,000000	23,502800
1646,000000	23,460300
1645,000000	23,394000
1644,000000	23,350200
1643,000000	23,296100
1642,000000	23,238800
1641,000000	23,215600
1640,000000	23,154200
1639,000000	23,079900
1638,000000	23,014000
1637,000000	22,970900
1636,000000	22,896200
1635,000000	22,814900
1634,000000	22,750700
1633,000000	22,710200
1632,000000	22,645000
1631,000000	22,568700
1630,000000	22,500300
1629,000000	22,416200
1628,000000	22,343800
1627,000000	22,269800
1626,000000	22,200800
1625,000000	22,121300
1624,000000	22,048000
1623,000000	21,981500
1622,000000	21,902500
1621,000000	21,810200
1620,000000	21,767200
1619,000000	21,706500
1618,000000	21,604400
1617,000000	21,548900
1616,000000	21,488300
1615,000000	21,424800
1614,000000	21,358500
1613,000000	21,309400
1612,000000	21,239600
1611,000000	21,168500
1610,000000	21,121600
1609,000000	21,044400
1608,000000	21,001100
1607,000000	20,931700
1606,000000	20,875400
1605,000000	20,823900
1604,000000	20,761200
1603,000000	20,700500
1602,000000	20,641000
1601,000000	20,585600
1600,000000	20,516200
1599,000000	20,472900
1598,000000	20,399500
1597,000000	20,359100
1596,000000	20,294400
1595,000000	20,244200
1594,000000	20,178500
1593,000000	20,133100
1592,000000	20,104700
1591,000000	20,046300
1590,000000	19,987700
1589,000000	19,950100
1588,000000	19,892800
1587,000000	19,858800
1586,000000	19,810400
1585,000000	19,753100
1584,000000	19,698400
1583,000000	19,672400
1582,000000	19,647400
1581,000000	19,602300
1580,000000	19,582200
1579,000000	19,540200
1578,000000	19,505100
1577,000000	19,478600
1576,000000	19,439500
1575,000000	19,409100
1574,000000	19,405500
1573,000000	19,391600
1572,000000	19,367600
1571,000000	19,334600
1570,000000	19,314500
1569,000000	19,303700
1568,000000	19,293600
1567,000000	19,293500
1566,000000	19,295200
1565,000000	19,292900
1564,000000	19,276800
1563,000000	19,274400
1562,000000	19,272400
1561,000000	19,262900
1560,000000	19,241300
1559,000000	19,226100
1558,000000	19,217900
1557,000000	19,208200
1556,000000	19,195800
1555,000000	19,161700
1554,000000	19,151900
1553,000000	19,125700
1552,000000	19,116600
1551,000000	19,105300
1550,000000	19,075000
1549,000000	19,042500
1548,000000	19,005400
1547,000000	18,983100
1546,000000	18,961300
1545,000000	18,943700
1544,000000	18,915700
1543,000000	18,876300
1542,000000	18,847600
1541,000000	18,819600
1540,000000	18,812000
1539,000000	18,792400
1538,000000	18,778800
1537,000000	18,759900
1536,000000	18,727600
1535,000000	18,697900
1534,000000	18,667400
1533,000000	18,640400
1532,000000	18,612600
1531,000000	18,576400
1530,000000	18,541200
1529,000000	18,511700
1528,000000	18,473100
1527,000000	18,434200
1526,000000	18,391400
1525,000000	18,359600
1524,000000	18,325400
1523,000000	18,285900
1522,000000	18,243900
1521,000000	18,208500
1520,000000	18,165800
1519,000000	18,107300
1518,000000	18,067700
1517,000000	18,030800
1516,000000	17,982000
1515,000000	17,933600
1514,000000	17,888100
1513,000000	17,846100
1512,000000	17,800000
1511,000000	17,746700
1510,000000	17,695800
1509,000000	17,649100
1508,000000	17,597300
1507,000000	17,551900
1506,000000	17,506500
1505,000000	17,463100
1504,000000	17,407000
1503,000000	17,341700
1502,000000	17,291700
1501,000000	17,251500
1500,000000	17,207000
1499,000000	17,170800
1498,000000	17,128400
1497,000000	17,076400
1496,000000	17,042100
1495,000000	16,994800
1494,000000	16,960700
1493,000000	16,931000
1492,000000	16,885700
1491,000000	16,859200
1490,000000	16,840100
1489,000000	16,793000
1488,000000	16,748500
1487,000000	16,721100
1486,000000	16,705000
1485,000000	16,672900
1484,000000	16,644400
1483,000000	16,624600
1482,000000	16,600800
1481,000000	16,573900
1480,000000	16,549200
1479,000000	16,543300
1478,000000	16,521600
1477,000000	16,490900
1476,000000	16,463200
1475,000000	16,445200
1474,000000	16,443300
1473,000000	16,452000
1472,000000	16,449700
1471,000000	16,440900
1470,000000	16,430600
1469,000000	16,437600
1468,000000	16,428700
1467,000000	16,434200
1466,000000	16,427700
1465,000000	16,418000
1464,000000	16,422100
1463,000000	16,426400
1462,000000	16,443100
1461,000000	16,459800
1460,000000	16,467100
1459,000000	16,498500
1458,000000	16,531100
1457,000000	16,544600
1456,000000	16,568500
1455,000000	16,608300
1454,000000	16,649900
1453,000000	16,698800
1452,000000	16,756000
1451,000000	16,814700
1450,000000	16,856700
1449,000000	16,899500
1448,000000	16,941400
1447,000000	17,000600
1446,000000	17,080700
1445,000000	17,165300
1444,000000	17,230000
1443,000000	17,294300
1442,000000	17,360200
1441,000000	17,436600
1440,000000	17,506000
1439,000000	17,594500
1438,000000	17,668200
1437,000000	17,782700
1436,000000	17,850100
1435,000000	17,947100
1434,000000	18,041300
1433,000000	18,151400
1432,000000	18,255200
1431,000000	18,363500
1430,000000	18,469800
1429,000000	18,579500
1428,000000	18,696700
1427,000000	18,834700
1426,000000	18,979200
1425,000000	19,139200
1424,000000	19,301800
1423,000000	19,474200
1422,000000	19,652300
1421,000000	19,826000
1420,000000	20,016500
1419,000000	20,218900
1418,000000	20,436200
1417,000000	20,661600
1416,000000	20,871000
1415,000000	21,078400
1414,000000	21,316600
1413,000000	21,600300
1412,000000	21,852300
1411,000000	22,072100
1410,000000	22,370300
1409,000000	22,686500
1408,000000	23,021800
1407,000000	23,360500
1406,000000	23,740900
1405,000000	24,094700
1404,000000	24,493400
1403,000000	24,857500
1402,000000	25,263000
1401,000000	25,599500
1400,000000	26,050600
1399,000000	26,489300
1398,000000	26,850900
1397,000000	27,100300
1396,000000	27,433600
1395,000000	27,850500
1394,000000	28,235500
1393,000000	28,543000
1392,000000	28,820900
1391,000000	29,189000
1390,000000	29,551600
1389,000000	29,883400
1388,000000	30,272900
1387,000000	30,750700
1386,000000	31,219900
1385,000000	31,710400
1384,000000	32,226800
1383,000000	32,808700
1382,000000	33,392800
1381,000000	33,937400
1380,000000	34,422400
1379,000000	34,702100
1378,000000	35,035200
1377,000000	35,267200
1376,000000	35,489100
1375,000000	35,659900
1374,000000	35,893900
1373,000000	36,151700
1372,000000	36,463000
1371,000000	36,789000
1370,000000	37,149300
1369,000000	37,478600
1368,000000	37,754000
1367,000000	38,060000
1366,000000	38,332200
1365,000000	38,550600
1364,000000	38,777400
1363,000000	38,940100
1362,000000	39,131400
1361,000000	39,292000
1360,000000	39,457200
1359,000000	39,525500
1358,000000	39,633000
1357,000000	39,747100
1356,000000	39,879500
1355,000000	40,068700
1354,000000	40,320600
1353,000000	40,665300
1352,000000	41,035800
1351,000000	41,499600
1350,000000	41,938100
1349,000000	42,366400
1348,000000	42,782100
1347,000000	43,136200
1346,000000	43,485200
1345,000000	43,804400
1344,000000	44,128700
1343,000000	44,474500
1342,000000	44,752900
1341,000000	45,071200
1340,000000	45,382400
1339,000000	45,662800
1338,000000	45,953600
1337,000000	46,237700
1336,000000	46,533000
1335,000000	46,836600
1334,000000	47,118100
1333,000000	47,363900
1332,000000	47,629700
1331,000000	47,884200
1330,000000	48,159500
1329,000000	48,402900
1328,000000	48,633100
1327,000000	48,875600
1326,000000	49,085200
1325,000000	49,296500
1324,000000	49,511700
1323,000000	49,709800
1322,000000	49,911600
1321,000000	50,096200
1320,000000	50,296200
1319,000000	50,464300
1318,000000	50,637200
1317,000000	50,775600
1316,000000	50,928900
1315,000000	51,080800
1314,000000	51,227800
1313,000000	51,388000
1312,000000	51,513600
1311,000000	51,629800
1310,000000	51,755700
1309,000000	51,869900
1308,000000	51,970300
1307,000000	52,081800
1306,000000	52,168600
1305,000000	52,242900
1304,000000	52,325000
1303,000000	52,402900
1302,000000	52,465600
1301,000000	52,515800
1300,000000	52,573600
1299,000000	52,621400
1298,000000	52,651200
1297,000000	52,680400
1296,000000	52,718100
1295,000000	52,751000
1294,000000	52,761000
1293,000000	52,794900
1292,000000	52,809900
1291,000000	52,825500
1290,000000	52,831700
1289,000000	52,799100
1288,000000	52,791400
1287,000000	52,778200
1286,000000	52,759500
1285,000000	52,718400
1284,000000	52,693500
1283,000000	52,644100
1282,000000	52,597700
1281,000000	52,568100
1280,000000	52,511700
1279,000000	52,463900
1278,000000	52,411600
1277,000000	52,353400
1276,000000	52,308400
1275,000000	52,270600
1274,000000	52,226400
1273,000000	52,186900
1272,000000	52,131800
1271,000000	52,099800
1270,000000	52,064700
1269,000000	52,030200
1268,000000	51,984700
1267,000000	51,932100
1266,000000	51,892600
1265,000000	51,854800
1264,000000	51,801500
1263,000000	51,755800
1262,000000	51,716300
1261,000000	51,667800
1260,000000	51,616600
1259,000000	51,587100
1258,000000	51,542300
1257,000000	51,496500
1256,000000	51,438700
1255,000000	51,375500
1254,000000	51,328100
1253,000000	51,266600
1252,000000	51,198600
1251,000000	51,141100
1250,000000	51,069400
1249,000000	50,994200
1248,000000	50,924600
1247,000000	50,836700
1246,000000	50,734200
1245,000000	50,639400
1244,000000	50,547700
1243,000000	50,452500
1242,000000	50,339800
1241,000000	50,235400
1240,000000	50,102500
1239,000000	49,978600
1238,000000	49,860000
1237,000000	49,719900
1236,000000	49,591200
1235,000000	49,466200
1234,000000	49,327000
1233,000000	49,176300
1232,000000	49,024300
1231,000000	48,868700
1230,000000	48,709100
1229,000000	48,552400
1228,000000	48,387200
1227,000000	48,215100
1226,000000	48,051600
1225,000000	47,895800
1224,000000	47,732200
1223,000000	47,551400
1222,000000	47,366400
1221,000000	47,190900
1220,000000	47,016200
1219,000000	46,853100
1218,000000	46,692900
1217,000000	46,532900
1216,000000	46,372100
1215,000000	46,228500
1214,000000	46,098000
1213,000000	45,959700
1212,000000	45,827500
1211,000000	45,695400
1210,000000	45,557100
1209,000000	45,430200
1208,000000	45,321400
1207,000000	45,218500
1206,000000	45,115300
1205,000000	45,026700
1204,000000	44,963600
1203,000000	44,902300
1202,000000	44,848800
1201,000000	44,822800
1200,000000	44,806600
1199,000000	44,751400
1198,000000	44,688600
1197,000000	44,595200
1196,000000	44,491300
1195,000000	44,376500
1194,000000	44,192600
1193,000000	43,943300
1192,000000	43,656400
1191,000000	43,303700
1190,000000	42,914500
1189,000000	42,531500
1188,000000	42,170900
1187,000000	41,861600
1186,000000	41,665100
1185,000000	41,552000
1184,000000	41,570600
1183,000000	41,689500
1182,000000	41,936100
1181,000000	42,300600
1180,000000	42,705700
1179,000000	43,160600
1178,000000	43,621300
1177,000000	44,080100
1176,000000	44,479100
1175,000000	44,835400
1174,000000	45,141200
1173,000000	45,433400
1172,000000	45,731300
1171,000000	46,017500
1170,000000	46,338500
1169,000000	46,662300
1168,000000	46,965600
1167,000000	47,276000
1166,000000	47,596000
1165,000000	47,921400
1164,000000	48,269400
1163,000000	48,595500
1162,000000	48,948800
1161,000000	49,309800
1160,000000	49,667200
1159,000000	50,007900
1158,000000	50,342200
1157,000000	50,673800
1156,000000	50,988800
1155,000000	51,286900
1154,000000	51,543700
1153,000000	51,767500
1152,000000	51,939600
1151,000000	52,080600
1150,000000	52,187700
1149,000000	52,305000
1148,000000	52,395000
1147,000000	52,460200
1146,000000	52,585100
1145,000000	52,753100
1144,000000	52,970600
1143,000000	53,225800
1142,000000	53,534700
1141,000000	53,874700
1140,000000	54,238200
1139,000000	54,594200
1138,000000	54,967900
1137,000000	55,380800
1136,000000	55,779400
1135,000000	56,200100
1134,000000	56,660200
1133,000000	57,079700
1132,000000	57,443800
1131,000000	57,787200
1130,000000	58,132300
1129,000000	58,413500
1128,000000	58,696400
1127,000000	58,915100
1126,000000	59,107300
1125,000000	59,223800
1124,000000	59,359800
1123,000000	59,455900
1122,000000	59,550400
1121,000000	59,644100
1120,000000	59,698800
1119,000000	59,756200
1118,000000	59,782800
1117,000000	59,839700
1116,000000	59,859400
1115,000000	59,879800
1114,000000	59,890500
1113,000000	59,904000
1112,000000	59,914400
1111,000000	59,923400
1110,000000	59,937200
1109,000000	59,926500
1108,000000	59,962500
1107,000000	59,952400
1106,000000	59,959600
1105,000000	59,961900
1104,000000	59,974600
1103,000000	59,972900
1102,000000	60,009300
1101,000000	59,996700
1100,000000	60,001900
1099,000000	59,989500
1098,000000	59,982500
1097,000000	60,011900
1096,000000	59,997900
1095,000000	59,988200
1094,000000	59,977800
1093,000000	59,959500
1092,000000	59,937600
1091,000000	59,937600
1090,000000	59,919400
1089,000000	59,897300
1088,000000	59,891500
1087,000000	59,841700
1086,000000	59,828800
1085,000000	59,797400
1084,000000	59,783400
1083,000000	59,751000
1082,000000	59,716600
1081,000000	59,660200
1080,000000	59,634800
1079,000000	59,600100
1078,000000	59,574000
1077,000000	59,559900
1076,000000	59,504800
1075,000000	59,461700
1074,000000	59,441600
1073,000000	59,401100
1072,000000	59,367600
1071,000000	59,343700
1070,000000	59,288900
1069,000000	59,266200
1068,000000	59,220800
1067,000000	59,187600
1066,000000	59,141500
1065,000000	59,114400
1064,000000	59,074400
1063,000000	59,035100
1062,000000	59,012900
1061,000000	58,971500
1060,000000	58,933400
1059,000000	58,886000
1058,000000	58,849700
1057,000000	58,824500
1056,000000	58,772400
1055,000000	58,749900
1054,000000	58,716400
1053,000000	58,679700
1052,000000	58,640800
1051,000000	58,616000
1050,000000	58,588000
1049,000000	58,561800
1048,000000	58,540500
1047,000000	58,535100
1046,000000	58,525600
1045,000000	58,515900
1044,000000	58,507700
1043,000000	58,490200
1042,000000	58,479400
1041,000000	58,488000
1040,000000	58,484900
1039,000000	58,478700
1038,000000	58,471000
1037,000000	58,481800
1036,000000	58,484300
1035,000000	58,462900
1034,000000	58,474600
1033,000000	58,478700
1032,000000	58,471300
1031,000000	58,451400
1030,000000	58,446000
1029,000000	58,461600
1028,000000	58,455000
1027,000000	58,452900
1026,000000	58,445700
1025,000000	58,430800
1024,000000	58,424600
1023,000000	58,427600
1022,000000	58,410700
1021,000000	58,400100
1020,000000	58,416300
1019,000000	58,415800
1018,000000	58,411000
1017,000000	58,423100
1016,000000	58,422600
1015,000000	58,439300
1014,000000	58,462400
1013,000000	58,502000
1012,000000	58,514900
1011,000000	58,559300
1010,000000	58,613100
1009,000000	58,660200
1008,000000	58,708300
1007,000000	58,760800
1006,000000	58,832100
1005,000000	58,891100
1004,000000	58,955300
1003,000000	59,030900
1002,000000	59,098300
1001,000000	59,169000
1000,000000	59,241400
999,000000	59,321300
998,000000	59,398800
997,000000	59,449200
996,000000	59,548400
995,000000	59,638300
994,000000	59,730100
993,000000	59,827500
992,000000	59,906900
991,000000	60,025800
990,000000	60,136100
989,000000	60,227000
988,000000	60,328100
987,000000	60,442800
986,000000	60,577800
985,000000	60,713100
984,000000	60,833300
983,000000	60,944400
982,000000	61,076600
981,000000	61,218700
980,000000	61,355400
979,000000	61,495300
978,000000	61,635900
977,000000	61,770700
976,000000	61,910400
975,000000	62,057300
974,000000	62,222300
973,000000	62,363900
972,000000	62,501200
971,000000	62,654200
970,000000	62,805700
969,000000	62,944000
968,000000	63,078800
967,000000	63,220700
966,000000	63,369800
965,000000	63,543400
964,000000	63,698400
963,000000	63,831600
962,000000	63,994100
961,000000	64,145200
960,000000	64,281000
959,000000	64,436100
958,000000	64,586800
957,000000	64,725700
956,000000	64,854800
955,000000	64,984900
954,000000	65,128100
953,000000	65,265300
952,000000	65,381500
951,000000	65,523100
950,000000	65,646200
949,000000	65,756700
948,000000	65,880600
947,000000	65,994000
946,000000	66,107700
945,000000	66,213200
944,000000	66,328800
943,000000	66,438500
942,000000	66,530600
941,000000	66,634400
940,000000	66,726600
939,000000	66,814400
938,000000	66,899100
937,000000	66,993000
936,000000	67,073100
935,000000	67,124200
934,000000	67,204900
933,000000	67,303800
932,000000	67,382000
931,000000	67,471400
930,000000	67,548100
929,000000	67,612300
928,000000	67,694100
927,000000	67,754200
926,000000	67,805000
925,000000	67,868800
924,000000	67,925800
923,000000	67,999500
922,000000	68,042800
921,000000	68,075700
920,000000	68,138200
919,000000	68,190600
918,000000	68,244200
917,000000	68,293300
916,000000	68,327800
915,000000	68,362300
914,000000	68,412200
913,000000	68,469400
912,000000	68,504700
911,000000	68,548400
910,000000	68,580700
909,000000	68,612000
908,000000	68,665900
907,000000	68,723600
906,000000	68,785500
905,000000	68,842300
904,000000	68,893900
903,000000	68,964900
902,000000	69,040900
901,000000	69,125400
900,000000	69,199600
899,000000	69,267300
898,000000	69,347600
897,000000	69,432800
896,000000	69,507700
895,000000	69,582900
894,000000	69,655200
893,000000	69,724400
892,000000	69,797100
891,000000	69,871500
890,000000	69,938800
889,000000	70,002300
888,000000	70,078000
887,000000	70,159200
886,000000	70,229000
885,000000	70,296500
884,000000	70,373000
883,000000	70,450400
882,000000	70,537600
881,000000	70,613200
880,000000	70,699700
879,000000	70,779700
878,000000	70,875300
877,000000	70,953200
876,000000	71,030200
875,000000	71,079000
874,000000	71,143100
873,000000	71,179300
872,000000	71,186500
871,000000	71,170200
870,000000	71,148800
869,000000	71,186700
868,000000	71,227800
867,000000	71,292200
866,000000	71,342000
865,000000	71,366000
864,000000	71,399100
863,000000	71,425700
862,000000	71,463500
861,000000	71,495700
860,000000	71,493900
859,000000	71,529800
858,000000	71,527200
857,000000	71,356100
856,000000	71,059500
855,000000	70,964700
854,000000	70,921900
853,000000	70,937200
852,000000	70,604500
851,000000	70,780700
850,000000	70,531400
849,000000	70,719800
848,000000	70,975400
847,000000	70,820700
846,000000	70,574700
845,000000	70,615800
844,000000	70,794300
843,000000	70,332000
842,000000	70,433700
841,000000	70,179800
840,000000	70,125500
839,000000	70,574800
838,000000	70,192600
837,000000	70,111200
836,000000	70,347900
835,000000	70,282200
834,000000	70,708000
833,000000	70,585900
832,000000	70,664900
831,000000	70,732400
830,000000	71,314500
829,000000	71,467800
828,000000	71,665700
827,000000	71,764800
826,000000	72,294800
825,000000	72,533300
824,000000	73,066200
823,000000	73,462600
822,000000	73,820000
821,000000	74,291400
820,000000	74,553400
819,000000	75,026000
818,000000	75,621500
817,000000	75,924200
816,000000	76,492700
815,000000	76,697800
814,000000	77,111900
813,000000	77,271000
812,000000	77,919100
811,000000	78,050900
810,000000	78,523500
809,000000	78,844700
808,000000	79,061200
807,000000	79,183800
806,000000	79,556000
805,000000	79,956700
804,000000	79,993500
803,000000	79,987900
802,000000	80,331200
801,000000	80,492200
800,000000	80,587100
799,000000	80,833200
798,000000	80,974400
797,000000	81,297600
796,000000	81,493100
795,000000	81,724100
794,000000	81,816800
793,000000	82,167300
792,000000	82,174300
791,000000	82,398900
790,000000	82,528500
789,000000	82,643100
788,000000	82,662100
787,000000	83,024800
786,000000	83,175000
785,000000	83,376700
784,000000	83,615300
783,000000	83,938100
782,000000	83,982800
781,000000	84,089600
780,000000	84,226400
779,000000	84,302000
778,000000	84,367400
777,000000	84,402900
776,000000	84,468900
775,000000	84,623100
774,000000	84,412800
773,000000	84,544700
772,000000	84,485500
771,000000	84,710700
770,000000	84,569000
769,000000	84,875900
768,000000	84,849700
767,000000	84,814100
766,000000	84,846800
765,000000	85,005000
764,000000	85,094300
763,000000	85,196400
762,000000	85,167400
761,000000	85,354000
760,000000	85,469900
759,000000	85,419600
758,000000	85,554800
757,000000	85,559400
756,000000	85,620500
755,000000	85,638000
754,000000	85,642100
753,000000	85,564900
752,000000	85,694000
751,000000	85,801400
750,000000	85,780300
749,000000	85,803600
748,000000	85,714600
747,000000	85,665500
746,000000	85,626800
745,000000	85,481200
744,000000	85,427900
743,000000	85,395000
742,000000	85,220900
741,000000	85,108400
740,000000	84,898200
739,000000	84,758700
738,000000	84,570300
737,000000	84,367600
736,000000	84,116200
735,000000	83,816600
734,000000	83,514300
733,000000	83,122700
732,000000	82,828100
731,000000	82,405500
730,000000	82,003800
729,000000	81,756200
728,000000	81,380000
727,000000	80,872600
726,000000	80,354700
725,000000	79,891800
724,000000	79,617000
723,000000	78,972500
722,000000	78,516000
721,000000	77,886700
720,000000	77,371300
719,000000	76,863500
718,000000	76,264500
717,000000	75,695700
716,000000	75,145600
715,000000	74,471900
714,000000	73,864400
713,000000	73,294300
712,000000	72,683500
711,000000	72,061200
710,000000	71,572600
709,000000	71,053300
708,000000	70,543500
707,000000	70,060800
706,000000	69,672400
705,000000	69,384200
704,000000	69,051500
703,000000	68,795300
702,000000	68,603300
701,000000	68,404000
700,000000	68,300900
699,000000	68,162600
698,000000	68,001100
697,000000	67,912700
696,000000	67,784700
695,000000	67,755400
694,000000	67,630900
693,000000	67,543200
692,000000	67,518900
691,000000	67,393900
690,000000	67,334200
689,000000	67,375300
688,000000	67,241300
687,000000	67,284600
686,000000	67,316100
685,000000	67,320100
684,000000	67,433800
683,000000	67,499000
682,000000	67,575800
681,000000	67,638700
680,000000	67,669000
679,000000	67,690600
678,000000	67,719400
677,000000	67,685400
676,000000	67,636100
675,000000	67,568200
674,000000	67,422900
673,000000	67,242900
672,000000	67,033800
671,000000	66,772500
670,000000	66,530400
669,000000	66,189900
668,000000	65,794400
667,000000	65,442100
666,000000	65,101600
665,000000	64,720900
664,000000	64,266700
663,000000	63,783300
662,000000	63,184700
661,000000	62,569200
660,000000	61,939900
659,000000	61,222200
658,000000	60,459800
657,000000	59,627800
656,000000	58,770100
655,000000	57,889300
654,000000	56,966400
653,000000	56,006000
652,000000	55,122700
651,000000	54,307300
650,000000	53,538100
649,000000	52,919000
648,000000	52,445800
647,000000	52,114400
646,000000	51,926600
645,000000	51,901700
644,000000	52,020900
643,000000	52,310600
642,000000	52,795000
641,000000	53,374000
640,000000	54,049500
639,000000	54,872300
638,000000	55,816900
637,000000	56,802700
636,000000	57,821700
635,000000	58,925800
634,000000	60,081400
633,000000	61,305300
632,000000	62,562200
631,000000	63,854300
630,000000	65,204400
629,000000	66,556000
628,000000	67,918600
627,000000	69,245700
626,000000	70,588400
625,000000	71,931000
624,000000	73,228000
623,000000	74,515800
622,000000	75,726000
621,000000	76,916200
620,000000	78,046200
619,000000	79,104600
618,000000	80,098200
617,000000	80,999700
616,000000	81,877200
615,000000	82,685400
614,000000	83,388500
613,000000	84,031100
612,000000	84,693500
611,000000	85,318900
610,000000	85,834700
609,000000	86,336700
608,000000	86,811400
607,000000	87,259700
606,000000	87,718900
605,000000	88,116200
604,000000	88,423900
603,000000	88,800000
602,000000	89,118800
601,000000	89,415900
600,000000	89,724400
599,000000	89,919100
598,000000	90,155700
597,000000	90,389300
596,000000	90,565900
595,000000	90,672500
594,000000	90,777800
593,000000	90,886500
592,000000	90,949500
591,000000	91,014700
590,000000	91,069900
589,000000	91,100500
588,000000	91,078300
587,000000	91,013600
586,000000	90,983200
585,000000	90,966900
584,000000	90,899000
583,000000	90,781500
582,000000	90,726700
581,000000	90,710500
580,000000	90,602600
579,000000	90,494700
578,000000	90,398400
577,000000	90,286800
576,000000	90,162600
575,000000	90,050000
574,000000	89,821100
573,000000	89,659500
572,000000	89,539700
571,000000	89,364100
570,000000	89,109500
569,000000	88,935400
568,000000	88,673700
567,000000	88,421300
566,000000	88,107900
565,000000	87,770900
564,000000	87,444500
563,000000	87,088000
562,000000	86,632700
561,000000	86,199700
560,000000	85,765100
559,000000	85,251500
558,000000	84,661300
557,000000	84,133700
556,000000	83,520800
555,000000	82,860700
554,000000	82,179000
553,000000	81,467700
552,000000	80,696200
551,000000	79,830600
550,000000	79,030700
549,000000	78,146700
548,000000	77,248600
547,000000	76,373800
546,000000	75,416100
545,000000	74,451500
544,000000	73,397800
543,000000	72,350300
542,000000	71,264500
541,000000	70,148900
540,000000	68,978400
539,000000	67,789800
538,000000	66,590500
537,000000	65,364800
536,000000	64,059300
535,000000	62,711000
534,000000	61,334900
533,000000	59,913900
532,000000	58,478800
531,000000	57,042400
530,000000	55,529600
529,000000	54,061900
528,000000	52,608500
527,000000	51,182900
526,000000	49,732200
525,000000	48,280100
524,000000	46,896200
523,000000	45,496700
522,000000	44,141800
521,000000	42,821600
520,000000	41,558500
519,000000	40,340600
518,000000	39,260700
517,000000	38,214800
516,000000	37,257500
515,000000	36,381100
514,000000	35,577400
513,000000	34,867100
512,000000	34,272000
511,000000	33,741200
510,000000	33,312400
509,000000	32,978100
508,000000	32,724600
507,000000	32,583100
506,000000	32,477000
505,000000	32,404700
504,000000	32,399000
503,000000	32,452500
502,000000	32,477500
501,000000	32,588300
500,000000	32,693900
499,000000	32,760600
498,000000	32,832600
497,000000	32,894100
496,000000	32,964300
495,000000	33,006400
494,000000	33,026200
493,000000	33,009400
492,000000	32,977000
491,000000	32,907700
490,000000	32,856400
489,000000	32,754800
488,000000	32,645100
487,000000	32,501500
486,000000	32,358000
485,000000	32,222000
484,000000	32,013100
483,000000	31,837300
482,000000	31,631200
481,000000	31,417700
480,000000	31,180100
479,000000	30,923200
478,000000	30,697200
477,000000	30,502300
476,000000	30,299400
475,000000	30,031100
474,000000	29,820000
473,000000	29,590900
472,000000	29,342500
471,000000	29,144700
470,000000	28,892700
469,000000	28,642200
468,000000	28,389600
467,000000	28,164200
466,000000	27,896500
465,000000	27,632300
464,000000	27,363400
463,000000	27,091700
462,000000	26,784600
461,000000	26,474500
460,000000	26,150100
459,000000	25,838500
458,000000	25,470600
457,000000	25,097200
456,000000	24,712400
455,000000	24,322000
454,000000	23,849800
453,000000	23,409600
452,000000	22,965300
451,000000	22,458900
450,000000	21,945300
449,000000	21,400300
448,000000	20,852900
447,000000	20,322400
446,000000	19,733100
445,000000	19,121600
444,000000	18,517600
443,000000	17,895100
442,000000	17,300900
441,000000	16,669000
440,000000	16,085600
439,000000	15,458900
438,000000	14,891700
437,000000	14,335900
436,000000	13,777200
435,000000	13,233600
434,000000	12,736800
433,000000	12,232000
432,000000	11,753800
431,000000	11,337500
430,000000	10,920700
429,000000	10,553600
428,000000	10,193400
427,000000	9,857000
426,000000	9,544800
425,000000	9,278300
424,000000	9,031000
423,000000	8,775200
422,000000	8,586500
421,000000	8,387500
420,000000	8,213400
419,000000	8,066500
418,000000	7,929000
417,000000	7,806700
416,000000	7,686900
415,000000	7,567700
414,000000	7,493700
413,000000	7,434400
412,000000	7,357200
411,000000	7,267500
410,000000	7,222600
409,000000	7,167700
408,000000	7,122300
407,000000	7,088600
406,000000	7,048800
405,000000	7,021400
404,000000	6,990500
403,000000	6,958300
402,000000	6,925400
401,000000	6,878400
400,000000	6,876500
399,000000	6,867300
398,000000	6,844600
397,000000	6,818300
396,000000	6,792100
395,000000	6,768900
394,000000	6,756700
393,000000	6,761000
392,000000	6,733400
391,000000	6,716800
390,000000	6,706900
389,000000	6,675900
388,000000	6,660000
387,000000	6,639600
386,000000	6,616500
385,000000	6,597300
384,000000	6,562300
383,000000	6,537400
382,000000	6,542300
381,000000	6,517400
380,000000	6,510200
379,000000	6,481500
378,000000	6,483000
377,000000	6,467000
376,000000	6,413300
375,000000	6,347000
374,000000	6,237900
373,000000	6,177300
372,000000	6,181000
371,000000	6,216800
370,000000	6,158600
369,000000	6,094000
368,000000	6,171100
367,000000	6,243100
366,000000	6,151800
365,000000	6,210300
364,000000	6,329800
363,000000	6,261800
362,000000	6,162100
361,000000	6,172200
360,000000	6,250000
359,000000	6,261800
358,000000	6,277300
357,000000	6,283600
356,000000	6,122000
355,000000	6,092500
354,000000	6,165200
353,000000	6,143500
352,000000	6,215000
351,000000	6,151000
350,000000	6,162500
349,000000	6,138400
348,000000	6,050900
347,000000	6,090400
346,000000	6,034400
345,000000	5,941000
344,000000	5,851700
343,000000	5,925700
342,000000	6,124000
341,000000	6,047600
340,000000	5,932000
339,000000	5,868700
338,000000	5,952400
337,000000	6,261100
336,000000	6,075500
335,000000	5,876000
334,000000	5,968400
333,000000	6,047700
332,000000	6,092900
331,000000	6,194800
330,000000	6,300300
329,000000	6,076300
328,000000	6,056700
327,000000	6,232500
326,000000	6,293600
325,000000	6,268000
324,000000	6,156400
323,000000	5,960100
322,000000	6,017200
321,000000	6,168000
320,000000	6,081000
319,000000	6,066400
318,000000	6,241900
317,000000	6,553100
316,000000	6,158200
315,000000	5,678300
314,000000	5,700000
313,000000	5,680300
312,000000	5,644400
311,000000	5,714800
310,000000	5,753200
309,000000	5,708000
308,000000	5,703400
307,000000	5,728200
306,000000	5,744500
305,000000	5,741800
304,000000	5,726900
303,000000	5,728500
302,000000	5,746600
301,000000	5,751400
300,000000	5,727400
299,000000	5,708500
298,000000	5,718200
297,000000	5,740300
296,000000	5,765700
295,000000	5,778300
294,000000	5,770000
293,000000	5,751500
292,000000	5,725300
291,000000	5,724000
290,000000	5,771100
289,000000	5,809400
288,000000	5,799000
287,000000	5,790900
286,000000	5,801100
285,000000	5,800400
284,000000	5,848200
283,000000	5,817600
282,000000	5,838400
281,000000	5,865300
280,000000	5,883700
279,000000	5,923800
278,000000	5,898100
277,000000	5,901800
276,000000	5,926300
275,000000	5,945500
274,000000	5,989300
273,000000	6,021500
272,000000	6,001200
271,000000	6,014500
270,000000	6,006700
269,000000	6,037600
268,000000	6,087000
267,000000	6,100500
266,000000	6,089300
265,000000	6,109500
264,000000	6,106400
263,000000	6,123400
262,000000	6,203100
261,000000	6,192100
260,000000	6,236900
259,000000	6,283700
258,000000	6,260300
257,000000	6,312600
256,000000	6,301000
255,000000	6,273700
254,000000	6,316200
253,000000	6,363200
252,000000	6,330500
251,000000	6,323500
250,000000	6,343200
