PE UV       SUBTECH     SPECTRUM    ASCII       PEDS        4.00        
   -1
INBUCR0127-3.Sample.ASC
24/04/29
11:41:18.00
24/04/29
11:41:18.00
Vinicio Soto Monge
C. resplendens
250,000000
1
Lambda 1050
1050L1511233
PerkinElmer UV WinLab 6.3.2.0749 / 2.02.05 Lambda 900 UV/VIS/NIR, Aug  7 2015 09:38:08

0
0
3350/servo 860,8/2
0
0
UV/VIS
1
1
1
DoubleDePol,CommonBeamDepol,RBeamAtt,SBeamAtt,60mm sphere, WB InGaAs Detector
0
0
0
0
Program
Program
3350/servo 860,8/2
3350/0,2 860,8/0,2
3350/0,2 860,8/0,2
0
15.00
 
 
 
0
 
860,8
319,2
860,8
Front
100
on
S:100 R:100
0
0
0
0
 
0
 
 
 
0
 
 
0
0
0
0
0
 
 
 
 
0
0


0
0
#HDR
-1
-1
#GR
nm
%R
1.0
0.0
2500,000000
-1,000000
2251
8
88,075900
5,824900
#DATA
250.000000	0.247623
251.000000	0.224500
252.000000	0.192431
253.000000	0.194530
254.000000	0.206556
255.000000	0.211460
256.000000	0.164877
257.000000	0.211071
258.000000	0.197507
259.000000	0.204507
260.000000	0.222755
261.000000	0.169465
262.000000	0.163931
263.000000	0.198929
264.000000	0.170400
265.000000	0.224442
266.000000	0.171699
267.000000	0.166892
268.000000	0.180397
269.000000	0.174618
270.000000	0.181801
271.000000	0.192443
272.000000	0.197286
273.000000	0.208048
274.000000	0.168369
275.000000	0.172035
276.000000	0.185072
277.000000	0.179222
278.000000	0.171712
279.000000	0.184799
280.000000	0.190787
281.000000	0.169056
282.000000	0.203599
283.000000	0.211247
284.000000	0.162827
285.000000	0.169510
286.000000	0.140434
287.000000	0.205961
288.000000	0.176622
289.000000	0.172339
290.000000	0.182028
291.000000	0.152544
292.000000	0.182846
293.000000	0.169512
294.000000	0.165601
295.000000	0.182042
296.000000	0.170623
297.000000	0.141701
298.000000	0.163157
299.000000	0.127074
300.000000	0.139308
301.000000	0.183411
302.000000	0.185420
303.000000	0.141455
304.000000	0.159514
305.000000	0.170001
306.000000	0.153173
307.000000	0.112214
308.000000	0.188400
309.000000	0.187353
310.000000	0.145433
311.000000	0.182401
312.000000	0.119503
313.000000	0.125661
314.000000	0.162046
315.000000	0.190459
316.000000	0.106286
317.000000	0.459100
318.000000	0.184873
319.000000	0.693845
320.000000	0.268873
321.000000	0.363274
322.000000	0.262102
323.000000	0.120228
324.000000	0.094288
325.000000	0.261626
326.000000	0.106766
327.000000	0.075283
328.000000	0.176639
329.000000	0.288679
330.000000	0.211906
331.000000	0.061368
332.000000	0.157158
333.000000	0.125353
334.000000	0.133050
335.000000	0.121855
336.000000	0.080262
337.000000	0.203722
338.000000	0.153244
339.000000	0.116630
340.000000	0.137039
341.000000	0.135898
342.000000	0.236871
343.000000	0.129822
344.000000	0.059173
345.000000	0.135960
346.000000	0.100063
347.000000	0.033365
348.000000	0.043658
349.000000	0.066254
350.000000	0.004697
351.000000	0.089756
352.000000	0.073798
353.000000	0.069220
354.000000	0.046951
355.000000	0.154453
356.000000	0.191010
357.000000	0.155473
358.000000	0.067804
359.000000	0.084671
360.000000	0.077271
361.000000	0.146043
362.000000	0.197215
363.000000	0.104727
364.000000	0.071795
365.000000	0.029280
366.000000	0.107933
367.000000	0.056780
368.000000	0.087339
369.000000	0.163917
370.000000	0.216944
371.000000	0.154502
372.000000	0.146803
373.000000	0.310601
374.000000	0.365211
375.000000	0.302309
376.000000	0.195154
377.000000	0.126446
378.000000	0.116839
379.000000	0.133098
380.000000	0.147492
381.000000	0.140558
382.000000	0.154400
383.000000	0.161314
384.000000	0.152966
385.000000	0.147010
386.000000	0.149475
387.000000	0.162431
388.000000	0.168846
389.000000	0.155234
390.000000	0.167934
391.000000	0.171769
392.000000	0.180523
393.000000	0.188131
394.000000	0.194968
395.000000	0.211180
396.000000	0.216753
397.000000	0.219927
398.000000	0.238010
399.000000	0.258787
400.000000	0.278630
401.000000	0.295786
402.000000	0.309920
403.000000	0.331043
404.000000	0.364792
405.000000	0.382160
406.000000	0.402465
407.000000	0.433488
408.000000	0.462274
409.000000	0.500838
410.000000	0.542677
411.000000	0.574444
412.000000	0.622900
413.000000	0.665163
414.000000	0.708867
415.000000	0.748785
416.000000	0.795061
417.000000	0.835675
418.000000	0.875259
419.000000	0.922736
420.000000	0.971276
421.000000	1.013225
422.000000	1.056262
423.000000	1.105429
424.000000	1.142416
425.000000	1.173736
426.000000	1.206384
427.000000	1.235480
428.000000	1.259848
429.000000	1.292203
430.000000	1.323578
431.000000	1.340139
432.000000	1.364796
433.000000	1.378308
434.000000	1.389373
435.000000	1.394397
436.000000	1.412762
437.000000	1.432728
438.000000	1.446361
439.000000	1.444371
440.000000	1.440459
441.000000	1.445766
442.000000	1.459047
443.000000	1.470203
444.000000	1.461478
445.000000	1.472746
446.000000	1.490477
447.000000	1.494413
448.000000	1.492279
449.000000	1.499580
450.000000	1.505282
451.000000	1.515294
452.000000	1.524502
453.000000	1.530569
454.000000	1.549967
455.000000	1.571148
456.000000	1.581911
457.000000	1.586988
458.000000	1.593239
459.000000	1.600139
460.000000	1.616070
461.000000	1.634626
462.000000	1.645924
463.000000	1.640335
464.000000	1.642747
465.000000	1.633924
466.000000	1.619849
467.000000	1.614321
468.000000	1.612011
469.000000	1.593412
470.000000	1.567013
471.000000	1.518866
472.000000	1.470508
473.000000	1.427855
474.000000	1.369104
475.000000	1.307358
476.000000	1.243669
477.000000	1.173011
478.000000	1.104644
479.000000	1.043525
480.000000	0.972042
481.000000	0.904577
482.000000	0.842226
483.000000	0.784712
484.000000	0.755683
485.000000	0.743108
486.000000	0.749068
487.000000	0.759070
488.000000	0.816586
489.000000	0.899752
490.000000	0.987312
491.000000	1.093068
492.000000	1.220674
493.000000	1.364306
494.000000	1.532993
495.000000	1.713989
496.000000	1.886002
497.000000	2.059213
498.000000	2.275636
499.000000	2.482799
500.000000	2.673440
501.000000	2.880946
502.000000	3.101524
503.000000	3.321565
504.000000	3.535459
505.000000	3.749234
506.000000	3.935522
507.000000	4.113078
508.000000	4.282765
509.000000	4.451030
510.000000	4.611294
511.000000	4.748045
512.000000	4.879015
513.000000	4.994445
514.000000	5.061857
515.000000	5.139047
516.000000	5.196681
517.000000	5.219238
518.000000	5.221871
519.000000	5.235029
520.000000	5.221192
521.000000	5.213328
522.000000	5.185894
523.000000	5.146452
524.000000	5.109460
525.000000	5.088579
526.000000	5.044367
527.000000	5.039594
528.000000	5.022439
529.000000	4.984083
530.000000	4.980805
531.000000	4.961675
532.000000	4.952758
533.000000	4.934712
534.000000	4.920417
535.000000	4.902331
536.000000	4.875957
537.000000	4.855004
538.000000	4.857684
539.000000	4.839371
540.000000	4.830317
541.000000	4.811252
542.000000	4.819999
543.000000	4.807764
544.000000	4.787454
545.000000	4.801187
546.000000	4.784240
547.000000	4.761542
548.000000	4.757523
549.000000	4.761394
550.000000	4.739660
551.000000	4.727001
552.000000	4.742876
553.000000	4.736108
554.000000	4.724844
555.000000	4.696739
556.000000	4.707933
557.000000	4.706533
558.000000	4.682035
559.000000	4.700872
560.000000	4.732303
561.000000	4.720724
562.000000	4.706539
563.000000	4.708287
564.000000	4.705409
565.000000	4.719171
566.000000	4.743945
567.000000	4.748404
568.000000	4.705232
569.000000	4.697271
570.000000	4.711965
571.000000	4.678865
572.000000	4.687173
573.000000	4.653677
574.000000	4.612425
575.000000	4.622106
576.000000	4.611824
577.000000	4.570974
578.000000	4.543743
579.000000	4.560511
580.000000	4.521249
581.000000	4.459750
582.000000	4.451023
583.000000	4.366392
584.000000	4.375746
585.000000	4.367186
586.000000	4.300927
587.000000	4.271856
588.000000	4.271775
589.000000	4.248660
590.000000	4.186191
591.000000	4.106577
592.000000	4.138453
593.000000	4.067594
594.000000	3.997342
595.000000	3.969848
596.000000	3.907601
597.000000	3.848334
598.000000	3.767969
599.000000	3.674157
600.000000	3.610966
601.000000	3.483002
602.000000	3.357645
603.000000	3.267662
604.000000	3.163850
605.000000	3.020883
606.000000	2.934859
607.000000	2.803723
608.000000	2.696062
609.000000	2.582007
610.000000	2.440252
611.000000	2.322421
612.000000	2.224282
613.000000	2.094561
614.000000	1.992968
615.000000	1.889462
616.000000	1.721164
617.000000	1.624315
618.000000	1.511821
619.000000	1.410850
620.000000	1.285056
621.000000	1.173070
622.000000	1.079098
623.000000	0.952034
624.000000	0.902779
625.000000	0.857375
626.000000	0.830668
627.000000	0.833705
628.000000	0.885576
629.000000	0.946824
630.000000	1.028782
631.000000	1.148403
632.000000	1.280681
633.000000	1.494265
634.000000	1.599819
635.000000	1.761179
636.000000	1.887504
637.000000	2.049655
638.000000	2.177500
639.000000	2.320945
640.000000	2.405257
641.000000	2.500448
642.000000	2.599736
643.000000	2.637238
644.000000	2.704667
645.000000	2.730447
646.000000	2.762723
647.000000	2.799519
648.000000	2.827909
649.000000	2.841883
650.000000	2.852517
651.000000	2.892840
652.000000	2.874904
653.000000	2.905806
654.000000	2.914770
655.000000	2.952673
656.000000	2.966498
657.000000	3.000618
658.000000	3.031094
659.000000	3.055089
660.000000	3.067241
661.000000	3.088766
662.000000	3.129758
663.000000	3.125240
664.000000	3.116664
665.000000	3.135428
666.000000	3.113762
667.000000	3.108280
668.000000	3.089751
669.000000	3.082332
670.000000	3.060751
671.000000	3.052468
672.000000	3.086652
673.000000	3.080526
674.000000	3.063239
675.000000	3.024798
676.000000	3.038872
677.000000	3.043172
678.000000	3.047667
679.000000	3.082972
680.000000	3.055560
681.000000	3.061968
682.000000	3.123502
683.000000	3.096058
684.000000	3.084418
685.000000	3.066171
686.000000	3.066865
687.000000	3.064499
688.000000	3.050784
689.000000	2.991880
690.000000	2.992820
691.000000	2.975829
692.000000	2.988497
693.000000	2.917392
694.000000	2.901410
695.000000	2.907744
696.000000	2.914471
697.000000	2.901540
698.000000	2.871448
699.000000	2.846539
700.000000	2.825656
701.000000	2.856686
702.000000	2.893485
703.000000	2.895047
704.000000	2.921240
705.000000	2.999073
706.000000	3.040999
707.000000	3.065532
708.000000	3.119124
709.000000	3.198879
710.000000	3.282002
711.000000	3.315166
712.000000	3.344010
713.000000	3.386722
714.000000	3.435196
715.000000	3.524650
716.000000	3.569384
717.000000	3.582894
718.000000	3.670229
719.000000	3.708721
720.000000	3.719430
721.000000	3.750257
722.000000	3.738744
723.000000	3.746232
724.000000	3.752403
725.000000	3.746589
726.000000	3.785799
727.000000	3.783031
728.000000	3.767618
729.000000	3.802033
730.000000	3.806893
731.000000	3.837644
732.000000	3.887294
733.000000	3.928309
734.000000	3.973069
735.000000	3.989472
736.000000	4.030631
737.000000	4.118074
738.000000	4.142870
739.000000	4.154715
740.000000	4.232962
741.000000	4.294777
742.000000	4.356661
743.000000	4.444134
744.000000	4.481780
745.000000	4.528065
746.000000	4.612545
747.000000	4.658091
748.000000	4.662449
749.000000	4.637828
750.000000	4.645618
751.000000	4.687303
752.000000	4.703813
753.000000	4.676493
754.000000	4.678388
755.000000	4.642605
756.000000	4.628430
757.000000	4.622432
758.000000	4.576087
759.000000	4.476904
760.000000	4.413182
761.000000	4.425893
762.000000	4.344538
763.000000	4.259991
764.000000	4.250404
765.000000	4.107151
766.000000	4.048302
767.000000	4.096348
768.000000	4.004159
769.000000	3.920648
770.000000	3.899295
771.000000	3.884409
772.000000	3.887966
773.000000	3.877477
774.000000	3.787335
775.000000	3.784695
776.000000	3.803919
777.000000	3.851992
778.000000	3.919797
779.000000	4.003287
780.000000	3.911973
781.000000	3.970775
782.000000	4.046525
783.000000	4.078656
784.000000	4.139008
785.000000	4.160464
786.000000	4.132110
787.000000	4.194739
788.000000	4.281144
789.000000	4.308427
790.000000	4.303281
791.000000	4.377526
792.000000	4.356872
793.000000	4.363519
794.000000	4.457963
795.000000	4.362871
796.000000	4.326291
797.000000	4.271611
798.000000	4.282816
799.000000	4.321992
800.000000	4.290930
801.000000	4.279083
802.000000	4.239825
803.000000	4.160525
804.000000	4.140502
805.000000	4.131195
806.000000	4.086231
807.000000	4.059282
808.000000	3.997596
809.000000	3.933478
810.000000	3.924835
811.000000	3.827844
812.000000	3.848875
813.000000	3.787507
814.000000	3.718163
815.000000	3.751336
816.000000	3.655735
817.000000	3.640822
818.000000	3.585093
819.000000	3.496824
820.000000	3.480207
821.000000	3.467196
822.000000	3.323632
823.000000	3.184539
824.000000	3.072967
825.000000	3.037997
826.000000	3.093657
827.000000	2.993325
828.000000	2.903238
829.000000	2.949815
830.000000	2.763117
831.000000	2.752220
832.000000	2.799218
833.000000	2.713183
834.000000	2.832900
835.000000	2.777986
836.000000	2.681539
837.000000	2.686354
838.000000	2.657562
839.000000	2.567632
840.000000	2.783139
841.000000	2.584678
842.000000	2.608844
843.000000	2.712117
844.000000	2.636318
845.000000	2.766386
846.000000	2.850794
847.000000	2.653647
848.000000	2.819460
849.000000	2.576173
850.000000	2.532808
851.000000	2.639238
852.000000	2.973560
853.000000	2.750559
854.000000	3.203222
855.000000	2.662934
856.000000	3.035584
857.000000	2.747457
858.000000	2.812862
859.000000	2.434718
860.000000	2.423127
861.000000	2.398387
862.000000	2.402831
863.000000	2.408704
864.000000	2.415200
865.000000	2.431561
866.000000	2.433103
867.000000	2.415463
868.000000	2.415913
869.000000	2.432648
870.000000	2.426039
871.000000	2.445771
872.000000	2.469112
873.000000	2.482887
874.000000	2.508260
875.000000	2.549040
876.000000	2.567011
877.000000	2.591475
878.000000	2.616214
879.000000	2.643671
880.000000	2.681616
881.000000	2.709534
882.000000	2.737681
883.000000	2.782797
884.000000	2.804887
885.000000	2.824305
886.000000	2.870743
887.000000	2.898847
888.000000	2.925358
889.000000	3.001514
890.000000	3.038610
891.000000	3.076513
892.000000	3.113149
893.000000	3.159617
894.000000	3.240380
895.000000	3.288356
896.000000	3.329088
897.000000	3.384063
898.000000	3.438932
899.000000	3.490003
900.000000	3.534458
901.000000	3.571138
902.000000	3.613685
903.000000	3.687660
904.000000	3.726564
905.000000	3.764041
906.000000	3.794030
907.000000	3.836261
908.000000	3.873917
909.000000	3.891733
910.000000	3.941696
911.000000	3.967148
912.000000	3.982817
913.000000	4.021794
914.000000	4.031654
915.000000	4.071281
916.000000	4.092554
917.000000	4.082222
918.000000	4.121010
919.000000	4.124866
920.000000	4.125994
921.000000	4.143877
922.000000	4.152768
923.000000	4.161494
924.000000	4.159391
925.000000	4.172003
926.000000	4.154332
927.000000	4.139332
928.000000	4.165898
929.000000	4.165275
930.000000	4.143137
931.000000	4.149889
932.000000	4.139945
933.000000	4.128292
934.000000	4.127619
935.000000	4.124309
936.000000	4.126770
937.000000	4.124709
938.000000	4.116999
939.000000	4.102964
940.000000	4.115467
941.000000	4.121838
942.000000	4.115432
943.000000	4.106091
944.000000	4.121920
945.000000	4.130865
946.000000	4.116829
947.000000	4.134794
948.000000	4.155644
949.000000	4.153792
950.000000	4.157016
951.000000	4.164058
952.000000	4.169698
953.000000	4.186095
954.000000	4.192687
955.000000	4.187213
956.000000	4.204754
957.000000	4.220229
958.000000	4.222136
959.000000	4.237397
960.000000	4.247197
961.000000	4.243205
962.000000	4.253630
963.000000	4.249496
964.000000	4.265152
965.000000	4.266340
966.000000	4.259647
967.000000	4.253368
968.000000	4.254827
969.000000	4.254459
970.000000	4.252397
971.000000	4.245415
972.000000	4.243167
973.000000	4.226115
974.000000	4.221403
975.000000	4.192186
976.000000	4.174925
977.000000	4.170880
978.000000	4.161182
979.000000	4.135186
980.000000	4.107989
981.000000	4.097892
982.000000	4.076734
983.000000	4.050257
984.000000	4.033272
985.000000	4.013659
986.000000	4.001301
987.000000	3.983499
988.000000	3.958050
989.000000	3.931089
990.000000	3.914802
991.000000	3.896925
992.000000	3.888639
993.000000	3.867914
994.000000	3.825043
995.000000	3.802572
996.000000	3.805916
997.000000	3.798088
998.000000	3.783292
999.000000	3.768119
1000.000000	3.761082
1001.000000	3.760847
1002.000000	3.749430
1003.000000	3.735607
1004.000000	3.730911
1005.000000	3.725287
1006.000000	3.728098
1007.000000	3.729872
1008.000000	3.727451
1009.000000	3.727902
1010.000000	3.725802
1011.000000	3.717760
1012.000000	3.718217
1013.000000	3.711563
1014.000000	3.701031
1015.000000	3.699056
1016.000000	3.698851
1017.000000	3.693882
1018.000000	3.704333
1019.000000	3.701877
1020.000000	3.690600
1021.000000	3.700026
1022.000000	3.692280
1023.000000	3.679707
1024.000000	3.679948
1025.000000	3.669972
1026.000000	3.664257
1027.000000	3.662005
1028.000000	3.652655
1029.000000	3.642281
1030.000000	3.633360
1031.000000	3.625719
1032.000000	3.622261
1033.000000	3.613868
1034.000000	3.593594
1035.000000	3.577934
1036.000000	3.567026
1037.000000	3.559380
1038.000000	3.552199
1039.000000	3.551466
1040.000000	3.550109
1041.000000	3.541984
1042.000000	3.530272
1043.000000	3.514194
1044.000000	3.508860
1045.000000	3.501823
1046.000000	3.489095
1047.000000	3.484240
1048.000000	3.478427
1049.000000	3.476476
1050.000000	3.470334
1051.000000	3.465734
1052.000000	3.455126
1053.000000	3.452766
1054.000000	3.444751
1055.000000	3.434496
1056.000000	3.434142
1057.000000	3.430861
1058.000000	3.430342
1059.000000	3.420992
1060.000000	3.411247
1061.000000	3.410219
1062.000000	3.411578
1063.000000	3.403609
1064.000000	3.393557
1065.000000	3.393906
1066.000000	3.398693
1067.000000	3.384913
1068.000000	3.371617
1069.000000	3.375133
1070.000000	3.371258
1071.000000	3.365431
1072.000000	3.366808
1073.000000	3.367319
1074.000000	3.356376
1075.000000	3.360025
1076.000000	3.354683
1077.000000	3.345728
1078.000000	3.347232
1079.000000	3.340510
1080.000000	3.328340
1081.000000	3.328170
1082.000000	3.334561
1083.000000	3.342911
1084.000000	3.329428
1085.000000	3.317010
1086.000000	3.321754
1087.000000	3.323187
1088.000000	3.319382
1089.000000	3.317515
1090.000000	3.310073
1091.000000	3.313692
1092.000000	3.312345
1093.000000	3.314370
1094.000000	3.302952
1095.000000	3.310867
1096.000000	3.312614
1097.000000	3.312174
1098.000000	3.301384
1099.000000	3.295430
1100.000000	3.297091
1101.000000	3.304889
1102.000000	3.309266
1103.000000	3.309223
1104.000000	3.310881
1105.000000	3.305753
1106.000000	3.307879
1107.000000	3.304254
1108.000000	3.309533
1109.000000	3.315982
1110.000000	3.306347
1111.000000	3.290498
1112.000000	3.308842
1113.000000	3.309370
1114.000000	3.300833
1115.000000	3.312312
1116.000000	3.300737
1117.000000	3.299950
1118.000000	3.311443
1119.000000	3.311356
1120.000000	3.304336
1121.000000	3.296963
1122.000000	3.295320
1123.000000	3.300120
1124.000000	3.303849
1125.000000	3.305099
1126.000000	3.307529
1127.000000	3.307309
1128.000000	3.312343
1129.000000	3.315452
1130.000000	3.320188
1131.000000	3.310383
1132.000000	3.307812
1133.000000	3.294364
1134.000000	3.284405
1135.000000	3.292125
1136.000000	3.301238
1137.000000	3.294586
1138.000000	3.305415
1139.000000	3.303032
1140.000000	3.288554
1141.000000	3.283908
1142.000000	3.289932
1143.000000	3.273344
1144.000000	3.267285
1145.000000	3.262272
1146.000000	3.248993
1147.000000	3.257122
1148.000000	3.264537
1149.000000	3.253954
1150.000000	3.239722
1151.000000	3.232560
1152.000000	3.237347
1153.000000	3.234462
1154.000000	3.228618
1155.000000	3.235862
1156.000000	3.231995
1157.000000	3.223965
1158.000000	3.214668
1159.000000	3.225877
1160.000000	3.219721
1161.000000	3.221483
1162.000000	3.207574
1163.000000	3.209549
1164.000000	3.208224
1165.000000	3.208208
1166.000000	3.208612
1167.000000	3.203237
1168.000000	3.214758
1169.000000	3.201260
1170.000000	3.194766
1171.000000	3.206251
1172.000000	3.185752
1173.000000	3.186821
1174.000000	3.189470
1175.000000	3.192944
1176.000000	3.210683
1177.000000	3.193505
1178.000000	3.193329
1179.000000	3.189102
1180.000000	3.190437
1181.000000	3.194005
1182.000000	3.197584
1183.000000	3.196909
1184.000000	3.195533
1185.000000	3.193470
1186.000000	3.188234
1187.000000	3.177659
1188.000000	3.182610
1189.000000	3.181826
1190.000000	3.191389
1191.000000	3.190871
1192.000000	3.193913
1193.000000	3.189491
1194.000000	3.182019
1195.000000	3.195018
1196.000000	3.190687
1197.000000	3.185850
1198.000000	3.190898
1199.000000	3.190853
1200.000000	3.188955
1201.000000	3.199874
1202.000000	3.209571
1203.000000	3.204057
1204.000000	3.206484
1205.000000	3.212796
1206.000000	3.203993
1207.000000	3.224790
1208.000000	3.215485
1209.000000	3.213558
1210.000000	3.237003
1211.000000	3.230383
1212.000000	3.234522
1213.000000	3.219628
1214.000000	3.221982
1215.000000	3.227026
1216.000000	3.228099
1217.000000	3.224849
1218.000000	3.219233
1219.000000	3.208411
1220.000000	3.218848
1221.000000	3.209840
1222.000000	3.206160
1223.000000	3.205982
1224.000000	3.201790
1225.000000	3.204732
1226.000000	3.194173
1227.000000	3.190274
1228.000000	3.189257
1229.000000	3.181997
1230.000000	3.173825
1231.000000	3.180577
1232.000000	3.173979
1233.000000	3.157983
1234.000000	3.152199
1235.000000	3.155225
1236.000000	3.151625
1237.000000	3.148826
1238.000000	3.148590
1239.000000	3.141910
1240.000000	3.138948
1241.000000	3.133423
1242.000000	3.130785
1243.000000	3.144418
1244.000000	3.146048
1245.000000	3.135175
1246.000000	3.124561
1247.000000	3.133586
1248.000000	3.156674
1249.000000	3.141397
1250.000000	3.137041
1251.000000	3.146615
1252.000000	3.139801
1253.000000	3.144425
1254.000000	3.148699
1255.000000	3.144850
1256.000000	3.160408
1257.000000	3.160220
1258.000000	3.155744
1259.000000	3.162535
1260.000000	3.169364
1261.000000	3.172562
1262.000000	3.170736
1263.000000	3.170287
1264.000000	3.170239
1265.000000	3.171342
1266.000000	3.172792
1267.000000	3.162918
1268.000000	3.173446
1269.000000	3.177791
1270.000000	3.174475
1271.000000	3.164621
1272.000000	3.172847
1273.000000	3.173955
1274.000000	3.173176
1275.000000	3.177943
1276.000000	3.178296
1277.000000	3.180836
1278.000000	3.182409
1279.000000	3.176549
1280.000000	3.181686
1281.000000	3.181744
1282.000000	3.179854
1283.000000	3.176139
1284.000000	3.175511
1285.000000	3.183029
1286.000000	3.178868
1287.000000	3.175392
1288.000000	3.178121
1289.000000	3.176771
1290.000000	3.171924
1291.000000	3.177039
1292.000000	3.180073
1293.000000	3.177631
1294.000000	3.182231
1295.000000	3.184350
1296.000000	3.183254
1297.000000	3.178310
1298.000000	3.177407
1299.000000	3.179182
1300.000000	3.178636
1301.000000	3.171753
1302.000000	3.164282
1303.000000	3.163289
1304.000000	3.161498
1305.000000	3.163453
1306.000000	3.159651
1307.000000	3.157449
1308.000000	3.159372
1309.000000	3.158873
1310.000000	3.154410
1311.000000	3.148172
1312.000000	3.147627
1313.000000	3.145147
1314.000000	3.133105
1315.000000	3.130045
1316.000000	3.131465
1317.000000	3.127466
1318.000000	3.120550
1319.000000	3.116589
1320.000000	3.112777
1321.000000	3.111641
1322.000000	3.102600
1323.000000	3.109932
1324.000000	3.112365
1325.000000	3.109325
1326.000000	3.107762
1327.000000	3.103429
1328.000000	3.109903
1329.000000	3.108769
1330.000000	3.109917
1331.000000	3.111872
1332.000000	3.110757
1333.000000	3.114887
1334.000000	3.113846
1335.000000	3.116559
1336.000000	3.114208
1337.000000	3.111752
1338.000000	3.109560
1339.000000	3.110362
1340.000000	3.118222
1341.000000	3.122920
1342.000000	3.122258
1343.000000	3.118895
1344.000000	3.124673
1345.000000	3.117055
1346.000000	3.104262
1347.000000	3.093112
1348.000000	3.116595
1349.000000	3.132302
1350.000000	3.127668
1351.000000	3.118481
1352.000000	3.106126
1353.000000	3.093555
1354.000000	3.090901
1355.000000	3.112461
1356.000000	3.120130
1357.000000	3.111539
1358.000000	3.079108
1359.000000	3.063856
1360.000000	3.050034
1361.000000	3.046641
1362.000000	3.055629
1363.000000	3.054723
1364.000000	3.061882
1365.000000	3.059537
1366.000000	3.060891
1367.000000	3.059447
1368.000000	3.055271
1369.000000	3.059021
1370.000000	3.053537
1371.000000	3.069769
1372.000000	3.075486
1373.000000	3.093531
1374.000000	3.089287
1375.000000	3.102249
1376.000000	3.078402
1377.000000	3.068380
1378.000000	3.052405
1379.000000	3.011088
1380.000000	2.984102
1381.000000	2.981094
1382.000000	2.983987
1383.000000	3.009902
1384.000000	3.043240
1385.000000	3.052570
1386.000000	3.037618
1387.000000	3.036940
1388.000000	3.062669
1389.000000	3.058829
1390.000000	3.067437
1391.000000	3.031389
1392.000000	3.014013
1393.000000	3.001582
1394.000000	3.003322
1395.000000	3.015141
1396.000000	3.040430
1397.000000	3.042665
1398.000000	3.036772
1399.000000	3.021408
1400.000000	3.015645
1401.000000	3.011151
1402.000000	3.046585
1403.000000	3.038796
1404.000000	3.012367
1405.000000	3.003953
1406.000000	3.014557
1407.000000	3.025322
1408.000000	3.011536
1409.000000	3.031718
1410.000000	3.021630
1411.000000	3.024552
1412.000000	3.014694
1413.000000	3.005476
1414.000000	3.004548
1415.000000	3.003887
1416.000000	3.000213
1417.000000	2.978584
1418.000000	2.969296
1419.000000	2.961202
1420.000000	2.951577
1421.000000	2.963890
1422.000000	2.947177
1423.000000	2.946331
1424.000000	2.930612
1425.000000	2.929016
1426.000000	2.927783
1427.000000	2.909407
1428.000000	2.895485
1429.000000	2.901536
1430.000000	2.885954
1431.000000	2.878974
1432.000000	2.871205
1433.000000	2.873354
1434.000000	2.858539
1435.000000	2.868957
1436.000000	2.848056
1437.000000	2.843131
1438.000000	2.846407
1439.000000	2.845275
1440.000000	2.843521
1441.000000	2.846154
1442.000000	2.850323
1443.000000	2.836574
1444.000000	2.840904
1445.000000	2.816367
1446.000000	2.822778
1447.000000	2.826040
1448.000000	2.827571
1449.000000	2.809167
1450.000000	2.812456
1451.000000	2.806820
1452.000000	2.798255
1453.000000	2.814740
1454.000000	2.803128
1455.000000	2.801817
1456.000000	2.804294
1457.000000	2.788503
1458.000000	2.774163
1459.000000	2.763997
1460.000000	2.753251
1461.000000	2.753550
1462.000000	2.750165
1463.000000	2.744347
1464.000000	2.734502
1465.000000	2.727641
1466.000000	2.714708
1467.000000	2.723800
1468.000000	2.710666
1469.000000	2.701381
1470.000000	2.685424
1471.000000	2.686637
1472.000000	2.677783
1473.000000	2.664591
1474.000000	2.656878
1475.000000	2.649107
1476.000000	2.637434
1477.000000	2.638924
1478.000000	2.639576
1479.000000	2.626031
1480.000000	2.621338
1481.000000	2.626125
1482.000000	2.624362
1483.000000	2.624276
1484.000000	2.627149
1485.000000	2.615120
1486.000000	2.596958
1487.000000	2.598375
1488.000000	2.611188
1489.000000	2.606894
1490.000000	2.606810
1491.000000	2.602908
1492.000000	2.601335
1493.000000	2.603970
1494.000000	2.594643
1495.000000	2.590776
1496.000000	2.595139
1497.000000	2.595324
1498.000000	2.581138
1499.000000	2.585155
1500.000000	2.589646
1501.000000	2.590135
1502.000000	2.583777
1503.000000	2.584484
1504.000000	2.590176
1505.000000	2.582971
1506.000000	2.588405
1507.000000	2.591726
1508.000000	2.589582
1509.000000	2.593133
1510.000000	2.589951
1511.000000	2.578786
1512.000000	2.579483
1513.000000	2.589545
1514.000000	2.593021
1515.000000	2.584340
1516.000000	2.579395
1517.000000	2.587411
1518.000000	2.603624
1519.000000	2.592452
1520.000000	2.593663
1521.000000	2.607108
1522.000000	2.600440
1523.000000	2.605685
1524.000000	2.599690
1525.000000	2.595210
1526.000000	2.600042
1527.000000	2.597598
1528.000000	2.593422
1529.000000	2.592096
1530.000000	2.593702
1531.000000	2.600221
1532.000000	2.602155
1533.000000	2.606795
1534.000000	2.611316
1535.000000	2.604887
1536.000000	2.612825
1537.000000	2.618390
1538.000000	2.614111
1539.000000	2.609687
1540.000000	2.614358
1541.000000	2.617640
1542.000000	2.609451
1543.000000	2.601653
1544.000000	2.606620
1545.000000	2.600375
1546.000000	2.597005
1547.000000	2.606333
1548.000000	2.612561
1549.000000	2.615553
1550.000000	2.613504
1551.000000	2.610702
1552.000000	2.610565
1553.000000	2.613427
1554.000000	2.616650
1555.000000	2.623740
1556.000000	2.622874
1557.000000	2.625589
1558.000000	2.628185
1559.000000	2.624636
1560.000000	2.618221
1561.000000	2.610088
1562.000000	2.608893
1563.000000	2.610816
1564.000000	2.608119
1565.000000	2.602557
1566.000000	2.594680
1567.000000	2.588642
1568.000000	2.592553
1569.000000	2.591029
1570.000000	2.583433
1571.000000	2.573353
1572.000000	2.570809
1573.000000	2.570882
1574.000000	2.569284
1575.000000	2.575254
1576.000000	2.570690
1577.000000	2.558606
1578.000000	2.555299
1579.000000	2.551353
1580.000000	2.553879
1581.000000	2.547271
1582.000000	2.540558
1583.000000	2.545634
1584.000000	2.547842
1585.000000	2.538666
1586.000000	2.533898
1587.000000	2.538686
1588.000000	2.529890
1589.000000	2.525053
1590.000000	2.527797
1591.000000	2.530441
1592.000000	2.521666
1593.000000	2.517785
1594.000000	2.524905
1595.000000	2.522210
1596.000000	2.511782
1597.000000	2.512092
1598.000000	2.510125
1599.000000	2.504322
1600.000000	2.498133
1601.000000	2.500564
1602.000000	2.502872
1603.000000	2.490440
1604.000000	2.488887
1605.000000	2.494560
1606.000000	2.495255
1607.000000	2.484165
1608.000000	2.487240
1609.000000	2.482726
1610.000000	2.481815
1611.000000	2.475855
1612.000000	2.476489
1613.000000	2.474421
1614.000000	2.483621
1615.000000	2.480416
1616.000000	2.479112
1617.000000	2.479842
1618.000000	2.482575
1619.000000	2.485456
1620.000000	2.478147
1621.000000	2.472279
1622.000000	2.478589
1623.000000	2.481821
1624.000000	2.479378
1625.000000	2.474691
1626.000000	2.469062
1627.000000	2.477286
1628.000000	2.480348
1629.000000	2.476546
1630.000000	2.470757
1631.000000	2.474330
1632.000000	2.482933
1633.000000	2.486441
1634.000000	2.489408
1635.000000	2.480203
1636.000000	2.483848
1637.000000	2.484200
1638.000000	2.485931
1639.000000	2.483816
1640.000000	2.486538
1641.000000	2.488062
1642.000000	2.491070
1643.000000	2.498583
1644.000000	2.503084
1645.000000	2.489444
1646.000000	2.496889
1647.000000	2.497532
1648.000000	2.505603
1649.000000	2.510015
1650.000000	2.512040
1651.000000	2.504514
1652.000000	2.501850
1653.000000	2.502275
1654.000000	2.514750
1655.000000	2.514072
1656.000000	2.527536
1657.000000	2.521399
1658.000000	2.530817
1659.000000	2.536384
1660.000000	2.531793
1661.000000	2.543885
1662.000000	2.551084
1663.000000	2.539481
1664.000000	2.562565
1665.000000	2.552016
1666.000000	2.561613
1667.000000	2.565169
1668.000000	2.558129
1669.000000	2.550876
1670.000000	2.551743
1671.000000	2.549703
1672.000000	2.534439
1673.000000	2.528942
1674.000000	2.525997
1675.000000	2.521935
1676.000000	2.523574
1677.000000	2.518243
1678.000000	2.508243
1679.000000	2.492884
1680.000000	2.497589
1681.000000	2.492206
1682.000000	2.502915
1683.000000	2.484808
1684.000000	2.466559
1685.000000	2.465099
1686.000000	2.462215
1687.000000	2.444852
1688.000000	2.430177
1689.000000	2.419588
1690.000000	2.407481
1691.000000	2.404563
1692.000000	2.391462
1693.000000	2.381729
1694.000000	2.385810
1695.000000	2.363081
1696.000000	2.361367
1697.000000	2.350616
1698.000000	2.347534
1699.000000	2.342707
1700.000000	2.336153
1701.000000	2.335049
1702.000000	2.337950
1703.000000	2.324484
1704.000000	2.322324
1705.000000	2.320861
1706.000000	2.315957
1707.000000	2.310425
1708.000000	2.321733
1709.000000	2.311395
1710.000000	2.286363
1711.000000	2.301683
1712.000000	2.309587
1713.000000	2.301883
1714.000000	2.302969
1715.000000	2.295717
1716.000000	2.297748
1717.000000	2.298284
1718.000000	2.301222
1719.000000	2.299641
1720.000000	2.291096
1721.000000	2.299337
1722.000000	2.286218
1723.000000	2.287631
1724.000000	2.276323
1725.000000	2.267812
1726.000000	2.274129
1727.000000	2.285908
1728.000000	2.273085
1729.000000	2.271359
1730.000000	2.287919
1731.000000	2.282228
1732.000000	2.276729
1733.000000	2.270593
1734.000000	2.268493
1735.000000	2.259224
1736.000000	2.261752
1737.000000	2.256126
1738.000000	2.259019
1739.000000	2.258587
1740.000000	2.260249
1741.000000	2.259517
1742.000000	2.255159
1743.000000	2.251503
1744.000000	2.257650
1745.000000	2.258171
1746.000000	2.261492
1747.000000	2.266016
1748.000000	2.250273
1749.000000	2.246929
1750.000000	2.253243
1751.000000	2.242444
1752.000000	2.246377
1753.000000	2.247897
1754.000000	2.249693
1755.000000	2.240618
1756.000000	2.239378
1757.000000	2.260314
1758.000000	2.250695
1759.000000	2.247365
1760.000000	2.251179
1761.000000	2.247630
1762.000000	2.250946
1763.000000	2.260837
1764.000000	2.253383
1765.000000	2.256008
1766.000000	2.258137
1767.000000	2.259145
1768.000000	2.262889
1769.000000	2.261919
1770.000000	2.259932
1771.000000	2.263310
1772.000000	2.263227
1773.000000	2.264095
1774.000000	2.259840
1775.000000	2.262077
1776.000000	2.268930
1777.000000	2.272337
1778.000000	2.269217
1779.000000	2.257483
1780.000000	2.262445
1781.000000	2.267794
1782.000000	2.271100
1783.000000	2.284965
1784.000000	2.291796
1785.000000	2.286374
1786.000000	2.277527
1787.000000	2.283058
1788.000000	2.276934
1789.000000	2.272369
1790.000000	2.266584
1791.000000	2.282663
1792.000000	2.283772
1793.000000	2.271738
1794.000000	2.271412
1795.000000	2.277938
1796.000000	2.282559
1797.000000	2.277436
1798.000000	2.265198
1799.000000	2.268447
1800.000000	2.264816
1801.000000	2.261365
1802.000000	2.256526
1803.000000	2.254792
1804.000000	2.257476
1805.000000	2.248823
1806.000000	2.246845
1807.000000	2.261464
1808.000000	2.259448
1809.000000	2.248068
1810.000000	2.238069
1811.000000	2.234745
1812.000000	2.230591
1813.000000	2.230344
1814.000000	2.234309
1815.000000	2.226013
1816.000000	2.222060
1817.000000	2.214078
1818.000000	2.209615
1819.000000	2.199286
1820.000000	2.193389
1821.000000	2.205150
1822.000000	2.217506
1823.000000	2.221288
1824.000000	2.208859
1825.000000	2.195985
1826.000000	2.185573
1827.000000	2.177739
1828.000000	2.171704
1829.000000	2.179121
1830.000000	2.180838
1831.000000	2.183197
1832.000000	2.175893
1833.000000	2.173163
1834.000000	2.169430
1835.000000	2.147299
1836.000000	2.136832
1837.000000	2.132029
1838.000000	2.125561
1839.000000	2.130772
1840.000000	2.137315
1841.000000	2.134287
1842.000000	2.138993
1843.000000	2.138700
1844.000000	2.134382
1845.000000	2.128860
1846.000000	2.114771
1847.000000	2.113255
1848.000000	2.110620
1849.000000	2.115513
1850.000000	2.124078
1851.000000	2.124808
1852.000000	2.116052
1853.000000	2.108356
1854.000000	2.109446
1855.000000	2.106467
1856.000000	2.112809
1857.000000	2.108444
1858.000000	2.091286
1859.000000	2.088490
1860.000000	2.102156
1861.000000	2.115421
1862.000000	2.120932
1863.000000	2.119831
1864.000000	2.114732
1865.000000	2.099981
1866.000000	2.081173
1867.000000	2.075406
1868.000000	2.059039
1869.000000	2.022682
1870.000000	2.012333
1871.000000	2.030644
1872.000000	2.033696
1873.000000	2.037922
1874.000000	2.050662
1875.000000	2.046274
1876.000000	2.064401
1877.000000	2.068028
1878.000000	2.076694
1879.000000	2.080304
1880.000000	2.080420
1881.000000	2.097611
1882.000000	2.085294
1883.000000	2.075582
1884.000000	2.085975
1885.000000	2.082969
1886.000000	2.073719
1887.000000	2.070570
1888.000000	2.056969
1889.000000	2.045151
1890.000000	2.026475
1891.000000	2.033199
1892.000000	2.030127
1893.000000	2.014994
1894.000000	2.006663
1895.000000	2.005867
1896.000000	1.981572
1897.000000	1.962697
1898.000000	1.940739
1899.000000	1.896123
1900.000000	1.877537
1901.000000	1.859904
1902.000000	1.831914
1903.000000	1.817655
1904.000000	1.787095
1905.000000	1.762183
1906.000000	1.749286
1907.000000	1.715003
1908.000000	1.698870
1909.000000	1.675483
1910.000000	1.655720
1911.000000	1.611954
1912.000000	1.606278
1913.000000	1.566851
1914.000000	1.543120
1915.000000	1.526855
1916.000000	1.511222
1917.000000	1.507601
1918.000000	1.483118
1919.000000	1.466493
1920.000000	1.459440
1921.000000	1.434794
1922.000000	1.411099
1923.000000	1.388887
1924.000000	1.392339
1925.000000	1.376970
1926.000000	1.368098
1927.000000	1.360794
1928.000000	1.361554
1929.000000	1.347825
1930.000000	1.346869
1931.000000	1.335186
1932.000000	1.331621
1933.000000	1.345532
1934.000000	1.342968
1935.000000	1.331152
1936.000000	1.335016
1937.000000	1.327655
1938.000000	1.323511
1939.000000	1.335790
1940.000000	1.330684
1941.000000	1.339281
1942.000000	1.350391
1943.000000	1.358528
1944.000000	1.350983
1945.000000	1.355881
1946.000000	1.361687
1947.000000	1.363610
1948.000000	1.382936
1949.000000	1.377733
1950.000000	1.387931
1951.000000	1.380332
1952.000000	1.391640
1953.000000	1.405067
1954.000000	1.406445
1955.000000	1.410312
1956.000000	1.426107
1957.000000	1.421738
1958.000000	1.432750
1959.000000	1.417872
1960.000000	1.431122
1961.000000	1.431414
1962.000000	1.464628
1963.000000	1.458971
1964.000000	1.439731
1965.000000	1.462751
1966.000000	1.460173
1967.000000	1.472488
1968.000000	1.483852
1969.000000	1.501057
1970.000000	1.467444
1971.000000	1.488065
1972.000000	1.487411
1973.000000	1.486690
1974.000000	1.492464
1975.000000	1.489468
1976.000000	1.499476
1977.000000	1.486758
1978.000000	1.500746
1979.000000	1.507933
1980.000000	1.509079
1981.000000	1.511487
1982.000000	1.523178
1983.000000	1.523995
1984.000000	1.524109
1985.000000	1.534132
1986.000000	1.525174
1987.000000	1.525831
1988.000000	1.535859
1989.000000	1.525426
1990.000000	1.532052
1991.000000	1.538169
1992.000000	1.540008
1993.000000	1.528781
1994.000000	1.540280
1995.000000	1.537380
1996.000000	1.528550
1997.000000	1.535717
1998.000000	1.536872
1999.000000	1.536510
2000.000000	1.540997
2001.000000	1.542619
2002.000000	1.530830
2003.000000	1.522727
2004.000000	1.534420
2005.000000	1.534350
2006.000000	1.529771
2007.000000	1.529639
2008.000000	1.526848
2009.000000	1.529303
2010.000000	1.512212
2011.000000	1.509090
2012.000000	1.528814
2013.000000	1.516735
2014.000000	1.508957
2015.000000	1.508927
2016.000000	1.497035
2017.000000	1.513521
2018.000000	1.505103
2019.000000	1.480679
2020.000000	1.473712
2021.000000	1.482073
2022.000000	1.484216
2023.000000	1.480010
2024.000000	1.470984
2025.000000	1.457836
2026.000000	1.451292
2027.000000	1.454108
2028.000000	1.446720
2029.000000	1.438910
2030.000000	1.445221
2031.000000	1.432148
2032.000000	1.418852
2033.000000	1.419503
2034.000000	1.407158
2035.000000	1.404722
2036.000000	1.395508
2037.000000	1.373057
2038.000000	1.369940
2039.000000	1.363782
2040.000000	1.349283
2041.000000	1.338768
2042.000000	1.315626
2043.000000	1.310737
2044.000000	1.312331
2045.000000	1.293405
2046.000000	1.279995
2047.000000	1.273785
2048.000000	1.261177
2049.000000	1.243002
2050.000000	1.234087
2051.000000	1.229149
2052.000000	1.231406
2053.000000	1.220776
2054.000000	1.214036
2055.000000	1.207688
2056.000000	1.206285
2057.000000	1.204364
2058.000000	1.216012
2059.000000	1.216260
2060.000000	1.211336
2061.000000	1.217304
2062.000000	1.220243
2063.000000	1.226031
2064.000000	1.224294
2065.000000	1.230754
2066.000000	1.229670
2067.000000	1.232132
2068.000000	1.239465
2069.000000	1.244343
2070.000000	1.251665
2071.000000	1.252511
2072.000000	1.260747
2073.000000	1.257323
2074.000000	1.253996
2075.000000	1.259709
2076.000000	1.259920
2077.000000	1.260367
2078.000000	1.268241
2079.000000	1.249259
2080.000000	1.244907
2081.000000	1.262992
2082.000000	1.258134
2083.000000	1.256963
2084.000000	1.257262
2085.000000	1.250970
2086.000000	1.247881
2087.000000	1.243318
2088.000000	1.239234
2089.000000	1.236770
2090.000000	1.239906
2091.000000	1.237891
2092.000000	1.233543
2093.000000	1.235425
2094.000000	1.236178
2095.000000	1.232913
2096.000000	1.232647
2097.000000	1.229794
2098.000000	1.220139
2099.000000	1.213777
2100.000000	1.221829
2101.000000	1.221443
2102.000000	1.215530
2103.000000	1.213406
2104.000000	1.212748
2105.000000	1.217087
2106.000000	1.211978
2107.000000	1.212459
2108.000000	1.219416
2109.000000	1.217268
2110.000000	1.213799
2111.000000	1.212602
2112.000000	1.214455
2113.000000	1.216965
2114.000000	1.210560
2115.000000	1.198365
2116.000000	1.198764
2117.000000	1.205315
2118.000000	1.201278
2119.000000	1.199002
2120.000000	1.203262
2121.000000	1.188760
2122.000000	1.189055
2123.000000	1.197313
2124.000000	1.197944
2125.000000	1.197850
2126.000000	1.179419
2127.000000	1.174283
2128.000000	1.182346
2129.000000	1.175571
2130.000000	1.170558
2131.000000	1.171524
2132.000000	1.167679
2133.000000	1.162704
2134.000000	1.151991
2135.000000	1.150388
2136.000000	1.155211
2137.000000	1.154616
2138.000000	1.153714
2139.000000	1.142995
2140.000000	1.128764
2141.000000	1.127985
2142.000000	1.124608
2143.000000	1.117662
2144.000000	1.114958
2145.000000	1.112861
2146.000000	1.107329
2147.000000	1.101243
2148.000000	1.096536
2149.000000	1.086913
2150.000000	1.091313
2151.000000	1.092358
2152.000000	1.085728
2153.000000	1.079165
2154.000000	1.067509
2155.000000	1.063831
2156.000000	1.065871
2157.000000	1.063611
2158.000000	1.068890
2159.000000	1.043121
2160.000000	1.043577
2161.000000	1.042948
2162.000000	1.055328
2163.000000	1.053459
2164.000000	1.045376
2165.000000	1.040498
2166.000000	1.035451
2167.000000	1.046642
2168.000000	1.042766
2169.000000	1.037934
2170.000000	1.034657
2171.000000	1.033632
2172.000000	1.036200
2173.000000	1.026849
2174.000000	1.026707
2175.000000	1.033439
2176.000000	1.031408
2177.000000	1.037636
2178.000000	1.037683
2179.000000	1.037112
2180.000000	1.030794
2181.000000	1.034183
2182.000000	1.051563
2183.000000	1.046586
2184.000000	1.043004
2185.000000	1.049690
2186.000000	1.043213
2187.000000	1.041095
2188.000000	1.037765
2189.000000	1.035179
2190.000000	1.041926
2191.000000	1.036855
2192.000000	1.053904
2193.000000	1.049295
2194.000000	1.053093
2195.000000	1.041029
2196.000000	1.040874
2197.000000	1.049052
2198.000000	1.033582
2199.000000	1.047449
2200.000000	1.048226
2201.000000	1.049640
2202.000000	1.052565
2203.000000	1.058735
2204.000000	1.060166
2205.000000	1.065354
2206.000000	1.050712
2207.000000	1.062098
2208.000000	1.049035
2209.000000	1.053053
2210.000000	1.062391
2211.000000	1.074341
2212.000000	1.060664
2213.000000	1.058497
2214.000000	1.064430
2215.000000	1.083017
2216.000000	1.075387
2217.000000	1.077456
2218.000000	1.079848
2219.000000	1.083384
2220.000000	1.099001
2221.000000	1.086169
2222.000000	1.098070
2223.000000	1.092881
2224.000000	1.100416
2225.000000	1.105567
2226.000000	1.125103
2227.000000	1.110417
2228.000000	1.103815
2229.000000	1.113878
2230.000000	1.114616
2231.000000	1.104231
2232.000000	1.126524
2233.000000	1.120037
2234.000000	1.132035
2235.000000	1.114728
2236.000000	1.106751
2237.000000	1.112470
2238.000000	1.116914
2239.000000	1.108075
2240.000000	1.084969
2241.000000	1.087999
2242.000000	1.101645
2243.000000	1.092884
2244.000000	1.092439
2245.000000	1.087892
2246.000000	1.078548
2247.000000	1.066682
2248.000000	1.067553
2249.000000	1.051114
2250.000000	1.057954
2251.000000	1.039409
2252.000000	1.040021
2253.000000	1.023070
2254.000000	1.007444
2255.000000	1.003439
2256.000000	0.989366
2257.000000	0.993503
2258.000000	0.986667
2259.000000	0.987943
2260.000000	0.968847
2261.000000	0.953475
2262.000000	0.942941
2263.000000	0.924968
2264.000000	0.924802
2265.000000	0.923001
2266.000000	0.926669
2267.000000	0.921397
2268.000000	0.905001
2269.000000	0.919419
2270.000000	0.905206
2271.000000	0.904519
2272.000000	0.897955
2273.000000	0.887617
2274.000000	0.901074
2275.000000	0.895592
2276.000000	0.887968
2277.000000	0.873872
2278.000000	0.880028
2279.000000	0.882397
2280.000000	0.873142
2281.000000	0.884699
2282.000000	0.873232
2283.000000	0.874341
2284.000000	0.870994
2285.000000	0.854906
2286.000000	0.853185
2287.000000	0.849198
2288.000000	0.851310
2289.000000	0.846002
2290.000000	0.835579
2291.000000	0.840644
2292.000000	0.837539
2293.000000	0.836287
2294.000000	0.838546
2295.000000	0.834662
2296.000000	0.826362
2297.000000	0.827145
2298.000000	0.818999
2299.000000	0.826208
2300.000000	0.818210
2301.000000	0.815131
2302.000000	0.806643
2303.000000	0.802939
2304.000000	0.810701
2305.000000	0.817388
2306.000000	0.819291
2307.000000	0.813814
2308.000000	0.809373
2309.000000	0.811129
2310.000000	0.811635
2311.000000	0.814548
2312.000000	0.808495
2313.000000	0.812113
2314.000000	0.810260
2315.000000	0.800296
2316.000000	0.802800
2317.000000	0.803831
2318.000000	0.807550
2319.000000	0.803789
2320.000000	0.805061
2321.000000	0.803135
2322.000000	0.805964
2323.000000	0.807278
2324.000000	0.807400
2325.000000	0.803371
2326.000000	0.791440
2327.000000	0.790125
2328.000000	0.792580
2329.000000	0.793787
2330.000000	0.785421
2331.000000	0.781631
2332.000000	0.771915
2333.000000	0.762855
2334.000000	0.765056
2335.000000	0.776298
2336.000000	0.779246
2337.000000	0.775597
2338.000000	0.774658
2339.000000	0.775566
2340.000000	0.768747
2341.000000	0.765400
2342.000000	0.765740
2343.000000	0.757726
2344.000000	0.751249
2345.000000	0.762283
2346.000000	0.764556
2347.000000	0.759708
2348.000000	0.759470
2349.000000	0.759902
2350.000000	0.760110
2351.000000	0.759493
2352.000000	0.752345
2353.000000	0.755118
2354.000000	0.760384
2355.000000	0.757878
2356.000000	0.763689
2357.000000	0.759052
2358.000000	0.755281
2359.000000	0.754047
2360.000000	0.754858
2361.000000	0.746733
2362.000000	0.747664
2363.000000	0.753502
2364.000000	0.746334
2365.000000	0.745225
2366.000000	0.750944
2367.000000	0.758054
2368.000000	0.751217
2369.000000	0.748281
2370.000000	0.751314
2371.000000	0.747492
2372.000000	0.750069
2373.000000	0.751292
2374.000000	0.747571
2375.000000	0.744274
2376.000000	0.742323
2377.000000	0.751047
2378.000000	0.750385
2379.000000	0.747271
2380.000000	0.761875
2381.000000	0.766391
2382.000000	0.758476
2383.000000	0.757528
2384.000000	0.754854
2385.000000	0.753624
2386.000000	0.750473
2387.000000	0.746951
2388.000000	0.749280
2389.000000	0.751032
2390.000000	0.751064
2391.000000	0.750883
2392.000000	0.754598
2393.000000	0.756569
2394.000000	0.751777
2395.000000	0.745263
2396.000000	0.745886
2397.000000	0.744329
2398.000000	0.747235
2399.000000	0.745914
2400.000000	0.739984
2401.000000	0.745371
2402.000000	0.732622
2403.000000	0.728534
2404.000000	0.739618
2405.000000	0.737604
2406.000000	0.731462
2407.000000	0.732914
2408.000000	0.729582
2409.000000	0.725581
2410.000000	0.731694
2411.000000	0.728321
2412.000000	0.727117
2413.000000	0.718328
2414.000000	0.714725
2415.000000	0.705985
2416.000000	0.715748
2417.000000	0.715199
2418.000000	0.719166
2419.000000	0.711005
2420.000000	0.695901
2421.000000	0.694308
2422.000000	0.698726
2423.000000	0.685628
2424.000000	0.704820
2425.000000	0.696461
2426.000000	0.686800
2427.000000	0.680723
2428.000000	0.680460
2429.000000	0.679021
2430.000000	0.677570
2431.000000	0.682816
2432.000000	0.679875
2433.000000	0.676659
2434.000000	0.675384
2435.000000	0.665433
2436.000000	0.655540
2437.000000	0.653353
2438.000000	0.651199
2439.000000	0.643810
2440.000000	0.641221
2441.000000	0.648851
2442.000000	0.639864
2443.000000	0.631741
2444.000000	0.635883
2445.000000	0.639249
2446.000000	0.641817
2447.000000	0.603915
2448.000000	0.592728
2449.000000	0.599519
2450.000000	0.624557
2451.000000	0.617781
2452.000000	0.588572
2453.000000	0.603741
2454.000000	0.594884
2455.000000	0.585722
2456.000000	0.583623
2457.000000	0.590087
2458.000000	0.609390
2459.000000	0.596366
2460.000000	0.579776
2461.000000	0.602221
2462.000000	0.580643
2463.000000	0.573825
2464.000000	0.594710
2465.000000	0.559789
2466.000000	0.539434
2467.000000	0.545271
2468.000000	0.551060
2469.000000	0.561327
2470.000000	0.554758
2471.000000	0.550645
2472.000000	0.537423
2473.000000	0.562071
2474.000000	0.560551
2475.000000	0.556955
2476.000000	0.548522
2477.000000	0.556405
2478.000000	0.532681
2479.000000	0.544576
2480.000000	0.519837
2481.000000	0.524742
2482.000000	0.522700
2483.000000	0.574598
2484.000000	0.552273
2485.000000	0.533676
2486.000000	0.505445
2487.000000	0.518369
2488.000000	0.522983
2489.000000	0.527643
2490.000000	0.534549
2491.000000	0.549749
2492.000000	0.497977
2493.000000	0.556755
2494.000000	0.485018
2495.000000	0.523665
2496.000000	0.546113
2497.000000	0.553986
2498.000000	0.602857
2499.000000	0.559768
2500.000000	0.573955
