PE UV       SUBTECH     SPECTRUM    ASCII       PEDS        4.00        
   -1
INBUCR0143-4.Sample.ASC
24/04/29
16:11:28.00
24/04/29
16:11:28.00
Vinicio Soto Monge
C. kalinini
250,000000
1
Lambda 1050
1050L1511233
PerkinElmer UV WinLab 6.3.2.0749 / 2.02.05 Lambda 900 UV/VIS/NIR, Aug  7 2015 09:38:08

0
0
3350/servo 860,8/2
0
0
UV/VIS
1
1
1
DoubleDePol,CommonBeamDepol,RBeamAtt,SBeamAtt,60mm sphere, WB InGaAs Detector
0
0
0
0
Program
Program
3350/servo 860,8/2
3350/0,2 860,8/0,2
3350/0,2 860,8/0,2
0
15.00
 
 
 
0
 
860,8
319,2
860,8
Front
100
on
S:100 R:100
0
0
0
0
 
0
 
 
 
0
 
 
0
0
0
0
0
 
 
 
 
0
0


0
0
#HDR
-1
-1
#GR
nm
%R
1.0
0.0
2500,000000
-1,000000
2251
8
91,524600
5,274700
#DATA
250.000000	0.620807
251.000000	0.592828
252.000000	0.618101
253.000000	0.587199
254.000000	0.610032
255.000000	0.604927
256.000000	0.593979
257.000000	0.578589
258.000000	0.553009
259.000000	0.543374
260.000000	0.545875
261.000000	0.579553
262.000000	0.587998
263.000000	0.547451
264.000000	0.519030
265.000000	0.582860
266.000000	0.577369
267.000000	0.528465
268.000000	0.601403
269.000000	0.555338
270.000000	0.567440
271.000000	0.554959
272.000000	0.554210
273.000000	0.614047
274.000000	0.603716
275.000000	0.606739
276.000000	0.532339
277.000000	0.565599
278.000000	0.550596
279.000000	0.550140
280.000000	0.555376
281.000000	0.581754
282.000000	0.567488
283.000000	0.567799
284.000000	0.559021
285.000000	0.581586
286.000000	0.574050
287.000000	0.588549
288.000000	0.609132
289.000000	0.576688
290.000000	0.548049
291.000000	0.551120
292.000000	0.576208
293.000000	0.586690
294.000000	0.591182
295.000000	0.557656
296.000000	0.526119
297.000000	0.595319
298.000000	0.576362
299.000000	0.560008
300.000000	0.566273
301.000000	0.601901
302.000000	0.535907
303.000000	0.528416
304.000000	0.479171
305.000000	0.561514
306.000000	0.580368
307.000000	0.612918
308.000000	0.533902
309.000000	0.550557
310.000000	0.530771
311.000000	0.539458
312.000000	0.530500
313.000000	0.557671
314.000000	0.541763
315.000000	0.555313
316.000000	0.302435
317.000000	6.800641
318.000000	5.996682
319.000000	4.581238
320.000000	3.023430
321.000000	1.518946
322.000000	0.641482
323.000000	0.376728
324.000000	0.137036
325.000000	0.535515
326.000000	0.331778
327.000000	0.189702
328.000000	0.059700
329.000000	0.548680
330.000000	0.706307
331.000000	0.363565
332.000000	0.269134
333.000000	0.211943
334.000000	0.182298
335.000000	0.170509
336.000000	0.181407
337.000000	0.216937
338.000000	0.119143
339.000000	0.377702
340.000000	0.344289
341.000000	0.373716
342.000000	0.621798
343.000000	0.167092
344.000000	0.251570
345.000000	0.336934
346.000000	0.261447
347.000000	0.409328
348.000000	0.349916
349.000000	0.427739
350.000000	0.377505
351.000000	0.405766
352.000000	0.481637
353.000000	0.378721
354.000000	0.486041
355.000000	0.428462
356.000000	0.384487
357.000000	0.436482
358.000000	0.511410
359.000000	0.469269
360.000000	0.442900
361.000000	0.517197
362.000000	0.589955
363.000000	0.536650
364.000000	0.555624
365.000000	0.446872
366.000000	0.529052
367.000000	0.503575
368.000000	0.586206
369.000000	0.589359
370.000000	0.617839
371.000000	0.724696
372.000000	0.836514
373.000000	0.815138
374.000000	0.883578
375.000000	0.850312
376.000000	0.683401
377.000000	0.593732
378.000000	0.614637
379.000000	0.618910
380.000000	0.618957
381.000000	0.632632
382.000000	0.654455
383.000000	0.667898
384.000000	0.686731
385.000000	0.705308
386.000000	0.714791
387.000000	0.723524
388.000000	0.756169
389.000000	0.786209
390.000000	0.812614
391.000000	0.839575
392.000000	0.871666
393.000000	0.903547
394.000000	0.925851
395.000000	0.959869
396.000000	0.998471
397.000000	1.038671
398.000000	1.079611
399.000000	1.123678
400.000000	1.166051
401.000000	1.213628
402.000000	1.276089
403.000000	1.335554
404.000000	1.388472
405.000000	1.431733
406.000000	1.482026
407.000000	1.543710
408.000000	1.603726
409.000000	1.672858
410.000000	1.726119
411.000000	1.791905
412.000000	1.851997
413.000000	1.904241
414.000000	1.976960
415.000000	2.037918
416.000000	2.092367
417.000000	2.145510
418.000000	2.202612
419.000000	2.272248
420.000000	2.328832
421.000000	2.376461
422.000000	2.435097
423.000000	2.488506
424.000000	2.537833
425.000000	2.590092
426.000000	2.626057
427.000000	2.672231
428.000000	2.719065
429.000000	2.757953
430.000000	2.795470
431.000000	2.831715
432.000000	2.867853
433.000000	2.894468
434.000000	2.931641
435.000000	2.980182
436.000000	2.999508
437.000000	3.024909
438.000000	3.056446
439.000000	3.091848
440.000000	3.118952
441.000000	3.128932
442.000000	3.149391
443.000000	3.169581
444.000000	3.175658
445.000000	3.187940
446.000000	3.206932
447.000000	3.224547
448.000000	3.240675
449.000000	3.247807
450.000000	3.245821
451.000000	3.245938
452.000000	3.237933
453.000000	3.231654
454.000000	3.230441
455.000000	3.226732
456.000000	3.209592
457.000000	3.186142
458.000000	3.163805
459.000000	3.137964
460.000000	3.126268
461.000000	3.112761
462.000000	3.086823
463.000000	3.055290
464.000000	3.030337
465.000000	3.007660
466.000000	2.984390
467.000000	2.963343
468.000000	2.938224
469.000000	2.921455
470.000000	2.918576
471.000000	2.918872
472.000000	2.937768
473.000000	2.952062
474.000000	2.954550
475.000000	2.990179
476.000000	3.030104
477.000000	3.073933
478.000000	3.134919
479.000000	3.204169
480.000000	3.288168
481.000000	3.371127
482.000000	3.449482
483.000000	3.545883
484.000000	3.654515
485.000000	3.773792
486.000000	3.901773
487.000000	4.034940
488.000000	4.168955
489.000000	4.312441
490.000000	4.454362
491.000000	4.599725
492.000000	4.757408
493.000000	4.905240
494.000000	5.073063
495.000000	5.243127
496.000000	5.402333
497.000000	5.557933
498.000000	5.725876
499.000000	5.894439
500.000000	6.061193
501.000000	6.229725
502.000000	6.402957
503.000000	6.583685
504.000000	6.767075
505.000000	6.953892
506.000000	7.142869
507.000000	7.330453
508.000000	7.522982
509.000000	7.711064
510.000000	7.903779
511.000000	8.106055
512.000000	8.298060
513.000000	8.470542
514.000000	8.653415
515.000000	8.823912
516.000000	9.009748
517.000000	9.173233
518.000000	9.353225
519.000000	9.515360
520.000000	9.677058
521.000000	9.827809
522.000000	9.962075
523.000000	10.103315
524.000000	10.239629
525.000000	10.376105
526.000000	10.515935
527.000000	10.624390
528.000000	10.732407
529.000000	10.823442
530.000000	10.912289
531.000000	10.979851
532.000000	11.035401
533.000000	11.085842
534.000000	11.148703
535.000000	11.216674
536.000000	11.275295
537.000000	11.323973
538.000000	11.362643
539.000000	11.422194
540.000000	11.459936
541.000000	11.485659
542.000000	11.526962
543.000000	11.563373
544.000000	11.606647
545.000000	11.646674
546.000000	11.653651
547.000000	11.674823
548.000000	11.696786
549.000000	11.689577
550.000000	11.678747
551.000000	11.672172
552.000000	11.676985
553.000000	11.658667
554.000000	11.640136
555.000000	11.635652
556.000000	11.631922
557.000000	11.630482
558.000000	11.609845
559.000000	11.585509
560.000000	11.668162
561.000000	11.661145
562.000000	11.605518
563.000000	11.576207
564.000000	11.553980
565.000000	11.528461
566.000000	11.492050
567.000000	11.478970
568.000000	11.434036
569.000000	11.382266
570.000000	11.296220
571.000000	11.220705
572.000000	11.157690
573.000000	11.088999
574.000000	10.988184
575.000000	10.899517
576.000000	10.837316
577.000000	10.780900
578.000000	10.677398
579.000000	10.606198
580.000000	10.492648
581.000000	10.407974
582.000000	10.272182
583.000000	10.117566
584.000000	9.981617
585.000000	9.857377
586.000000	9.747408
587.000000	9.610888
588.000000	9.504934
589.000000	9.373106
590.000000	9.249969
591.000000	9.107500
592.000000	8.948824
593.000000	8.734743
594.000000	8.590742
595.000000	8.420229
596.000000	8.228713
597.000000	8.034757
598.000000	7.820879
599.000000	7.658538
600.000000	7.475909
601.000000	7.314699
602.000000	7.155206
603.000000	6.978493
604.000000	6.817539
605.000000	6.634788
606.000000	6.498905
607.000000	6.359328
608.000000	6.249200
609.000000	6.142891
610.000000	6.090155
611.000000	6.054324
612.000000	6.056405
613.000000	6.052923
614.000000	6.124098
615.000000	6.210217
616.000000	6.335470
617.000000	6.502540
618.000000	6.725936
619.000000	6.915053
620.000000	7.146987
621.000000	7.422357
622.000000	7.678837
623.000000	7.922402
624.000000	8.179678
625.000000	8.436048
626.000000	8.668679
627.000000	8.873689
628.000000	9.091824
629.000000	9.279637
630.000000	9.439993
631.000000	9.580151
632.000000	9.677611
633.000000	9.749812
634.000000	9.806951
635.000000	9.809968
636.000000	9.811124
637.000000	9.800961
638.000000	9.765823
639.000000	9.731290
640.000000	9.673808
641.000000	9.594674
642.000000	9.521636
643.000000	9.458548
644.000000	9.361885
645.000000	9.264314
646.000000	9.186518
647.000000	9.132746
648.000000	9.042473
649.000000	8.997795
650.000000	8.949657
651.000000	8.911024
652.000000	8.882478
653.000000	8.884787
654.000000	8.890101
655.000000	8.898034
656.000000	8.902945
657.000000	8.962307
658.000000	8.983518
659.000000	9.019788
660.000000	9.104414
661.000000	9.177838
662.000000	9.274610
663.000000	9.366711
664.000000	9.483391
665.000000	9.554692
666.000000	9.642803
667.000000	9.704019
668.000000	9.780232
669.000000	9.880570
670.000000	9.909911
671.000000	9.975825
672.000000	10.025848
673.000000	10.036003
674.000000	10.067887
675.000000	10.069923
676.000000	10.121711
677.000000	10.141707
678.000000	10.156625
679.000000	10.191860
680.000000	10.208466
681.000000	10.260572
682.000000	10.331314
683.000000	10.355754
684.000000	10.374500
685.000000	10.509734
686.000000	10.634708
687.000000	10.756624
688.000000	10.873109
689.000000	11.006426
690.000000	11.167501
691.000000	11.335402
692.000000	11.504714
693.000000	11.698483
694.000000	11.895739
695.000000	12.078511
696.000000	12.306768
697.000000	12.516406
698.000000	12.738814
699.000000	12.946924
700.000000	13.157686
701.000000	13.371903
702.000000	13.538147
703.000000	13.721256
704.000000	13.899336
705.000000	14.038790
706.000000	14.180993
707.000000	14.320179
708.000000	14.424773
709.000000	14.538601
710.000000	14.602978
711.000000	14.658097
712.000000	14.682189
713.000000	14.685420
714.000000	14.660341
715.000000	14.593180
716.000000	14.544284
717.000000	14.473821
718.000000	14.393732
719.000000	14.342943
720.000000	14.237385
721.000000	14.113534
722.000000	13.974851
723.000000	13.874552
724.000000	13.757171
725.000000	13.639858
726.000000	13.531181
727.000000	13.437058
728.000000	13.348648
729.000000	13.298092
730.000000	13.264703
731.000000	13.171473
732.000000	13.059820
733.000000	13.005631
734.000000	12.994408
735.000000	12.941039
736.000000	12.886417
737.000000	12.864651
738.000000	12.864537
739.000000	12.881137
740.000000	12.904179
741.000000	12.921591
742.000000	12.913353
743.000000	12.886851
744.000000	12.898588
745.000000	12.946769
746.000000	12.981027
747.000000	13.001658
748.000000	13.025491
749.000000	13.003767
750.000000	13.043829
751.000000	13.070167
752.000000	13.047882
753.000000	13.063497
754.000000	13.091632
755.000000	13.118851
756.000000	13.165525
757.000000	13.203374
758.000000	13.237930
759.000000	13.262793
760.000000	13.208113
761.000000	13.233794
762.000000	13.288786
763.000000	13.301620
764.000000	13.332985
765.000000	13.357399
766.000000	13.355123
767.000000	13.333089
768.000000	13.322002
769.000000	13.386304
770.000000	13.355496
771.000000	13.334873
772.000000	13.300075
773.000000	13.344071
774.000000	13.426369
775.000000	13.461788
776.000000	13.432193
777.000000	13.393091
778.000000	13.418631
779.000000	13.448596
780.000000	13.428147
781.000000	13.379771
782.000000	13.395523
783.000000	13.378929
784.000000	13.336065
785.000000	13.285500
786.000000	13.277885
787.000000	13.320991
788.000000	13.274785
789.000000	13.152060
790.000000	13.084395
791.000000	13.038418
792.000000	12.949823
793.000000	12.901442
794.000000	12.841688
795.000000	12.758805
796.000000	12.659100
797.000000	12.632479
798.000000	12.471340
799.000000	12.449904
800.000000	12.306950
801.000000	12.235865
802.000000	12.180197
803.000000	12.093663
804.000000	11.947582
805.000000	11.835398
806.000000	11.725765
807.000000	11.609378
808.000000	11.424830
809.000000	11.397491
810.000000	11.286526
811.000000	11.178158
812.000000	10.960961
813.000000	10.932703
814.000000	10.812202
815.000000	10.818564
816.000000	10.543817
817.000000	10.392564
818.000000	10.345572
819.000000	10.235297
820.000000	10.119269
821.000000	10.008273
822.000000	10.072881
823.000000	9.940404
824.000000	9.783564
825.000000	9.586496
826.000000	9.618295
827.000000	9.434243
828.000000	9.330309
829.000000	9.240518
830.000000	9.252956
831.000000	9.260977
832.000000	9.017041
833.000000	9.048262
834.000000	8.974926
835.000000	8.928495
836.000000	8.960655
837.000000	8.986567
838.000000	8.818601
839.000000	8.789699
840.000000	8.687270
841.000000	8.728268
842.000000	8.561504
843.000000	8.628795
844.000000	8.636876
845.000000	8.521785
846.000000	8.693119
847.000000	8.702787
848.000000	8.796113
849.000000	8.849730
850.000000	8.727769
851.000000	8.498403
852.000000	8.691319
853.000000	8.927774
854.000000	8.910137
855.000000	8.948747
856.000000	9.014103
857.000000	8.923226
858.000000	8.959666
859.000000	8.194718
860.000000	8.200913
861.000000	8.221738
862.000000	8.232894
863.000000	8.239447
864.000000	8.247585
865.000000	8.271071
866.000000	8.283395
867.000000	8.298033
868.000000	8.314744
869.000000	8.298790
870.000000	8.320555
871.000000	8.327951
872.000000	8.410698
873.000000	8.518035
874.000000	8.643056
875.000000	8.732605
876.000000	8.823342
877.000000	8.925583
878.000000	9.064844
879.000000	9.203086
880.000000	9.303620
881.000000	9.423737
882.000000	9.520995
883.000000	9.656524
884.000000	9.779289
885.000000	9.870291
886.000000	9.990507
887.000000	10.117630
888.000000	10.230995
889.000000	10.325336
890.000000	10.413182
891.000000	10.552588
892.000000	10.652718
893.000000	10.734503
894.000000	10.837122
895.000000	10.912449
896.000000	10.987523
897.000000	11.063293
898.000000	11.111261
899.000000	11.188037
900.000000	11.261383
901.000000	11.322400
902.000000	11.395682
903.000000	11.464025
904.000000	11.522212
905.000000	11.574062
906.000000	11.616743
907.000000	11.681557
908.000000	11.741131
909.000000	11.799872
910.000000	11.822397
911.000000	11.870155
912.000000	11.932747
913.000000	11.991913
914.000000	12.053577
915.000000	12.098711
916.000000	12.150364
917.000000	12.159444
918.000000	12.209947
919.000000	12.256493
920.000000	12.315216
921.000000	12.345620
922.000000	12.389539
923.000000	12.444064
924.000000	12.482272
925.000000	12.507305
926.000000	12.522828
927.000000	12.549223
928.000000	12.579748
929.000000	12.603071
930.000000	12.621164
931.000000	12.619281
932.000000	12.653986
933.000000	12.679032
934.000000	12.691311
935.000000	12.728151
936.000000	12.767115
937.000000	12.805376
938.000000	12.842880
939.000000	12.844678
940.000000	12.870089
941.000000	12.904840
942.000000	12.929894
943.000000	12.959369
944.000000	12.951647
945.000000	12.983669
946.000000	13.002711
947.000000	13.011837
948.000000	13.030340
949.000000	13.056345
950.000000	13.073023
951.000000	13.075832
952.000000	13.105498
953.000000	13.114753
954.000000	13.111092
955.000000	13.120854
956.000000	13.132459
957.000000	13.139980
958.000000	13.157113
959.000000	13.176155
960.000000	13.177670
961.000000	13.179842
962.000000	13.179280
963.000000	13.187223
964.000000	13.202255
965.000000	13.201866
966.000000	13.215455
967.000000	13.220279
968.000000	13.218527
969.000000	13.226381
970.000000	13.234380
971.000000	13.249823
972.000000	13.249344
973.000000	13.241998
974.000000	13.239708
975.000000	13.240063
976.000000	13.248383
977.000000	13.241747
978.000000	13.243468
979.000000	13.262290
980.000000	13.268685
981.000000	13.262378
982.000000	13.255408
983.000000	13.260192
984.000000	13.268355
985.000000	13.262265
986.000000	13.272620
987.000000	13.284928
988.000000	13.278169
989.000000	13.273134
990.000000	13.270010
991.000000	13.268313
992.000000	13.268262
993.000000	13.262138
994.000000	13.259383
995.000000	13.255598
996.000000	13.255877
997.000000	13.246037
998.000000	13.247116
999.000000	13.239586
1000.000000	13.222676
1001.000000	13.215632
1002.000000	13.212928
1003.000000	13.206933
1004.000000	13.200302
1005.000000	13.197513
1006.000000	13.189607
1007.000000	13.178836
1008.000000	13.187337
1009.000000	13.190309
1010.000000	13.175444
1011.000000	13.161050
1012.000000	13.141818
1013.000000	13.134938
1014.000000	13.138151
1015.000000	13.144577
1016.000000	13.137405
1017.000000	13.123387
1018.000000	13.121249
1019.000000	13.110963
1020.000000	13.097682
1021.000000	13.094119
1022.000000	13.090789
1023.000000	13.089995
1024.000000	13.090582
1025.000000	13.082593
1026.000000	13.074218
1027.000000	13.079326
1028.000000	13.082280
1029.000000	13.073887
1030.000000	13.064440
1031.000000	13.064182
1032.000000	13.061459
1033.000000	13.051856
1034.000000	13.053969
1035.000000	13.054279
1036.000000	13.042928
1037.000000	13.038561
1038.000000	13.037038
1039.000000	13.029489
1040.000000	13.023979
1041.000000	13.020961
1042.000000	13.023700
1043.000000	13.021264
1044.000000	13.018912
1045.000000	13.016757
1046.000000	13.015518
1047.000000	13.005731
1048.000000	12.995046
1049.000000	12.997122
1050.000000	12.993431
1051.000000	12.981355
1052.000000	12.972798
1053.000000	12.965220
1054.000000	12.959676
1055.000000	12.961032
1056.000000	12.954811
1057.000000	12.942857
1058.000000	12.937604
1059.000000	12.936520
1060.000000	12.926978
1061.000000	12.927751
1062.000000	12.931931
1063.000000	12.924727
1064.000000	12.907009
1065.000000	12.900830
1066.000000	12.902234
1067.000000	12.897268
1068.000000	12.897027
1069.000000	12.898952
1070.000000	12.893750
1071.000000	12.889225
1072.000000	12.881489
1073.000000	12.868288
1074.000000	12.874292
1075.000000	12.875792
1076.000000	12.869897
1077.000000	12.859751
1078.000000	12.861741
1079.000000	12.871699
1080.000000	12.864739
1081.000000	12.864180
1082.000000	12.862006
1083.000000	12.856246
1084.000000	12.858407
1085.000000	12.863570
1086.000000	12.854710
1087.000000	12.854993
1088.000000	12.855134
1089.000000	12.856312
1090.000000	12.856592
1091.000000	12.853091
1092.000000	12.857296
1093.000000	12.868838
1094.000000	12.866301
1095.000000	12.862325
1096.000000	12.869801
1097.000000	12.873597
1098.000000	12.860416
1099.000000	12.861814
1100.000000	12.860133
1101.000000	12.845683
1102.000000	12.834505
1103.000000	12.839525
1104.000000	12.839878
1105.000000	12.840048
1106.000000	12.831580
1107.000000	12.841001
1108.000000	12.836657
1109.000000	12.822538
1110.000000	12.811683
1111.000000	12.800902
1112.000000	12.807424
1113.000000	12.790477
1114.000000	12.793516
1115.000000	12.784044
1116.000000	12.782179
1117.000000	12.773287
1118.000000	12.767454
1119.000000	12.759353
1120.000000	12.750582
1121.000000	12.735809
1122.000000	12.735452
1123.000000	12.745155
1124.000000	12.740840
1125.000000	12.723985
1126.000000	12.716120
1127.000000	12.706190
1128.000000	12.699596
1129.000000	12.681977
1130.000000	12.677920
1131.000000	12.674660
1132.000000	12.645362
1133.000000	12.601098
1134.000000	12.572080
1135.000000	12.580399
1136.000000	12.588707
1137.000000	12.578322
1138.000000	12.555137
1139.000000	12.524917
1140.000000	12.506886
1141.000000	12.478505
1142.000000	12.457998
1143.000000	12.442202
1144.000000	12.431727
1145.000000	12.417453
1146.000000	12.396908
1147.000000	12.404024
1148.000000	12.382324
1149.000000	12.375077
1150.000000	12.357767
1151.000000	12.342763
1152.000000	12.327965
1153.000000	12.313656
1154.000000	12.294992
1155.000000	12.285274
1156.000000	12.267779
1157.000000	12.253795
1158.000000	12.242556
1159.000000	12.207815
1160.000000	12.175945
1161.000000	12.153589
1162.000000	12.116097
1163.000000	12.095371
1164.000000	12.061539
1165.000000	12.029256
1166.000000	12.007859
1167.000000	11.983899
1168.000000	11.965574
1169.000000	11.937417
1170.000000	11.907136
1171.000000	11.880753
1172.000000	11.860752
1173.000000	11.846692
1174.000000	11.836213
1175.000000	11.814861
1176.000000	11.803343
1177.000000	11.785944
1178.000000	11.773131
1179.000000	11.758016
1180.000000	11.752904
1181.000000	11.729843
1182.000000	11.722840
1183.000000	11.719485
1184.000000	11.710333
1185.000000	11.701883
1186.000000	11.689498
1187.000000	11.696440
1188.000000	11.690901
1189.000000	11.692898
1190.000000	11.692916
1191.000000	11.700709
1192.000000	11.720188
1193.000000	11.740303
1194.000000	11.757204
1195.000000	11.769994
1196.000000	11.785079
1197.000000	11.793784
1198.000000	11.809951
1199.000000	11.817536
1200.000000	11.831487
1201.000000	11.850630
1202.000000	11.855351
1203.000000	11.877133
1204.000000	11.898579
1205.000000	11.909058
1206.000000	11.930934
1207.000000	11.940695
1208.000000	11.945623
1209.000000	11.966352
1210.000000	11.978898
1211.000000	11.985220
1212.000000	11.999499
1213.000000	12.007782
1214.000000	12.009129
1215.000000	12.012069
1216.000000	12.007346
1217.000000	12.003369
1218.000000	12.004331
1219.000000	11.999048
1220.000000	11.997870
1221.000000	11.997511
1222.000000	11.991403
1223.000000	11.995384
1224.000000	12.002049
1225.000000	12.016804
1226.000000	12.004851
1227.000000	11.996578
1228.000000	11.990490
1229.000000	12.003901
1230.000000	11.998831
1231.000000	11.992901
1232.000000	11.983698
1233.000000	12.000362
1234.000000	12.006434
1235.000000	12.005356
1236.000000	12.015641
1237.000000	12.024763
1238.000000	12.039641
1239.000000	12.029912
1240.000000	12.023275
1241.000000	12.030529
1242.000000	12.041514
1243.000000	12.066393
1244.000000	12.076258
1245.000000	12.085988
1246.000000	12.100964
1247.000000	12.117066
1248.000000	12.127012
1249.000000	12.137522
1250.000000	12.145277
1251.000000	12.151325
1252.000000	12.153541
1253.000000	12.168364
1254.000000	12.168840
1255.000000	12.170459
1256.000000	12.174336
1257.000000	12.172695
1258.000000	12.168272
1259.000000	12.175751
1260.000000	12.172297
1261.000000	12.167312
1262.000000	12.171347
1263.000000	12.167644
1264.000000	12.171953
1265.000000	12.175285
1266.000000	12.165187
1267.000000	12.150898
1268.000000	12.148727
1269.000000	12.157869
1270.000000	12.155386
1271.000000	12.150925
1272.000000	12.145404
1273.000000	12.137102
1274.000000	12.133026
1275.000000	12.135458
1276.000000	12.130986
1277.000000	12.126617
1278.000000	12.126469
1279.000000	12.133276
1280.000000	12.136098
1281.000000	12.142884
1282.000000	12.148262
1283.000000	12.147132
1284.000000	12.151481
1285.000000	12.155501
1286.000000	12.153161
1287.000000	12.164708
1288.000000	12.177483
1289.000000	12.176088
1290.000000	12.174200
1291.000000	12.174414
1292.000000	12.178661
1293.000000	12.174380
1294.000000	12.171718
1295.000000	12.183796
1296.000000	12.185801
1297.000000	12.181504
1298.000000	12.185191
1299.000000	12.187219
1300.000000	12.191712
1301.000000	12.190515
1302.000000	12.186568
1303.000000	12.180073
1304.000000	12.163655
1305.000000	12.152978
1306.000000	12.145063
1307.000000	12.140128
1308.000000	12.138165
1309.000000	12.136388
1310.000000	12.127969
1311.000000	12.125347
1312.000000	12.111456
1313.000000	12.091873
1314.000000	12.085983
1315.000000	12.084570
1316.000000	12.079499
1317.000000	12.075140
1318.000000	12.072410
1319.000000	12.064240
1320.000000	12.055025
1321.000000	12.047021
1322.000000	12.038263
1323.000000	12.029204
1324.000000	12.015246
1325.000000	12.003832
1326.000000	11.994169
1327.000000	11.986091
1328.000000	11.978152
1329.000000	11.961969
1330.000000	11.951854
1331.000000	11.947030
1332.000000	11.931706
1333.000000	11.919179
1334.000000	11.899000
1335.000000	11.870313
1336.000000	11.853418
1337.000000	11.835557
1338.000000	11.816256
1339.000000	11.796564
1340.000000	11.771546
1341.000000	11.749092
1342.000000	11.728840
1343.000000	11.698968
1344.000000	11.663394
1345.000000	11.631454
1346.000000	11.589043
1347.000000	11.538058
1348.000000	11.506087
1349.000000	11.479366
1350.000000	11.448025
1351.000000	11.398910
1352.000000	11.359333
1353.000000	11.311844
1354.000000	11.270169
1355.000000	11.261631
1356.000000	11.264452
1357.000000	11.257051
1358.000000	11.206988
1359.000000	11.162845
1360.000000	11.104497
1361.000000	11.106428
1362.000000	11.143121
1363.000000	11.147675
1364.000000	11.123290
1365.000000	11.094449
1366.000000	11.072958
1367.000000	11.042272
1368.000000	11.029849
1369.000000	11.015442
1370.000000	10.983773
1371.000000	10.953827
1372.000000	10.964260
1373.000000	10.958049
1374.000000	10.912171
1375.000000	10.877385
1376.000000	10.851527
1377.000000	10.818739
1378.000000	10.782892
1379.000000	10.725136
1380.000000	10.682229
1381.000000	10.655878
1382.000000	10.656888
1383.000000	10.691073
1384.000000	10.689933
1385.000000	10.697722
1386.000000	10.598923
1387.000000	10.531021
1388.000000	10.493726
1389.000000	10.473524
1390.000000	10.422323
1391.000000	10.322920
1392.000000	10.268737
1393.000000	10.221600
1394.000000	10.171840
1395.000000	10.102110
1396.000000	10.084591
1397.000000	10.076766
1398.000000	9.987103
1399.000000	9.852418
1400.000000	9.779045
1401.000000	9.785264
1402.000000	9.777787
1403.000000	9.673204
1404.000000	9.551233
1405.000000	9.479657
1406.000000	9.429742
1407.000000	9.375968
1408.000000	9.295059
1409.000000	9.235112
1410.000000	9.185524
1411.000000	9.118116
1412.000000	9.038372
1413.000000	8.944855
1414.000000	8.894876
1415.000000	8.845058
1416.000000	8.796676
1417.000000	8.697118
1418.000000	8.636988
1419.000000	8.593976
1420.000000	8.564294
1421.000000	8.504892
1422.000000	8.435274
1423.000000	8.377675
1424.000000	8.356698
1425.000000	8.309686
1426.000000	8.256775
1427.000000	8.204190
1428.000000	8.170950
1429.000000	8.130321
1430.000000	8.100735
1431.000000	8.045535
1432.000000	8.014040
1433.000000	7.994867
1434.000000	7.977142
1435.000000	7.938185
1436.000000	7.905904
1437.000000	7.868222
1438.000000	7.856845
1439.000000	7.832967
1440.000000	7.797085
1441.000000	7.760679
1442.000000	7.757296
1443.000000	7.727486
1444.000000	7.690109
1445.000000	7.656216
1446.000000	7.647562
1447.000000	7.628954
1448.000000	7.605723
1449.000000	7.554328
1450.000000	7.536633
1451.000000	7.534750
1452.000000	7.512898
1453.000000	7.488469
1454.000000	7.453056
1455.000000	7.429730
1456.000000	7.406593
1457.000000	7.396808
1458.000000	7.366227
1459.000000	7.336802
1460.000000	7.330242
1461.000000	7.299441
1462.000000	7.281989
1463.000000	7.256847
1464.000000	7.232546
1465.000000	7.224639
1466.000000	7.197130
1467.000000	7.183637
1468.000000	7.147788
1469.000000	7.125649
1470.000000	7.101221
1471.000000	7.096367
1472.000000	7.083266
1473.000000	7.073832
1474.000000	7.049225
1475.000000	7.028705
1476.000000	7.004351
1477.000000	7.008021
1478.000000	7.008414
1479.000000	6.996703
1480.000000	6.993536
1481.000000	6.986172
1482.000000	6.982621
1483.000000	6.982085
1484.000000	6.980824
1485.000000	6.974583
1486.000000	6.980243
1487.000000	6.976747
1488.000000	6.986326
1489.000000	6.982255
1490.000000	6.984041
1491.000000	6.979583
1492.000000	6.974532
1493.000000	6.978576
1494.000000	6.977142
1495.000000	6.981382
1496.000000	6.979546
1497.000000	6.982912
1498.000000	6.989226
1499.000000	6.993500
1500.000000	7.011404
1501.000000	7.014429
1502.000000	7.019440
1503.000000	7.038850
1504.000000	7.052560
1505.000000	7.062008
1506.000000	7.077676
1507.000000	7.088223
1508.000000	7.095575
1509.000000	7.109587
1510.000000	7.122610
1511.000000	7.131211
1512.000000	7.145445
1513.000000	7.155379
1514.000000	7.169356
1515.000000	7.181439
1516.000000	7.186584
1517.000000	7.197318
1518.000000	7.213523
1519.000000	7.218679
1520.000000	7.217368
1521.000000	7.231380
1522.000000	7.234940
1523.000000	7.240834
1524.000000	7.255337
1525.000000	7.264460
1526.000000	7.275348
1527.000000	7.278256
1528.000000	7.281384
1529.000000	7.282495
1530.000000	7.292028
1531.000000	7.300759
1532.000000	7.307138
1533.000000	7.304983
1534.000000	7.307572
1535.000000	7.312861
1536.000000	7.317106
1537.000000	7.329558
1538.000000	7.324022
1539.000000	7.315365
1540.000000	7.319190
1541.000000	7.319136
1542.000000	7.320703
1543.000000	7.323790
1544.000000	7.320399
1545.000000	7.323132
1546.000000	7.324547
1547.000000	7.328309
1548.000000	7.338422
1549.000000	7.358495
1550.000000	7.369056
1551.000000	7.377217
1552.000000	7.389206
1553.000000	7.391369
1554.000000	7.393399
1555.000000	7.401508
1556.000000	7.410486
1557.000000	7.414748
1558.000000	7.417842
1559.000000	7.421361
1560.000000	7.423392
1561.000000	7.427206
1562.000000	7.430411
1563.000000	7.430369
1564.000000	7.422771
1565.000000	7.416352
1566.000000	7.411621
1567.000000	7.408954
1568.000000	7.404220
1569.000000	7.397035
1570.000000	7.384867
1571.000000	7.376665
1572.000000	7.372000
1573.000000	7.370111
1574.000000	7.375010
1575.000000	7.374860
1576.000000	7.380049
1577.000000	7.385270
1578.000000	7.382271
1579.000000	7.385637
1580.000000	7.392682
1581.000000	7.395286
1582.000000	7.399955
1583.000000	7.411288
1584.000000	7.413828
1585.000000	7.416127
1586.000000	7.424278
1587.000000	7.438706
1588.000000	7.451503
1589.000000	7.466663
1590.000000	7.477380
1591.000000	7.484865
1592.000000	7.491750
1593.000000	7.497486
1594.000000	7.512044
1595.000000	7.524610
1596.000000	7.528292
1597.000000	7.541488
1598.000000	7.558186
1599.000000	7.569132
1600.000000	7.584011
1601.000000	7.595800
1602.000000	7.604330
1603.000000	7.623795
1604.000000	7.631898
1605.000000	7.639953
1606.000000	7.655359
1607.000000	7.677041
1608.000000	7.690097
1609.000000	7.697961
1610.000000	7.707263
1611.000000	7.719508
1612.000000	7.721526
1613.000000	7.725462
1614.000000	7.728879
1615.000000	7.737502
1616.000000	7.743574
1617.000000	7.751452
1618.000000	7.756369
1619.000000	7.763733
1620.000000	7.763901
1621.000000	7.766824
1622.000000	7.770653
1623.000000	7.771211
1624.000000	7.772095
1625.000000	7.776940
1626.000000	7.784523
1627.000000	7.783625
1628.000000	7.794295
1629.000000	7.805499
1630.000000	7.810277
1631.000000	7.812152
1632.000000	7.815103
1633.000000	7.813850
1634.000000	7.819206
1635.000000	7.818599
1636.000000	7.823151
1637.000000	7.818876
1638.000000	7.814493
1639.000000	7.812647
1640.000000	7.809793
1641.000000	7.813289
1642.000000	7.805816
1643.000000	7.792906
1644.000000	7.795320
1645.000000	7.792175
1646.000000	7.797861
1647.000000	7.794520
1648.000000	7.796844
1649.000000	7.789092
1650.000000	7.787976
1651.000000	7.776546
1652.000000	7.773416
1653.000000	7.758220
1654.000000	7.753265
1655.000000	7.739208
1656.000000	7.725377
1657.000000	7.712746
1658.000000	7.694508
1659.000000	7.673306
1660.000000	7.654477
1661.000000	7.639640
1662.000000	7.611877
1663.000000	7.587820
1664.000000	7.565692
1665.000000	7.544687
1666.000000	7.509874
1667.000000	7.492810
1668.000000	7.448176
1669.000000	7.429181
1670.000000	7.392267
1671.000000	7.357636
1672.000000	7.336420
1673.000000	7.288064
1674.000000	7.257177
1675.000000	7.226081
1676.000000	7.191377
1677.000000	7.162203
1678.000000	7.133207
1679.000000	7.096483
1680.000000	7.059343
1681.000000	7.027306
1682.000000	6.981539
1683.000000	6.931686
1684.000000	6.892243
1685.000000	6.861947
1686.000000	6.843540
1687.000000	6.819353
1688.000000	6.822894
1689.000000	6.825342
1690.000000	6.823507
1691.000000	6.842478
1692.000000	6.856161
1693.000000	6.884229
1694.000000	6.903096
1695.000000	6.929612
1696.000000	6.934385
1697.000000	6.944574
1698.000000	6.949165
1699.000000	6.956458
1700.000000	6.969652
1701.000000	6.968184
1702.000000	6.963558
1703.000000	6.980272
1704.000000	6.988439
1705.000000	6.999109
1706.000000	7.002087
1707.000000	6.987159
1708.000000	6.980112
1709.000000	6.967713
1710.000000	6.966046
1711.000000	6.944277
1712.000000	6.909559
1713.000000	6.885845
1714.000000	6.866287
1715.000000	6.840880
1716.000000	6.806926
1717.000000	6.760847
1718.000000	6.721144
1719.000000	6.701331
1720.000000	6.674260
1721.000000	6.650366
1722.000000	6.638253
1723.000000	6.641536
1724.000000	6.634276
1725.000000	6.650396
1726.000000	6.659603
1727.000000	6.677457
1728.000000	6.699972
1729.000000	6.719599
1730.000000	6.729314
1731.000000	6.749721
1732.000000	6.744914
1733.000000	6.748168
1734.000000	6.742014
1735.000000	6.740131
1736.000000	6.739794
1737.000000	6.741171
1738.000000	6.748076
1739.000000	6.749315
1740.000000	6.745916
1741.000000	6.754349
1742.000000	6.762556
1743.000000	6.781091
1744.000000	6.791518
1745.000000	6.799511
1746.000000	6.804508
1747.000000	6.813335
1748.000000	6.816740
1749.000000	6.831867
1750.000000	6.844552
1751.000000	6.843951
1752.000000	6.840415
1753.000000	6.847877
1754.000000	6.837765
1755.000000	6.840940
1756.000000	6.845374
1757.000000	6.845395
1758.000000	6.848805
1759.000000	6.851247
1760.000000	6.855251
1761.000000	6.856839
1762.000000	6.849097
1763.000000	6.848286
1764.000000	6.849113
1765.000000	6.839034
1766.000000	6.836754
1767.000000	6.845257
1768.000000	6.845676
1769.000000	6.846386
1770.000000	6.837147
1771.000000	6.827133
1772.000000	6.816012
1773.000000	6.815884
1774.000000	6.815971
1775.000000	6.817191
1776.000000	6.816935
1777.000000	6.816669
1778.000000	6.818945
1779.000000	6.831636
1780.000000	6.831637
1781.000000	6.831801
1782.000000	6.824922
1783.000000	6.821336
1784.000000	6.816889
1785.000000	6.821636
1786.000000	6.815366
1787.000000	6.811404
1788.000000	6.803000
1789.000000	6.798519
1790.000000	6.800355
1791.000000	6.802326
1792.000000	6.801577
1793.000000	6.799978
1794.000000	6.807408
1795.000000	6.812633
1796.000000	6.816788
1797.000000	6.815740
1798.000000	6.814790
1799.000000	6.803948
1800.000000	6.799049
1801.000000	6.813365
1802.000000	6.828792
1803.000000	6.837781
1804.000000	6.828839
1805.000000	6.818267
1806.000000	6.826742
1807.000000	6.844653
1808.000000	6.848723
1809.000000	6.839381
1810.000000	6.827343
1811.000000	6.827835
1812.000000	6.843964
1813.000000	6.857797
1814.000000	6.851738
1815.000000	6.847994
1816.000000	6.857729
1817.000000	6.852435
1818.000000	6.828286
1819.000000	6.806780
1820.000000	6.812455
1821.000000	6.846437
1822.000000	6.884991
1823.000000	6.897083
1824.000000	6.875229
1825.000000	6.834369
1826.000000	6.811610
1827.000000	6.812426
1828.000000	6.828373
1829.000000	6.849376
1830.000000	6.864555
1831.000000	6.880092
1832.000000	6.881448
1833.000000	6.871749
1834.000000	6.850142
1835.000000	6.829267
1836.000000	6.826401
1837.000000	6.855781
1838.000000	6.888653
1839.000000	6.902653
1840.000000	6.918836
1841.000000	6.942882
1842.000000	6.977027
1843.000000	7.008247
1844.000000	6.991684
1845.000000	6.927702
1846.000000	6.867001
1847.000000	6.860023
1848.000000	6.924439
1849.000000	6.994378
1850.000000	7.021780
1851.000000	6.995797
1852.000000	6.942457
1853.000000	6.910830
1854.000000	6.910909
1855.000000	6.913712
1856.000000	6.916816
1857.000000	6.907030
1858.000000	6.882523
1859.000000	6.876411
1860.000000	6.900290
1861.000000	6.897119
1862.000000	6.882120
1863.000000	6.863294
1864.000000	6.827407
1865.000000	6.765529
1866.000000	6.707340
1867.000000	6.658425
1868.000000	6.628234
1869.000000	6.589820
1870.000000	6.563674
1871.000000	6.569022
1872.000000	6.584413
1873.000000	6.578088
1874.000000	6.567464
1875.000000	6.551306
1876.000000	6.510118
1877.000000	6.474293
1878.000000	6.425718
1879.000000	6.355498
1880.000000	6.285295
1881.000000	6.209432
1882.000000	6.128010
1883.000000	6.052077
1884.000000	5.994139
1885.000000	5.936560
1886.000000	5.857178
1887.000000	5.771644
1888.000000	5.676196
1889.000000	5.577443
1890.000000	5.477519
1891.000000	5.378531
1892.000000	5.278660
1893.000000	5.191154
1894.000000	5.103762
1895.000000	4.994946
1896.000000	4.878565
1897.000000	4.762454
1898.000000	4.643273
1899.000000	4.540934
1900.000000	4.440760
1901.000000	4.352608
1902.000000	4.252478
1903.000000	4.151454
1904.000000	4.062845
1905.000000	3.974003
1906.000000	3.891144
1907.000000	3.800304
1908.000000	3.728366
1909.000000	3.668975
1910.000000	3.605967
1911.000000	3.523570
1912.000000	3.455300
1913.000000	3.398455
1914.000000	3.333092
1915.000000	3.277757
1916.000000	3.237787
1917.000000	3.195248
1918.000000	3.132415
1919.000000	3.082943
1920.000000	3.058110
1921.000000	3.018495
1922.000000	2.992555
1923.000000	2.958398
1924.000000	2.928556
1925.000000	2.903618
1926.000000	2.881445
1927.000000	2.855965
1928.000000	2.846933
1929.000000	2.835085
1930.000000	2.806705
1931.000000	2.794046
1932.000000	2.795488
1933.000000	2.779643
1934.000000	2.767494
1935.000000	2.770407
1936.000000	2.765952
1937.000000	2.763267
1938.000000	2.773028
1939.000000	2.767729
1940.000000	2.780989
1941.000000	2.793568
1942.000000	2.787016
1943.000000	2.798048
1944.000000	2.808727
1945.000000	2.819123
1946.000000	2.826442
1947.000000	2.848223
1948.000000	2.852307
1949.000000	2.855403
1950.000000	2.877160
1951.000000	2.890791
1952.000000	2.902827
1953.000000	2.918288
1954.000000	2.939971
1955.000000	2.946056
1956.000000	2.967985
1957.000000	2.987861
1958.000000	3.007979
1959.000000	3.022116
1960.000000	3.043662
1961.000000	3.047038
1962.000000	3.071433
1963.000000	3.089128
1964.000000	3.090619
1965.000000	3.121535
1966.000000	3.133978
1967.000000	3.149810
1968.000000	3.151803
1969.000000	3.179343
1970.000000	3.196313
1971.000000	3.211505
1972.000000	3.222156
1973.000000	3.245173
1974.000000	3.256766
1975.000000	3.286494
1976.000000	3.291449
1977.000000	3.304738
1978.000000	3.324614
1979.000000	3.342017
1980.000000	3.360857
1981.000000	3.377938
1982.000000	3.394078
1983.000000	3.421588
1984.000000	3.426627
1985.000000	3.449016
1986.000000	3.469659
1987.000000	3.479977
1988.000000	3.494684
1989.000000	3.514509
1990.000000	3.528317
1991.000000	3.531035
1992.000000	3.570695
1993.000000	3.582432
1994.000000	3.595657
1995.000000	3.595290
1996.000000	3.618035
1997.000000	3.636677
1998.000000	3.651525
1999.000000	3.655495
2000.000000	3.661754
2001.000000	3.672880
2002.000000	3.676230
2003.000000	3.681428
2004.000000	3.696233
2005.000000	3.711489
2006.000000	3.721265
2007.000000	3.729650
2008.000000	3.726618
2009.000000	3.722386
2010.000000	3.732109
2011.000000	3.726499
2012.000000	3.728424
2013.000000	3.732949
2014.000000	3.731207
2015.000000	3.715534
2016.000000	3.703510
2017.000000	3.708470
2018.000000	3.703185
2019.000000	3.688881
2020.000000	3.684219
2021.000000	3.682396
2022.000000	3.665113
2023.000000	3.661501
2024.000000	3.656801
2025.000000	3.629825
2026.000000	3.613451
2027.000000	3.603231
2028.000000	3.597612
2029.000000	3.577363
2030.000000	3.562168
2031.000000	3.538618
2032.000000	3.515363
2033.000000	3.503938
2034.000000	3.481311
2035.000000	3.460901
2036.000000	3.442039
2037.000000	3.422722
2038.000000	3.388972
2039.000000	3.358203
2040.000000	3.344383
2041.000000	3.318165
2042.000000	3.283433
2043.000000	3.248720
2044.000000	3.227044
2045.000000	3.200543
2046.000000	3.173075
2047.000000	3.145864
2048.000000	3.111154
2049.000000	3.094753
2050.000000	3.072448
2051.000000	3.049841
2052.000000	3.034834
2053.000000	3.031716
2054.000000	3.018329
2055.000000	3.013961
2056.000000	3.011125
2057.000000	3.010467
2058.000000	3.022223
2059.000000	3.032805
2060.000000	3.034836
2061.000000	3.038080
2062.000000	3.042780
2063.000000	3.055838
2064.000000	3.068772
2065.000000	3.083071
2066.000000	3.094109
2067.000000	3.113558
2068.000000	3.126782
2069.000000	3.135686
2070.000000	3.146642
2071.000000	3.159455
2072.000000	3.167204
2073.000000	3.182625
2074.000000	3.193517
2075.000000	3.193673
2076.000000	3.194898
2077.000000	3.198907
2078.000000	3.205063
2079.000000	3.209005
2080.000000	3.214185
2081.000000	3.218835
2082.000000	3.224934
2083.000000	3.214920
2084.000000	3.215057
2085.000000	3.213146
2086.000000	3.204463
2087.000000	3.197191
2088.000000	3.195329
2089.000000	3.190690
2090.000000	3.176274
2091.000000	3.169736
2092.000000	3.166364
2093.000000	3.168703
2094.000000	3.163554
2095.000000	3.156106
2096.000000	3.148575
2097.000000	3.141734
2098.000000	3.140094
2099.000000	3.133021
2100.000000	3.130263
2101.000000	3.131004
2102.000000	3.123537
2103.000000	3.131410
2104.000000	3.135741
2105.000000	3.128048
2106.000000	3.120656
2107.000000	3.121984
2108.000000	3.123343
2109.000000	3.116410
2110.000000	3.116327
2111.000000	3.116774
2112.000000	3.107051
2113.000000	3.097019
2114.000000	3.100739
2115.000000	3.099917
2116.000000	3.090042
2117.000000	3.091265
2118.000000	3.092152
2119.000000	3.078910
2120.000000	3.066591
2121.000000	3.063962
2122.000000	3.055365
2123.000000	3.036952
2124.000000	3.027299
2125.000000	3.020166
2126.000000	3.016350
2127.000000	3.004373
2128.000000	2.986610
2129.000000	2.981770
2130.000000	2.979961
2131.000000	2.951477
2132.000000	2.948121
2133.000000	2.938309
2134.000000	2.916872
2135.000000	2.909404
2136.000000	2.892562
2137.000000	2.869438
2138.000000	2.855229
2139.000000	2.839004
2140.000000	2.825284
2141.000000	2.813725
2142.000000	2.799183
2143.000000	2.784724
2144.000000	2.768418
2145.000000	2.754074
2146.000000	2.735925
2147.000000	2.721714
2148.000000	2.694542
2149.000000	2.684830
2150.000000	2.671427
2151.000000	2.647965
2152.000000	2.639823
2153.000000	2.625373
2154.000000	2.609398
2155.000000	2.593478
2156.000000	2.595213
2157.000000	2.572516
2158.000000	2.559101
2159.000000	2.559121
2160.000000	2.546090
2161.000000	2.532923
2162.000000	2.529136
2163.000000	2.513628
2164.000000	2.515901
2165.000000	2.505831
2166.000000	2.502702
2167.000000	2.510497
2168.000000	2.505681
2169.000000	2.494241
2170.000000	2.495742
2171.000000	2.494206
2172.000000	2.493132
2173.000000	2.498851
2174.000000	2.497637
2175.000000	2.502549
2176.000000	2.508627
2177.000000	2.503288
2178.000000	2.507530
2179.000000	2.508256
2180.000000	2.520085
2181.000000	2.525752
2182.000000	2.518704
2183.000000	2.533855
2184.000000	2.539437
2185.000000	2.533750
2186.000000	2.531909
2187.000000	2.542213
2188.000000	2.539177
2189.000000	2.532787
2190.000000	2.540890
2191.000000	2.554493
2192.000000	2.550348
2193.000000	2.551349
2194.000000	2.551439
2195.000000	2.559727
2196.000000	2.563570
2197.000000	2.562273
2198.000000	2.573710
2199.000000	2.575525
2200.000000	2.577683
2201.000000	2.600579
2202.000000	2.591812
2203.000000	2.598506
2204.000000	2.609172
2205.000000	2.616453
2206.000000	2.622123
2207.000000	2.628365
2208.000000	2.631816
2209.000000	2.636128
2210.000000	2.644981
2211.000000	2.660379
2212.000000	2.675887
2213.000000	2.683818
2214.000000	2.688414
2215.000000	2.700696
2216.000000	2.722108
2217.000000	2.738101
2218.000000	2.752314
2219.000000	2.766153
2220.000000	2.766435
2221.000000	2.778989
2222.000000	2.786064
2223.000000	2.803185
2224.000000	2.829659
2225.000000	2.825513
2226.000000	2.830910
2227.000000	2.849465
2228.000000	2.847425
2229.000000	2.856731
2230.000000	2.848005
2231.000000	2.853235
2232.000000	2.862983
2233.000000	2.860066
2234.000000	2.846608
2235.000000	2.845615
2236.000000	2.853043
2237.000000	2.840073
2238.000000	2.829594
2239.000000	2.825411
2240.000000	2.811691
2241.000000	2.810820
2242.000000	2.788376
2243.000000	2.770879
2244.000000	2.763914
2245.000000	2.738594
2246.000000	2.713825
2247.000000	2.695229
2248.000000	2.673962
2249.000000	2.651944
2250.000000	2.621970
2251.000000	2.601580
2252.000000	2.593659
2253.000000	2.561491
2254.000000	2.538016
2255.000000	2.510979
2256.000000	2.479873
2257.000000	2.465754
2258.000000	2.453706
2259.000000	2.425179
2260.000000	2.411697
2261.000000	2.385583
2262.000000	2.389665
2263.000000	2.368697
2264.000000	2.358509
2265.000000	2.346591
2266.000000	2.332034
2267.000000	2.328604
2268.000000	2.328504
2269.000000	2.313855
2270.000000	2.318373
2271.000000	2.314743
2272.000000	2.302928
2273.000000	2.306228
2274.000000	2.293883
2275.000000	2.302296
2276.000000	2.300633
2277.000000	2.300861
2278.000000	2.299058
2279.000000	2.307964
2280.000000	2.296613
2281.000000	2.291338
2282.000000	2.290424
2283.000000	2.280869
2284.000000	2.277380
2285.000000	2.273045
2286.000000	2.272933
2287.000000	2.269888
2288.000000	2.255324
2289.000000	2.258971
2290.000000	2.248769
2291.000000	2.249020
2292.000000	2.247879
2293.000000	2.239557
2294.000000	2.232519
2295.000000	2.235540
2296.000000	2.231753
2297.000000	2.233737
2298.000000	2.229027
2299.000000	2.228691
2300.000000	2.230065
2301.000000	2.234526
2302.000000	2.239568
2303.000000	2.239661
2304.000000	2.243061
2305.000000	2.239278
2306.000000	2.243721
2307.000000	2.247555
2308.000000	2.256868
2309.000000	2.266504
2310.000000	2.254919
2311.000000	2.247748
2312.000000	2.250953
2313.000000	2.252390
2314.000000	2.244800
2315.000000	2.241394
2316.000000	2.241052
2317.000000	2.237322
2318.000000	2.232818
2319.000000	2.237430
2320.000000	2.228289
2321.000000	2.213283
2322.000000	2.198450
2323.000000	2.189008
2324.000000	2.187000
2325.000000	2.186366
2326.000000	2.182534
2327.000000	2.175503
2328.000000	2.165296
2329.000000	2.157424
2330.000000	2.147016
2331.000000	2.140064
2332.000000	2.139962
2333.000000	2.144211
2334.000000	2.149099
2335.000000	2.147922
2336.000000	2.141358
2337.000000	2.134392
2338.000000	2.126067
2339.000000	2.134556
2340.000000	2.146729
2341.000000	2.142138
2342.000000	2.143755
2343.000000	2.149467
2344.000000	2.150297
2345.000000	2.155824
2346.000000	2.158379
2347.000000	2.156850
2348.000000	2.157624
2349.000000	2.168193
2350.000000	2.180896
2351.000000	2.182720
2352.000000	2.174557
2353.000000	2.169034
2354.000000	2.177817
2355.000000	2.181733
2356.000000	2.175656
2357.000000	2.174184
2358.000000	2.173215
2359.000000	2.168596
2360.000000	2.167038
2361.000000	2.170473
2362.000000	2.166092
2363.000000	2.164502
2364.000000	2.170003
2365.000000	2.168647
2366.000000	2.168754
2367.000000	2.171269
2368.000000	2.173449
2369.000000	2.174492
2370.000000	2.179095
2371.000000	2.181846
2372.000000	2.178228
2373.000000	2.176792
2374.000000	2.181019
2375.000000	2.181531
2376.000000	2.182138
2377.000000	2.191676
2378.000000	2.197699
2379.000000	2.194732
2380.000000	2.198247
2381.000000	2.201863
2382.000000	2.205056
2383.000000	2.203151
2384.000000	2.204745
2385.000000	2.208903
2386.000000	2.209131
2387.000000	2.212248
2388.000000	2.214558
2389.000000	2.207028
2390.000000	2.203199
2391.000000	2.206759
2392.000000	2.204291
2393.000000	2.206769
2394.000000	2.206341
2395.000000	2.195699
2396.000000	2.196880
2397.000000	2.191908
2398.000000	2.188875
2399.000000	2.196062
2400.000000	2.184398
2401.000000	2.173165
2402.000000	2.173029
2403.000000	2.167435
2404.000000	2.163504
2405.000000	2.157768
2406.000000	2.164616
2407.000000	2.163281
2408.000000	2.150416
2409.000000	2.153114
2410.000000	2.146161
2411.000000	2.138231
2412.000000	2.131046
2413.000000	2.131666
2414.000000	2.129885
2415.000000	2.112906
2416.000000	2.109418
2417.000000	2.102575
2418.000000	2.090308
2419.000000	2.088497
2420.000000	2.080477
2421.000000	2.060766
2422.000000	2.057826
2423.000000	2.057933
2424.000000	2.039488
2425.000000	2.030030
2426.000000	2.016577
2427.000000	2.007051
2428.000000	1.999155
2429.000000	1.977048
2430.000000	1.968608
2431.000000	1.959644
2432.000000	1.953292
2433.000000	1.935016
2434.000000	1.916659
2435.000000	1.909414
2436.000000	1.900560
2437.000000	1.888232
2438.000000	1.875583
2439.000000	1.859767
2440.000000	1.840822
2441.000000	1.822083
2442.000000	1.812930
2443.000000	1.800823
2444.000000	1.771153
2445.000000	1.763232
2446.000000	1.753307
2447.000000	1.733751
2448.000000	1.730232
2449.000000	1.703791
2450.000000	1.700362
2451.000000	1.688238
2452.000000	1.679258
2453.000000	1.670307
2454.000000	1.661011
2455.000000	1.628577
2456.000000	1.624106
2457.000000	1.605465
2458.000000	1.596780
2459.000000	1.579935
2460.000000	1.584869
2461.000000	1.545368
2462.000000	1.567501
2463.000000	1.569876
2464.000000	1.537398
2465.000000	1.518062
2466.000000	1.533036
2467.000000	1.512654
2468.000000	1.521259
2469.000000	1.521847
2470.000000	1.497162
2471.000000	1.501617
2472.000000	1.496606
2473.000000	1.471326
2474.000000	1.461583
2475.000000	1.495405
2476.000000	1.464914
2477.000000	1.446813
2478.000000	1.448196
2479.000000	1.457764
2480.000000	1.449137
2481.000000	1.439472
2482.000000	1.433184
2483.000000	1.400756
2484.000000	1.411875
2485.000000	1.405908
2486.000000	1.464598
2487.000000	1.445466
2488.000000	1.446488
2489.000000	1.455734
2490.000000	1.394290
2491.000000	1.415716
2492.000000	1.412802
2493.000000	1.412094
2494.000000	1.368426
2495.000000	1.421871
2496.000000	1.440564
2497.000000	1.484611
2498.000000	1.463495
2499.000000	1.449333
2500.000000	1.438400
