PE UV       SUBTECH     SPECTRUM    ASCII       PEDS        4.00        
   -1
CICIMAUCR0177-3.ASC
24/03/01
13:25:40.00
24/03/01
13:25:40.00
Vinicio Soto Monge
C.aurora. USA: AZ: Cochise Co, Chrisicahua Mtns., Pine Canyon, 31°56.895'N, 10920.495'W, 1798 m, 22.VII.2009 MV light, N.P. Lord, colr. 
250,000000
1
Lambda 1050
1050L1511233
PerkinElmer UV WinLab 6.3.2.0749 / 2.02.05 Lambda 900 UV/VIS/NIR, Aug  7 2015 09:38:08

0
0
3350/servo 860,8/2
0
0
UV/VIS
1
1
1
DoubleDePol,CommonBeamDepol,RBeamAtt,SBeamAtt,60mm sphere, WB InGaAs Detector
0
0
0
0
Program
Program
3350/servo 860,8/2
3350/0,2 860,8/0,2
3350/0,2 860,8/0,2
0
15.00
 
 
 
0
 
860,8
319,2
860,8
Front
100
on
S:100 R:100
0
0
0
0
 
0
 
 
 
0
 
 
0
0
0
0
0
 
 
 
 
0
0


0
0
#HDR
-1
-1
#GR
nm
%R
1.0
0.0
2500,000000
-1,000000
2251
8
22,957100
1,328400
#DATA
250.000000	0.031475
251.000000	0.050380
252.000000	0.016758
253.000000	0.020991
254.000000	0.027465
255.000000	0.017299
256.000000	0.016342
257.000000	0.020364
258.000000	0.009743
259.000000	0.012692
260.000000	0.024503
261.000000	0.008018
262.000000	0.014429
263.000000	0.048935
264.000000	0.011255
265.000000	0.038190
266.000000	0.024291
267.000000	0.024329
268.000000	0.016147
269.000000	0.015935
270.000000	0.008141
271.000000	0.004091
272.000000	0.021591
273.000000	0.004796
274.000000	0.018778
275.000000	0.021300
276.000000	0.042615
277.000000	0.023820
278.000000	0.016475
279.000000	0.020002
280.000000	0.021723
281.000000	0.026704
282.000000	0.011506
283.000000	0.018432
284.000000	0.006333
285.000000	0.031355
286.000000	0.015396
287.000000	0.029324
288.000000	0.014830
289.000000	0.013153
290.000000	0.015700
291.000000	0.031505
292.000000	0.021692
293.000000	0.022039
294.000000	0.021775
295.000000	0.016679
296.000000	0.019031
297.000000	0.005843
298.000000	0.012652
299.000000	0.015227
300.000000	0.020785
301.000000	0.003591
302.000000	0.010803
303.000000	0.017634
304.000000	0.026273
305.000000	0.036713
306.000000	0.023866
307.000000	0.020406
308.000000	0.012797
309.000000	0.013464
310.000000	0.013884
311.000000	0.041622
312.000000	0.019844
313.000000	0.023707
314.000000	0.042623
315.000000	0.030091
316.000000	0.015662
317.000000	0.075275
318.000000	0.056381
319.000000	0.080294
320.000000	0.193040
321.000000	0.191755
322.000000	0.015654
323.000000	0.091611
324.000000	0.093655
325.000000	0.137239
326.000000	0.059668
327.000000	0.072243
328.000000	0.080622
329.000000	0.082375
330.000000	0.054091
331.000000	0.030317
332.000000	0.033453
333.000000	0.116758
334.000000	0.012741
335.000000	0.115070
336.000000	0.062841
337.000000	0.024846
338.000000	0.056559
339.000000	0.049784
340.000000	0.081818
341.000000	0.058663
342.000000	0.054485
343.000000	0.011243
344.000000	0.010442
345.000000	0.042126
346.000000	0.024242
347.000000	0.038204
348.000000	0.046660
349.000000	0.071283
350.000000	0.031606
351.000000	0.023677
352.000000	0.036543
353.000000	0.031913
354.000000	0.060807
355.000000	0.031124
356.000000	0.056442
357.000000	0.044164
358.000000	0.035545
359.000000	0.049368
360.000000	0.057559
361.000000	0.026445
362.000000	0.049138
363.000000	0.018972
364.000000	0.009299
365.000000	0.019485
366.000000	0.031258
367.000000	0.027831
368.000000	0.022363
369.000000	0.037243
370.000000	0.030237
371.000000	0.080452
372.000000	0.054571
373.000000	0.090228
374.000000	0.070611
375.000000	0.037771
376.000000	0.040690
377.000000	0.003431
378.000000	0.014385
379.000000	0.015671
380.000000	0.012859
381.000000	0.009837
382.000000	0.006135
383.000000	0.008447
384.000000	0.012495
385.000000	0.010786
386.000000	0.006792
387.000000	0.007762
388.000000	0.008346
389.000000	0.010362
390.000000	0.010363
391.000000	0.007354
392.000000	0.006913
393.000000	0.015243
394.000000	0.011379
395.000000	0.009743
396.000000	0.013401
397.000000	0.012960
398.000000	0.010750
399.000000	0.006297
400.000000	0.013685
401.000000	0.009760
402.000000	0.005866
403.000000	0.008368
404.000000	0.006578
405.000000	0.007211
406.000000	0.009164
407.000000	0.009773
408.000000	0.005244
409.000000	0.007305
410.000000	0.009020
411.000000	0.008937
412.000000	0.007871
413.000000	0.009253
414.000000	0.012686
415.000000	0.008309
416.000000	0.006289
417.000000	0.004504
418.000000	0.013348
419.000000	0.010699
420.000000	0.002945
421.000000	0.004046
422.000000	0.005852
423.000000	0.005942
424.000000	0.002624
425.000000	0.002123
426.000000	0.008649
427.000000	0.005738
428.000000	0.000163
429.000000	0.005689
430.000000	0.006463
431.000000	0.005887
432.000000	0.006012
433.000000	0.006018
434.000000	0.009363
435.000000	0.010785
436.000000	0.010982
437.000000	0.009984
438.000000	0.011176
439.000000	0.014493
440.000000	0.013840
441.000000	0.013368
442.000000	0.020309
443.000000	0.017251
444.000000	0.014220
445.000000	0.017954
446.000000	0.020073
447.000000	0.019010
448.000000	0.021611
449.000000	0.027073
450.000000	0.028358
451.000000	0.027506
452.000000	0.025218
453.000000	0.027938
454.000000	0.031797
455.000000	0.029934
456.000000	0.029412
457.000000	0.030062
458.000000	0.027809
459.000000	0.028197
460.000000	0.029399
461.000000	0.027434
462.000000	0.028930
463.000000	0.029076
464.000000	0.027698
465.000000	0.025355
466.000000	0.023374
467.000000	0.022564
468.000000	0.024682
469.000000	0.023361
470.000000	0.024134
471.000000	0.024030
472.000000	0.018612
473.000000	0.017048
474.000000	0.016780
475.000000	0.018003
476.000000	0.017770
477.000000	0.019952
478.000000	0.019293
479.000000	0.016096
480.000000	0.015314
481.000000	0.016098
482.000000	0.014088
483.000000	0.012704
484.000000	0.012112
485.000000	0.013180
486.000000	0.016255
487.000000	0.014242
488.000000	0.010408
489.000000	0.013392
490.000000	0.018244
491.000000	0.022026
492.000000	0.022885
493.000000	0.025280
494.000000	0.031888
495.000000	0.035378
496.000000	0.034707
497.000000	0.036889
498.000000	0.037300
499.000000	0.040129
500.000000	0.044615
501.000000	0.052064
502.000000	0.052403
503.000000	0.054386
504.000000	0.054586
505.000000	0.060239
506.000000	0.064329
507.000000	0.062815
508.000000	0.060677
509.000000	0.064697
510.000000	0.066071
511.000000	0.065092
512.000000	0.069011
513.000000	0.068976
514.000000	0.067814
515.000000	0.065510
516.000000	0.068215
517.000000	0.067615
518.000000	0.066948
519.000000	0.067512
520.000000	0.064898
521.000000	0.064506
522.000000	0.060915
523.000000	0.060025
524.000000	0.059107
525.000000	0.059935
526.000000	0.059572
527.000000	0.055135
528.000000	0.050205
529.000000	0.050665
530.000000	0.050607
531.000000	0.048268
532.000000	0.046508
533.000000	0.041812
534.000000	0.043535
535.000000	0.043822
536.000000	0.039812
537.000000	0.036951
538.000000	0.034657
539.000000	0.031759
540.000000	0.035638
541.000000	0.033310
542.000000	0.038463
543.000000	0.032131
544.000000	0.033842
545.000000	0.039499
546.000000	0.042571
547.000000	0.038327
548.000000	0.045108
549.000000	0.045391
550.000000	0.039985
551.000000	0.036593
552.000000	0.043980
553.000000	0.043369
554.000000	0.040703
555.000000	0.042447
556.000000	0.043867
557.000000	0.042572
558.000000	0.041685
559.000000	0.046059
560.000000	0.043357
561.000000	0.048723
562.000000	0.051159
563.000000	0.052112
564.000000	0.055050
565.000000	0.059104
566.000000	0.056367
567.000000	0.053397
568.000000	0.062493
569.000000	0.053695
570.000000	0.065284
571.000000	0.057842
572.000000	0.062539
573.000000	0.064060
574.000000	0.069474
575.000000	0.072594
576.000000	0.070992
577.000000	0.073176
578.000000	0.079587
579.000000	0.084835
580.000000	0.089121
581.000000	0.089399
582.000000	0.094581
583.000000	0.100630
584.000000	0.090737
585.000000	0.104148
586.000000	0.106193
587.000000	0.108378
588.000000	0.108372
589.000000	0.117744
590.000000	0.115756
591.000000	0.118455
592.000000	0.122782
593.000000	0.126463
594.000000	0.125737
595.000000	0.126644
596.000000	0.130297
597.000000	0.127979
598.000000	0.134209
599.000000	0.124719
600.000000	0.132578
601.000000	0.128321
602.000000	0.128051
603.000000	0.130773
604.000000	0.125590
605.000000	0.129536
606.000000	0.125781
607.000000	0.130334
608.000000	0.123193
609.000000	0.123840
610.000000	0.121198
611.000000	0.121431
612.000000	0.117035
613.000000	0.120862
614.000000	0.113618
615.000000	0.106862
616.000000	0.113624
617.000000	0.111471
618.000000	0.116959
619.000000	0.111382
620.000000	0.118168
621.000000	0.108453
622.000000	0.115291
623.000000	0.107361
624.000000	0.107079
625.000000	0.102427
626.000000	0.104906
627.000000	0.098217
628.000000	0.100723
629.000000	0.090507
630.000000	0.094970
631.000000	0.092078
632.000000	0.095054
633.000000	0.092231
634.000000	0.089822
635.000000	0.087590
636.000000	0.079372
637.000000	0.085594
638.000000	0.077193
639.000000	0.078302
640.000000	0.075704
641.000000	0.068542
642.000000	0.075193
643.000000	0.077984
644.000000	0.072214
645.000000	0.070613
646.000000	0.067519
647.000000	0.063897
648.000000	0.074877
649.000000	0.073146
650.000000	0.065600
651.000000	0.065352
652.000000	0.069413
653.000000	0.069660
654.000000	0.068453
655.000000	0.071061
656.000000	0.065466
657.000000	0.062251
658.000000	0.059310
659.000000	0.056156
660.000000	0.065627
661.000000	0.060298
662.000000	0.055165
663.000000	0.062477
664.000000	0.058433
665.000000	0.058704
666.000000	0.055605
667.000000	0.051575
668.000000	0.056752
669.000000	0.051196
670.000000	0.059141
671.000000	0.047562
672.000000	0.047417
673.000000	0.047668
674.000000	0.047144
675.000000	0.044751
676.000000	0.048047
677.000000	0.051608
678.000000	0.059376
679.000000	0.051422
680.000000	0.055384
681.000000	0.047262
682.000000	0.045110
683.000000	0.048528
684.000000	0.044241
685.000000	0.053433
686.000000	0.051244
687.000000	0.051427
688.000000	0.052278
689.000000	0.049854
690.000000	0.053329
691.000000	0.050813
692.000000	0.048991
693.000000	0.048171
694.000000	0.049605
695.000000	0.047040
696.000000	0.046221
697.000000	0.047837
698.000000	0.045993
699.000000	0.052612
700.000000	0.066260
701.000000	0.063378
702.000000	0.060266
703.000000	0.057039
704.000000	0.052026
705.000000	0.054148
706.000000	0.050324
707.000000	0.057024
708.000000	0.062914
709.000000	0.065745
710.000000	0.054204
711.000000	0.055468
712.000000	0.063931
713.000000	0.060304
714.000000	0.059062
715.000000	0.057833
716.000000	0.063536
717.000000	0.072091
718.000000	0.066034
719.000000	0.060890
720.000000	0.052795
721.000000	0.062977
722.000000	0.058400
723.000000	0.059536
724.000000	0.068441
725.000000	0.058572
726.000000	0.064370
727.000000	0.061319
728.000000	0.060846
729.000000	0.059626
730.000000	0.060458
731.000000	0.066190
732.000000	0.073226
733.000000	0.079281
734.000000	0.070860
735.000000	0.071764
736.000000	0.076058
737.000000	0.071848
738.000000	0.058979
739.000000	0.065527
740.000000	0.068893
741.000000	0.067288
742.000000	0.066742
743.000000	0.068261
744.000000	0.073102
745.000000	0.076233
746.000000	0.074819
747.000000	0.069466
748.000000	0.071281
749.000000	0.078312
750.000000	0.083474
751.000000	0.082414
752.000000	0.088863
753.000000	0.084264
754.000000	0.067709
755.000000	0.073102
756.000000	0.080903
757.000000	0.075846
758.000000	0.061914
759.000000	0.062632
760.000000	0.070765
761.000000	0.069822
762.000000	0.072897
763.000000	0.068494
764.000000	0.087306
765.000000	0.079695
766.000000	0.081926
767.000000	0.092868
768.000000	0.084856
769.000000	0.082775
770.000000	0.083609
771.000000	0.091702
772.000000	0.093956
773.000000	0.067491
774.000000	0.060739
775.000000	0.083392
776.000000	0.089381
777.000000	0.093582
778.000000	0.085253
779.000000	0.083064
780.000000	0.070396
781.000000	0.061883
782.000000	0.083723
783.000000	0.077734
784.000000	0.063720
785.000000	0.074455
786.000000	0.087579
787.000000	0.099804
788.000000	0.121685
789.000000	0.091059
790.000000	0.067522
791.000000	0.093038
792.000000	0.088391
793.000000	0.095118
794.000000	0.104288
795.000000	0.088417
796.000000	0.063527
797.000000	0.077308
798.000000	0.109782
799.000000	0.091203
800.000000	0.084754
801.000000	0.102222
802.000000	0.114123
803.000000	0.081523
804.000000	0.074169
805.000000	0.101346
806.000000	0.080415
807.000000	0.059596
808.000000	0.111035
809.000000	0.121471
810.000000	0.075988
811.000000	0.097878
812.000000	0.087461
813.000000	0.084008
814.000000	0.093086
815.000000	0.084620
816.000000	0.062851
817.000000	0.083843
818.000000	0.108901
819.000000	0.112014
820.000000	0.108143
821.000000	0.067083
822.000000	0.037721
823.000000	0.061707
824.000000	0.100513
825.000000	0.106686
826.000000	0.093968
827.000000	0.101815
828.000000	0.073349
829.000000	0.095304
830.000000	0.073230
831.000000	0.059655
832.000000	0.089769
833.000000	0.089444
834.000000	0.052297
835.000000	0.070990
836.000000	0.050717
837.000000	0.022555
838.000000	0.066193
839.000000	0.054844
840.000000	0.115702
841.000000	0.157157
842.000000	0.102401
843.000000	0.112150
844.000000	0.087024
845.000000	0.169008
846.000000	0.092978
847.000000	0.071220
848.000000	0.097046
849.000000	0.057941
850.000000	0.109578
851.000000	0.122128
852.000000	0.174162
853.000000	0.092669
854.000000	0.199584
855.000000	0.085294
856.000000	0.110508
857.000000	0.043382
858.000000	0.073258
859.000000	0.049434
860.000000	0.038606
861.000000	0.036353
862.000000	0.027603
863.000000	0.022089
864.000000	0.038296
865.000000	0.030857
866.000000	0.028817
867.000000	0.045218
868.000000	0.042463
869.000000	0.044550
870.000000	0.043396
871.000000	0.044279
872.000000	0.057247
873.000000	0.043657
874.000000	0.033949
875.000000	0.048587
876.000000	0.050361
877.000000	0.048102
878.000000	0.060789
879.000000	0.057072
880.000000	0.049909
881.000000	0.062487
882.000000	0.059116
883.000000	0.066072
884.000000	0.063555
885.000000	0.059519
886.000000	0.054775
887.000000	0.074384
888.000000	0.065506
889.000000	0.067027
890.000000	0.059454
891.000000	0.087283
892.000000	0.077897
893.000000	0.088183
894.000000	0.087114
895.000000	0.083907
896.000000	0.083056
897.000000	0.081704
898.000000	0.064830
899.000000	0.076750
900.000000	0.089634
901.000000	0.087978
902.000000	0.086310
903.000000	0.095028
904.000000	0.085286
905.000000	0.093797
906.000000	0.100291
907.000000	0.095944
908.000000	0.080489
909.000000	0.081162
910.000000	0.067201
911.000000	0.089443
912.000000	0.093453
913.000000	0.073890
914.000000	0.065868
915.000000	0.058806
916.000000	0.049781
917.000000	0.090071
918.000000	0.079530
919.000000	0.067725
920.000000	0.075404
921.000000	0.077233
922.000000	0.078231
923.000000	0.076210
924.000000	0.052031
925.000000	0.070091
926.000000	0.053394
927.000000	0.074807
928.000000	0.061662
929.000000	0.076298
930.000000	0.068003
931.000000	0.045389
932.000000	0.049863
933.000000	0.055626
934.000000	0.075181
935.000000	0.061250
936.000000	0.083104
937.000000	0.074667
938.000000	0.085857
939.000000	0.093942
940.000000	0.073184
941.000000	0.079275
942.000000	0.080443
943.000000	0.086342
944.000000	0.094583
945.000000	0.089867
946.000000	0.085610
947.000000	0.085577
948.000000	0.090487
949.000000	0.092804
950.000000	0.088695
951.000000	0.088801
952.000000	0.103623
953.000000	0.098812
954.000000	0.086637
955.000000	0.102949
956.000000	0.088819
957.000000	0.106932
958.000000	0.102847
959.000000	0.102034
960.000000	0.094222
961.000000	0.107269
962.000000	0.104650
963.000000	0.110787
964.000000	0.122720
965.000000	0.125345
966.000000	0.134572
967.000000	0.126968
968.000000	0.109894
969.000000	0.113562
970.000000	0.139982
971.000000	0.139866
972.000000	0.139480
973.000000	0.131078
974.000000	0.136158
975.000000	0.156416
976.000000	0.151641
977.000000	0.152016
978.000000	0.165626
979.000000	0.167043
980.000000	0.166720
981.000000	0.169656
982.000000	0.160806
983.000000	0.173068
984.000000	0.167507
985.000000	0.164282
986.000000	0.167056
987.000000	0.183888
988.000000	0.183670
989.000000	0.178606
990.000000	0.190063
991.000000	0.192010
992.000000	0.176735
993.000000	0.182436
994.000000	0.191398
995.000000	0.195556
996.000000	0.199735
997.000000	0.205601
998.000000	0.205541
999.000000	0.211442
1000.000000	0.226458
1001.000000	0.218045
1002.000000	0.208650
1003.000000	0.208026
1004.000000	0.213821
1005.000000	0.218673
1006.000000	0.221890
1007.000000	0.226990
1008.000000	0.217298
1009.000000	0.205742
1010.000000	0.210049
1011.000000	0.207558
1012.000000	0.211491
1013.000000	0.226600
1014.000000	0.224918
1015.000000	0.233430
1016.000000	0.237799
1017.000000	0.237541
1018.000000	0.240962
1019.000000	0.241705
1020.000000	0.239839
1021.000000	0.251874
1022.000000	0.252811
1023.000000	0.259926
1024.000000	0.266793
1025.000000	0.265535
1026.000000	0.263855
1027.000000	0.263540
1028.000000	0.262686
1029.000000	0.266297
1030.000000	0.264524
1031.000000	0.262010
1032.000000	0.269400
1033.000000	0.281891
1034.000000	0.284458
1035.000000	0.275402
1036.000000	0.278316
1037.000000	0.286173
1038.000000	0.281982
1039.000000	0.281436
1040.000000	0.277887
1041.000000	0.283749
1042.000000	0.288186
1043.000000	0.280284
1044.000000	0.284042
1045.000000	0.291995
1046.000000	0.285895
1047.000000	0.276954
1048.000000	0.284727
1049.000000	0.293228
1050.000000	0.283200
1051.000000	0.278120
1052.000000	0.294589
1053.000000	0.308943
1054.000000	0.299908
1055.000000	0.297026
1056.000000	0.300583
1057.000000	0.291931
1058.000000	0.293348
1059.000000	0.293919
1060.000000	0.297156
1061.000000	0.307055
1062.000000	0.310085
1063.000000	0.300287
1064.000000	0.298225
1065.000000	0.295203
1066.000000	0.298686
1067.000000	0.310280
1068.000000	0.317105
1069.000000	0.315794
1070.000000	0.305992
1071.000000	0.298037
1072.000000	0.299105
1073.000000	0.300559
1074.000000	0.296012
1075.000000	0.306111
1076.000000	0.316807
1077.000000	0.318803
1078.000000	0.316437
1079.000000	0.307577
1080.000000	0.305188
1081.000000	0.308861
1082.000000	0.307255
1083.000000	0.313484
1084.000000	0.317624
1085.000000	0.316580
1086.000000	0.316915
1087.000000	0.310290
1088.000000	0.305569
1089.000000	0.309852
1090.000000	0.316640
1091.000000	0.320548
1092.000000	0.306664
1093.000000	0.305156
1094.000000	0.313710
1095.000000	0.317766
1096.000000	0.324956
1097.000000	0.329411
1098.000000	0.331882
1099.000000	0.328629
1100.000000	0.333575
1101.000000	0.340209
1102.000000	0.347030
1103.000000	0.358502
1104.000000	0.350377
1105.000000	0.346905
1106.000000	0.335286
1107.000000	0.334624
1108.000000	0.332615
1109.000000	0.346059
1110.000000	0.358486
1111.000000	0.357509
1112.000000	0.349075
1113.000000	0.355544
1114.000000	0.363838
1115.000000	0.364789
1116.000000	0.368854
1117.000000	0.354531
1118.000000	0.356263
1119.000000	0.352303
1120.000000	0.344588
1121.000000	0.343941
1122.000000	0.352526
1123.000000	0.347964
1124.000000	0.340778
1125.000000	0.336309
1126.000000	0.344247
1127.000000	0.330515
1128.000000	0.363858
1129.000000	0.359466
1130.000000	0.360479
1131.000000	0.360284
1132.000000	0.355714
1133.000000	0.364469
1134.000000	0.349861
1135.000000	0.374819
1136.000000	0.364566
1137.000000	0.379251
1138.000000	0.387059
1139.000000	0.389559
1140.000000	0.386833
1141.000000	0.388068
1142.000000	0.390454
1143.000000	0.373402
1144.000000	0.388637
1145.000000	0.388656
1146.000000	0.404937
1147.000000	0.402679
1148.000000	0.410416
1149.000000	0.408011
1150.000000	0.402786
1151.000000	0.387163
1152.000000	0.409595
1153.000000	0.409714
1154.000000	0.417763
1155.000000	0.418039
1156.000000	0.425033
1157.000000	0.421843
1158.000000	0.421319
1159.000000	0.434075
1160.000000	0.427896
1161.000000	0.438090
1162.000000	0.445755
1163.000000	0.451106
1164.000000	0.453330
1165.000000	0.445002
1166.000000	0.461443
1167.000000	0.461670
1168.000000	0.462023
1169.000000	0.474870
1170.000000	0.468389
1171.000000	0.472556
1172.000000	0.451084
1173.000000	0.464117
1174.000000	0.472581
1175.000000	0.462519
1176.000000	0.494009
1177.000000	0.481746
1178.000000	0.478968
1179.000000	0.486810
1180.000000	0.467118
1181.000000	0.479360
1182.000000	0.486652
1183.000000	0.491932
1184.000000	0.499131
1185.000000	0.505156
1186.000000	0.498307
1187.000000	0.507118
1188.000000	0.517193
1189.000000	0.515689
1190.000000	0.507658
1191.000000	0.502990
1192.000000	0.502198
1193.000000	0.514316
1194.000000	0.512395
1195.000000	0.507475
1196.000000	0.506302
1197.000000	0.514196
1198.000000	0.504319
1199.000000	0.503376
1200.000000	0.512272
1201.000000	0.510569
1202.000000	0.518382
1203.000000	0.518003
1204.000000	0.524955
1205.000000	0.522004
1206.000000	0.535332
1207.000000	0.528228
1208.000000	0.521451
1209.000000	0.531870
1210.000000	0.539547
1211.000000	0.547531
1212.000000	0.561215
1213.000000	0.553969
1214.000000	0.550749
1215.000000	0.551350
1216.000000	0.544255
1217.000000	0.549211
1218.000000	0.553448
1219.000000	0.550188
1220.000000	0.542622
1221.000000	0.544211
1222.000000	0.551232
1223.000000	0.534851
1224.000000	0.539978
1225.000000	0.524217
1226.000000	0.519692
1227.000000	0.521001
1228.000000	0.521695
1229.000000	0.515726
1230.000000	0.513245
1231.000000	0.495737
1232.000000	0.503236
1233.000000	0.505500
1234.000000	0.489126
1235.000000	0.500248
1236.000000	0.510419
1237.000000	0.508254
1238.000000	0.484500
1239.000000	0.486514
1240.000000	0.483580
1241.000000	0.477528
1242.000000	0.492177
1243.000000	0.486920
1244.000000	0.488319
1245.000000	0.488573
1246.000000	0.479252
1247.000000	0.484906
1248.000000	0.487415
1249.000000	0.489422
1250.000000	0.496268
1251.000000	0.489343
1252.000000	0.480625
1253.000000	0.486576
1254.000000	0.488856
1255.000000	0.490731
1256.000000	0.489908
1257.000000	0.488885
1258.000000	0.488397
1259.000000	0.489253
1260.000000	0.499088
1261.000000	0.501365
1262.000000	0.502422
1263.000000	0.500942
1264.000000	0.492470
1265.000000	0.505126
1266.000000	0.505720
1267.000000	0.507538
1268.000000	0.511192
1269.000000	0.511850
1270.000000	0.506918
1271.000000	0.496498
1272.000000	0.497824
1273.000000	0.503047
1274.000000	0.491438
1275.000000	0.495619
1276.000000	0.487057
1277.000000	0.476377
1278.000000	0.480461
1279.000000	0.487977
1280.000000	0.489302
1281.000000	0.488916
1282.000000	0.484924
1283.000000	0.488436
1284.000000	0.497085
1285.000000	0.492950
1286.000000	0.493042
1287.000000	0.497419
1288.000000	0.487735
1289.000000	0.485097
1290.000000	0.491998
1291.000000	0.507084
1292.000000	0.496771
1293.000000	0.484788
1294.000000	0.493625
1295.000000	0.496167
1296.000000	0.502707
1297.000000	0.512503
1298.000000	0.514555
1299.000000	0.508016
1300.000000	0.503047
1301.000000	0.493158
1302.000000	0.488160
1303.000000	0.492769
1304.000000	0.490052
1305.000000	0.490819
1306.000000	0.498397
1307.000000	0.502488
1308.000000	0.499538
1309.000000	0.500577
1310.000000	0.501624
1311.000000	0.490995
1312.000000	0.492313
1313.000000	0.495965
1314.000000	0.500143
1315.000000	0.497772
1316.000000	0.495753
1317.000000	0.498805
1318.000000	0.494209
1319.000000	0.491229
1320.000000	0.496869
1321.000000	0.495759
1322.000000	0.492354
1323.000000	0.489170
1324.000000	0.473398
1325.000000	0.481966
1326.000000	0.495681
1327.000000	0.493701
1328.000000	0.493599
1329.000000	0.492900
1330.000000	0.494576
1331.000000	0.492466
1332.000000	0.485942
1333.000000	0.481453
1334.000000	0.484782
1335.000000	0.494552
1336.000000	0.501975
1337.000000	0.488295
1338.000000	0.489376
1339.000000	0.496489
1340.000000	0.495255
1341.000000	0.502191
1342.000000	0.511077
1343.000000	0.516277
1344.000000	0.505202
1345.000000	0.492526
1346.000000	0.488947
1347.000000	0.492207
1348.000000	0.503439
1349.000000	0.509996
1350.000000	0.489458
1351.000000	0.498938
1352.000000	0.490542
1353.000000	0.493093
1354.000000	0.500589
1355.000000	0.504757
1356.000000	0.510855
1357.000000	0.504287
1358.000000	0.487868
1359.000000	0.466661
1360.000000	0.452620
1361.000000	0.469223
1362.000000	0.488908
1363.000000	0.480113
1364.000000	0.482250
1365.000000	0.483850
1366.000000	0.466624
1367.000000	0.472155
1368.000000	0.487964
1369.000000	0.479353
1370.000000	0.481323
1371.000000	0.492539
1372.000000	0.489935
1373.000000	0.485234
1374.000000	0.483449
1375.000000	0.492441
1376.000000	0.493178
1377.000000	0.477203
1378.000000	0.439685
1379.000000	0.417908
1380.000000	0.383389
1381.000000	0.394895
1382.000000	0.430387
1383.000000	0.443758
1384.000000	0.478769
1385.000000	0.467705
1386.000000	0.483466
1387.000000	0.500545
1388.000000	0.526405
1389.000000	0.511873
1390.000000	0.514052
1391.000000	0.504905
1392.000000	0.515747
1393.000000	0.491586
1394.000000	0.508326
1395.000000	0.536194
1396.000000	0.524916
1397.000000	0.510986
1398.000000	0.495544
1399.000000	0.505796
1400.000000	0.542221
1401.000000	0.535670
1402.000000	0.532822
1403.000000	0.544127
1404.000000	0.520935
1405.000000	0.534239
1406.000000	0.514770
1407.000000	0.521923
1408.000000	0.555051
1409.000000	0.563710
1410.000000	0.562996
1411.000000	0.565974
1412.000000	0.558979
1413.000000	0.578563
1414.000000	0.585198
1415.000000	0.589598
1416.000000	0.571689
1417.000000	0.586869
1418.000000	0.579452
1419.000000	0.581308
1420.000000	0.590014
1421.000000	0.585153
1422.000000	0.584046
1423.000000	0.591629
1424.000000	0.599593
1425.000000	0.587354
1426.000000	0.596473
1427.000000	0.593578
1428.000000	0.603170
1429.000000	0.583777
1430.000000	0.592425
1431.000000	0.606842
1432.000000	0.612049
1433.000000	0.603422
1434.000000	0.618272
1435.000000	0.605779
1436.000000	0.592339
1437.000000	0.597018
1438.000000	0.609636
1439.000000	0.596660
1440.000000	0.605689
1441.000000	0.605942
1442.000000	0.591562
1443.000000	0.611347
1444.000000	0.602933
1445.000000	0.608091
1446.000000	0.602707
1447.000000	0.615888
1448.000000	0.603851
1449.000000	0.607386
1450.000000	0.621594
1451.000000	0.620760
1452.000000	0.630573
1453.000000	0.637669
1454.000000	0.636633
1455.000000	0.614919
1456.000000	0.636274
1457.000000	0.632427
1458.000000	0.633888
1459.000000	0.634786
1460.000000	0.623885
1461.000000	0.641787
1462.000000	0.655717
1463.000000	0.623863
1464.000000	0.615602
1465.000000	0.612639
1466.000000	0.630541
1467.000000	0.619419
1468.000000	0.618502
1469.000000	0.604536
1470.000000	0.605957
1471.000000	0.615038
1472.000000	0.623685
1473.000000	0.627049
1474.000000	0.612890
1475.000000	0.625598
1476.000000	0.618788
1477.000000	0.628040
1478.000000	0.620558
1479.000000	0.624652
1480.000000	0.623220
1481.000000	0.634438
1482.000000	0.638138
1483.000000	0.613436
1484.000000	0.609931
1485.000000	0.612148
1486.000000	0.617679
1487.000000	0.620844
1488.000000	0.618153
1489.000000	0.620019
1490.000000	0.615157
1491.000000	0.628196
1492.000000	0.624815
1493.000000	0.620953
1494.000000	0.639437
1495.000000	0.642969
1496.000000	0.637050
1497.000000	0.634081
1498.000000	0.639225
1499.000000	0.632625
1500.000000	0.631213
1501.000000	0.625552
1502.000000	0.632963
1503.000000	0.633261
1504.000000	0.626118
1505.000000	0.612170
1506.000000	0.602245
1507.000000	0.614329
1508.000000	0.617540
1509.000000	0.615241
1510.000000	0.609142
1511.000000	0.620014
1512.000000	0.617509
1513.000000	0.619427
1514.000000	0.618041
1515.000000	0.609358
1516.000000	0.610451
1517.000000	0.620538
1518.000000	0.612415
1519.000000	0.606377
1520.000000	0.603952
1521.000000	0.604940
1522.000000	0.607436
1523.000000	0.604231
1524.000000	0.598394
1525.000000	0.608213
1526.000000	0.608786
1527.000000	0.618833
1528.000000	0.623860
1529.000000	0.613563
1530.000000	0.612577
1531.000000	0.600224
1532.000000	0.602168
1533.000000	0.595698
1534.000000	0.601292
1535.000000	0.605186
1536.000000	0.602982
1537.000000	0.607085
1538.000000	0.603744
1539.000000	0.592714
1540.000000	0.590097
1541.000000	0.587557
1542.000000	0.586621
1543.000000	0.586259
1544.000000	0.583863
1545.000000	0.589071
1546.000000	0.590271
1547.000000	0.581734
1548.000000	0.572939
1549.000000	0.571010
1550.000000	0.581770
1551.000000	0.576130
1552.000000	0.573703
1553.000000	0.579864
1554.000000	0.578910
1555.000000	0.588005
1556.000000	0.587734
1557.000000	0.582662
1558.000000	0.590155
1559.000000	0.600114
1560.000000	0.587310
1561.000000	0.568449
1562.000000	0.573941
1563.000000	0.578785
1564.000000	0.576413
1565.000000	0.576301
1566.000000	0.574551
1567.000000	0.579594
1568.000000	0.584827
1569.000000	0.576865
1570.000000	0.568439
1571.000000	0.566526
1572.000000	0.564764
1573.000000	0.568807
1574.000000	0.575596
1575.000000	0.579836
1576.000000	0.584915
1577.000000	0.583589
1578.000000	0.575737
1579.000000	0.570133
1580.000000	0.571560
1581.000000	0.572645
1582.000000	0.572918
1583.000000	0.573836
1584.000000	0.573878
1585.000000	0.569367
1586.000000	0.577462
1587.000000	0.577948
1588.000000	0.569266
1589.000000	0.571339
1590.000000	0.566119
1591.000000	0.565837
1592.000000	0.571557
1593.000000	0.569859
1594.000000	0.555504
1595.000000	0.558751
1596.000000	0.561444
1597.000000	0.555616
1598.000000	0.557640
1599.000000	0.559021
1600.000000	0.551257
1601.000000	0.546037
1602.000000	0.542225
1603.000000	0.539363
1604.000000	0.538875
1605.000000	0.546741
1606.000000	0.540170
1607.000000	0.550253
1608.000000	0.544145
1609.000000	0.534630
1610.000000	0.533589
1611.000000	0.527859
1612.000000	0.524494
1613.000000	0.518656
1614.000000	0.516224
1615.000000	0.514742
1616.000000	0.527966
1617.000000	0.531636
1618.000000	0.530565
1619.000000	0.519510
1620.000000	0.523749
1621.000000	0.532416
1622.000000	0.533559
1623.000000	0.535778
1624.000000	0.529114
1625.000000	0.533068
1626.000000	0.522301
1627.000000	0.518749
1628.000000	0.523900
1629.000000	0.519147
1630.000000	0.510605
1631.000000	0.510359
1632.000000	0.509780
1633.000000	0.505280
1634.000000	0.506731
1635.000000	0.504750
1636.000000	0.509268
1637.000000	0.505315
1638.000000	0.507689
1639.000000	0.497845
1640.000000	0.505826
1641.000000	0.516973
1642.000000	0.512736
1643.000000	0.513934
1644.000000	0.513902
1645.000000	0.500690
1646.000000	0.513108
1647.000000	0.498761
1648.000000	0.497791
1649.000000	0.495847
1650.000000	0.499647
1651.000000	0.504431
1652.000000	0.509138
1653.000000	0.505782
1654.000000	0.496657
1655.000000	0.477506
1656.000000	0.474274
1657.000000	0.463676
1658.000000	0.478057
1659.000000	0.481352
1660.000000	0.486781
1661.000000	0.488708
1662.000000	0.478687
1663.000000	0.494427
1664.000000	0.478769
1665.000000	0.473197
1666.000000	0.485126
1667.000000	0.492629
1668.000000	0.471260
1669.000000	0.473147
1670.000000	0.464829
1671.000000	0.466932
1672.000000	0.475772
1673.000000	0.479462
1674.000000	0.467084
1675.000000	0.459468
1676.000000	0.459965
1677.000000	0.461204
1678.000000	0.463787
1679.000000	0.450919
1680.000000	0.461623
1681.000000	0.472894
1682.000000	0.463111
1683.000000	0.456392
1684.000000	0.455936
1685.000000	0.464876
1686.000000	0.473709
1687.000000	0.458555
1688.000000	0.462770
1689.000000	0.468223
1690.000000	0.472811
1691.000000	0.465163
1692.000000	0.447366
1693.000000	0.458387
1694.000000	0.432087
1695.000000	0.451806
1696.000000	0.435402
1697.000000	0.445490
1698.000000	0.439614
1699.000000	0.436392
1700.000000	0.424248
1701.000000	0.435128
1702.000000	0.410799
1703.000000	0.412552
1704.000000	0.420437
1705.000000	0.426494
1706.000000	0.405176
1707.000000	0.413373
1708.000000	0.410243
1709.000000	0.414211
1710.000000	0.407129
1711.000000	0.410807
1712.000000	0.405055
1713.000000	0.398816
1714.000000	0.410647
1715.000000	0.411315
1716.000000	0.417469
1717.000000	0.402360
1718.000000	0.408851
1719.000000	0.394706
1720.000000	0.408290
1721.000000	0.388267
1722.000000	0.408570
1723.000000	0.409995
1724.000000	0.411219
1725.000000	0.418024
1726.000000	0.422880
1727.000000	0.413482
1728.000000	0.409256
1729.000000	0.414856
1730.000000	0.434520
1731.000000	0.436911
1732.000000	0.431800
1733.000000	0.432256
1734.000000	0.450452
1735.000000	0.446421
1736.000000	0.447702
1737.000000	0.440422
1738.000000	0.450933
1739.000000	0.461206
1740.000000	0.450741
1741.000000	0.441908
1742.000000	0.428856
1743.000000	0.430376
1744.000000	0.432262
1745.000000	0.434539
1746.000000	0.426566
1747.000000	0.439602
1748.000000	0.435136
1749.000000	0.431367
1750.000000	0.429232
1751.000000	0.422568
1752.000000	0.410040
1753.000000	0.408920
1754.000000	0.419088
1755.000000	0.423576
1756.000000	0.423807
1757.000000	0.421285
1758.000000	0.416376
1759.000000	0.409325
1760.000000	0.415232
1761.000000	0.422334
1762.000000	0.409569
1763.000000	0.410511
1764.000000	0.411858
1765.000000	0.418611
1766.000000	0.418928
1767.000000	0.426914
1768.000000	0.422806
1769.000000	0.413610
1770.000000	0.420266
1771.000000	0.427394
1772.000000	0.425126
1773.000000	0.408044
1774.000000	0.403191
1775.000000	0.405363
1776.000000	0.411449
1777.000000	0.423244
1778.000000	0.427212
1779.000000	0.420888
1780.000000	0.420976
1781.000000	0.423280
1782.000000	0.431168
1783.000000	0.424675
1784.000000	0.418079
1785.000000	0.427591
1786.000000	0.426055
1787.000000	0.431131
1788.000000	0.425246
1789.000000	0.417085
1790.000000	0.416808
1791.000000	0.422368
1792.000000	0.426541
1793.000000	0.440183
1794.000000	0.437301
1795.000000	0.425049
1796.000000	0.422228
1797.000000	0.423249
1798.000000	0.419433
1799.000000	0.411065
1800.000000	0.417973
1801.000000	0.415634
1802.000000	0.396330
1803.000000	0.401620
1804.000000	0.408463
1805.000000	0.413864
1806.000000	0.410267
1807.000000	0.407205
1808.000000	0.398778
1809.000000	0.398920
1810.000000	0.398195
1811.000000	0.383796
1812.000000	0.376716
1813.000000	0.382305
1814.000000	0.382380
1815.000000	0.386881
1816.000000	0.373440
1817.000000	0.351562
1818.000000	0.339664
1819.000000	0.330452
1820.000000	0.340230
1821.000000	0.346932
1822.000000	0.353904
1823.000000	0.366837
1824.000000	0.355324
1825.000000	0.345200
1826.000000	0.340939
1827.000000	0.320043
1828.000000	0.301044
1829.000000	0.306848
1830.000000	0.323730
1831.000000	0.318846
1832.000000	0.302855
1833.000000	0.304663
1834.000000	0.301726
1835.000000	0.286588
1836.000000	0.260887
1837.000000	0.234409
1838.000000	0.224791
1839.000000	0.246441
1840.000000	0.254494
1841.000000	0.256781
1842.000000	0.264196
1843.000000	0.257993
1844.000000	0.255677
1845.000000	0.245608
1846.000000	0.235388
1847.000000	0.236787
1848.000000	0.233642
1849.000000	0.234477
1850.000000	0.256331
1851.000000	0.266874
1852.000000	0.247805
1853.000000	0.245959
1854.000000	0.248258
1855.000000	0.237566
1856.000000	0.238414
1857.000000	0.227793
1858.000000	0.206618
1859.000000	0.217138
1860.000000	0.229383
1861.000000	0.231003
1862.000000	0.238625
1863.000000	0.242760
1864.000000	0.250576
1865.000000	0.233113
1866.000000	0.188301
1867.000000	0.181717
1868.000000	0.150617
1869.000000	0.116408
1870.000000	0.123089
1871.000000	0.110601
1872.000000	0.104928
1873.000000	0.117784
1874.000000	0.126875
1875.000000	0.144003
1876.000000	0.170496
1877.000000	0.201704
1878.000000	0.207039
1879.000000	0.205286
1880.000000	0.216920
1881.000000	0.221644
1882.000000	0.219196
1883.000000	0.226840
1884.000000	0.217454
1885.000000	0.210458
1886.000000	0.215729
1887.000000	0.202190
1888.000000	0.194189
1889.000000	0.199148
1890.000000	0.192075
1891.000000	0.188173
1892.000000	0.202071
1893.000000	0.204584
1894.000000	0.201742
1895.000000	0.197726
1896.000000	0.202437
1897.000000	0.194536
1898.000000	0.172522
1899.000000	0.161980
1900.000000	0.152858
1901.000000	0.132458
1902.000000	0.154202
1903.000000	0.148870
1904.000000	0.116797
1905.000000	0.138278
1906.000000	0.153792
1907.000000	0.158779
1908.000000	0.181105
1909.000000	0.177465
1910.000000	0.173857
1911.000000	0.169458
1912.000000	0.159238
1913.000000	0.166701
1914.000000	0.177982
1915.000000	0.173316
1916.000000	0.176739
1917.000000	0.179706
1918.000000	0.167015
1919.000000	0.169966
1920.000000	0.177855
1921.000000	0.178778
1922.000000	0.162414
1923.000000	0.167574
1924.000000	0.187102
1925.000000	0.175603
1926.000000	0.197018
1927.000000	0.188280
1928.000000	0.196667
1929.000000	0.180829
1930.000000	0.200538
1931.000000	0.207058
1932.000000	0.204029
1933.000000	0.216791
1934.000000	0.212562
1935.000000	0.207180
1936.000000	0.221269
1937.000000	0.224018
1938.000000	0.218470
1939.000000	0.223525
1940.000000	0.222355
1941.000000	0.222766
1942.000000	0.223745
1943.000000	0.245071
1944.000000	0.260507
1945.000000	0.250351
1946.000000	0.250216
1947.000000	0.253452
1948.000000	0.250223
1949.000000	0.255151
1950.000000	0.244565
1951.000000	0.237723
1952.000000	0.258054
1953.000000	0.242056
1954.000000	0.238375
1955.000000	0.256110
1956.000000	0.255369
1957.000000	0.247367
1958.000000	0.268738
1959.000000	0.256321
1960.000000	0.235128
1961.000000	0.232079
1962.000000	0.244981
1963.000000	0.254591
1964.000000	0.252569
1965.000000	0.252714
1966.000000	0.248759
1967.000000	0.237846
1968.000000	0.236598
1969.000000	0.227893
1970.000000	0.243556
1971.000000	0.243904
1972.000000	0.236283
1973.000000	0.225502
1974.000000	0.240077
1975.000000	0.235351
1976.000000	0.235813
1977.000000	0.233459
1978.000000	0.216904
1979.000000	0.205593
1980.000000	0.212629
1981.000000	0.223536
1982.000000	0.224110
1983.000000	0.203494
1984.000000	0.201964
1985.000000	0.198464
1986.000000	0.208630
1987.000000	0.195256
1988.000000	0.205392
1989.000000	0.181099
1990.000000	0.197023
1991.000000	0.180644
1992.000000	0.181568
1993.000000	0.184621
1994.000000	0.180060
1995.000000	0.177362
1996.000000	0.176500
1997.000000	0.181552
1998.000000	0.160013
1999.000000	0.155793
2000.000000	0.154796
2001.000000	0.150816
2002.000000	0.129160
2003.000000	0.129457
2004.000000	0.129269
2005.000000	0.117533
2006.000000	0.128038
2007.000000	0.129936
2008.000000	0.135935
2009.000000	0.134481
2010.000000	0.133619
2011.000000	0.126439
2012.000000	0.138570
2013.000000	0.125090
2014.000000	0.120609
2015.000000	0.110878
2016.000000	0.110767
2017.000000	0.110879
2018.000000	0.091980
2019.000000	0.105742
2020.000000	0.103383
2021.000000	0.096522
2022.000000	0.096049
2023.000000	0.092473
2024.000000	0.099658
2025.000000	0.088605
2026.000000	0.087062
2027.000000	0.077680
2028.000000	0.090309
2029.000000	0.099960
2030.000000	0.083780
2031.000000	0.083548
2032.000000	0.068470
2033.000000	0.080160
2034.000000	0.098884
2035.000000	0.087583
2036.000000	0.074025
2037.000000	0.066566
2038.000000	0.064057
2039.000000	0.057630
2040.000000	0.057426
2041.000000	0.060769
2042.000000	0.067265
2043.000000	0.064417
2044.000000	0.057072
2045.000000	0.064139
2046.000000	0.062257
2047.000000	0.060823
2048.000000	0.055310
2049.000000	0.055116
2050.000000	0.049236
2051.000000	0.046415
2052.000000	0.050031
2053.000000	0.062311
2054.000000	0.047462
2055.000000	0.049230
2056.000000	0.055561
2057.000000	0.052374
2058.000000	0.033842
2059.000000	0.048777
2060.000000	0.044789
2061.000000	0.034210
2062.000000	0.032339
2063.000000	0.032792
2064.000000	0.030807
2065.000000	0.030995
2066.000000	0.021452
2067.000000	0.024673
2068.000000	0.023848
2069.000000	0.019523
2070.000000	0.022815
2071.000000	0.017970
2072.000000	0.018766
2073.000000	0.014368
2074.000000	0.014126
2075.000000	0.010868
2076.000000	0.012941
2077.000000	0.019037
2078.000000	0.007915
2079.000000	0.006074
2080.000000	0.003937
2081.000000	0.009016
2082.000000	0.007620
2083.000000	0.011415
2084.000000	0.004055
2085.000000	0.022619
2086.000000	0.023007
2087.000000	0.022327
2088.000000	0.027723
2089.000000	0.019688
2090.000000	0.020802
2091.000000	0.009412
2092.000000	0.014420
2093.000000	0.027905
2094.000000	0.023816
2095.000000	0.020063
2096.000000	0.022336
2097.000000	0.026559
2098.000000	0.023799
2099.000000	0.028845
2100.000000	0.039544
2101.000000	0.031852
2102.000000	0.033805
2103.000000	0.039814
2104.000000	0.027129
2105.000000	0.032004
2106.000000	0.049994
2107.000000	0.045900
2108.000000	0.039231
2109.000000	0.046735
2110.000000	0.049653
2111.000000	0.056424
2112.000000	0.052948
2113.000000	0.039180
2114.000000	0.027602
2115.000000	0.039666
2116.000000	0.052297
2117.000000	0.047579
2118.000000	0.050266
2119.000000	0.059037
2120.000000	0.059114
2121.000000	0.055225
2122.000000	0.058486
2123.000000	0.069251
2124.000000	0.075954
2125.000000	0.057315
2126.000000	0.063302
2127.000000	0.072378
2128.000000	0.077341
2129.000000	0.078608
2130.000000	0.077481
2131.000000	0.064979
2132.000000	0.062215
2133.000000	0.065103
2134.000000	0.068621
2135.000000	0.073674
2136.000000	0.063034
2137.000000	0.071510
2138.000000	0.089136
2139.000000	0.083831
2140.000000	0.077499
2141.000000	0.062961
2142.000000	0.066670
2143.000000	0.075620
2144.000000	0.074023
2145.000000	0.067662
2146.000000	0.065946
2147.000000	0.057222
2148.000000	0.059338
2149.000000	0.061877
2150.000000	0.046471
2151.000000	0.057062
2152.000000	0.058788
2153.000000	0.065339
2154.000000	0.067906
2155.000000	0.055276
2156.000000	0.063262
2157.000000	0.066686
2158.000000	0.058056
2159.000000	0.046079
2160.000000	0.044814
2161.000000	0.052212
2162.000000	0.052525
2163.000000	0.051180
2164.000000	0.046832
2165.000000	0.048277
2166.000000	0.050121
2167.000000	0.032866
2168.000000	0.050126
2169.000000	0.045451
2170.000000	0.033915
2171.000000	0.042837
2172.000000	0.041840
2173.000000	0.040849
2174.000000	0.039672
2175.000000	0.043950
2176.000000	0.039522
2177.000000	0.044337
2178.000000	0.045082
2179.000000	0.039359
2180.000000	0.034468
2181.000000	0.041680
2182.000000	0.021820
2183.000000	0.027778
2184.000000	0.031050
2185.000000	0.033724
2186.000000	0.040098
2187.000000	0.037757
2188.000000	0.039174
2189.000000	0.029938
2190.000000	0.038652
2191.000000	0.027696
2192.000000	0.033411
2193.000000	0.024155
2194.000000	0.026894
2195.000000	0.026133
2196.000000	0.034543
2197.000000	0.020954
2198.000000	0.033661
2199.000000	0.028610
2200.000000	0.022814
2201.000000	0.023043
2202.000000	0.031235
2203.000000	0.026063
2204.000000	0.019558
2205.000000	0.034764
2206.000000	0.021485
2207.000000	0.032333
2208.000000	0.038622
2209.000000	0.035549
2210.000000	0.026780
2211.000000	0.035560
2212.000000	0.030952
2213.000000	0.031936
2214.000000	0.021235
2215.000000	0.052025
2216.000000	0.034766
2217.000000	0.038816
2218.000000	0.020372
2219.000000	0.029642
2220.000000	0.043059
2221.000000	0.044045
2222.000000	0.039558
2223.000000	0.031661
2224.000000	0.029478
2225.000000	0.041249
2226.000000	0.031655
2227.000000	0.045019
2228.000000	0.043665
2229.000000	0.051151
2230.000000	0.039851
2231.000000	0.046396
2232.000000	0.050779
2233.000000	0.044631
2234.000000	0.045481
2235.000000	0.048493
2236.000000	0.042802
2237.000000	0.048606
2238.000000	0.045990
2239.000000	0.049864
2240.000000	0.034800
2241.000000	0.041658
2242.000000	0.047271
2243.000000	0.045608
2244.000000	0.054382
2245.000000	0.043787
2246.000000	0.040677
2247.000000	0.043937
2248.000000	0.037629
2249.000000	0.041108
2250.000000	0.045103
2251.000000	0.041213
2252.000000	0.038221
2253.000000	0.051655
2254.000000	0.046459
2255.000000	0.030246
2256.000000	0.034711
2257.000000	0.048672
2258.000000	0.044136
2259.000000	0.020538
2260.000000	0.027346
2261.000000	0.041298
2262.000000	0.020774
2263.000000	0.039909
2264.000000	0.032882
2265.000000	0.039725
2266.000000	0.036373
2267.000000	0.029709
2268.000000	0.025422
2269.000000	0.016816
2270.000000	0.024305
2271.000000	0.031713
2272.000000	0.028750
2273.000000	0.021452
2274.000000	0.017538
2275.000000	0.025343
2276.000000	0.022902
2277.000000	0.030390
2278.000000	0.030231
2279.000000	0.025012
2280.000000	0.021595
2281.000000	0.017147
2282.000000	0.015797
2283.000000	0.020222
2284.000000	0.031844
2285.000000	0.021623
2286.000000	0.018306
2287.000000	0.017711
2288.000000	0.028929
2289.000000	0.021261
2290.000000	0.027784
2291.000000	0.027209
2292.000000	0.028500
2293.000000	0.031577
2294.000000	0.022904
2295.000000	0.022533
2296.000000	0.013355
2297.000000	0.014771
2298.000000	0.018660
2299.000000	0.040823
2300.000000	0.043579
2301.000000	0.028133
2302.000000	0.028349
2303.000000	0.024580
2304.000000	0.028519
2305.000000	0.029654
2306.000000	0.011039
2307.000000	0.019768
2308.000000	0.017229
2309.000000	0.021179
2310.000000	0.037467
2311.000000	0.033362
2312.000000	0.032552
2313.000000	0.039322
2314.000000	0.018995
2315.000000	0.021353
2316.000000	0.036061
2317.000000	0.027424
2318.000000	0.026792
2319.000000	0.037543
2320.000000	0.028631
2321.000000	0.039841
2322.000000	0.043165
2323.000000	0.043195
2324.000000	0.042476
2325.000000	0.047917
2326.000000	0.048250
2327.000000	0.041700
2328.000000	0.040029
2329.000000	0.046817
2330.000000	0.051176
2331.000000	0.045485
2332.000000	0.040451
2333.000000	0.033629
2334.000000	0.035509
2335.000000	0.034487
2336.000000	0.034207
2337.000000	0.029120
2338.000000	0.031082
2339.000000	0.035171
2340.000000	0.032284
2341.000000	0.027324
2342.000000	0.017850
2343.000000	0.027067
2344.000000	0.024505
2345.000000	0.030578
2346.000000	0.032404
2347.000000	0.027420
2348.000000	0.027719
2349.000000	0.033965
2350.000000	0.036275
2351.000000	0.038948
2352.000000	0.044153
2353.000000	0.040524
2354.000000	0.042406
2355.000000	0.049019
2356.000000	0.049985
2357.000000	0.045488
2358.000000	0.044071
2359.000000	0.046196
2360.000000	0.051691
2361.000000	0.056061
2362.000000	0.055973
2363.000000	0.045616
2364.000000	0.038245
2365.000000	0.035210
2366.000000	0.043204
2367.000000	0.052667
2368.000000	0.051546
2369.000000	0.052169
2370.000000	0.050972
2371.000000	0.039495
2372.000000	0.041206
2373.000000	0.043148
2374.000000	0.042706
2375.000000	0.052172
2376.000000	0.050584
2377.000000	0.046964
2378.000000	0.030791
2379.000000	0.036277
2380.000000	0.044120
2381.000000	0.037294
2382.000000	0.048343
2383.000000	0.055016
2384.000000	0.064949
2385.000000	0.065127
2386.000000	0.051915
2387.000000	0.046885
2388.000000	0.049335
2389.000000	0.054413
2390.000000	0.057276
2391.000000	0.053418
2392.000000	0.050372
2393.000000	0.046491
2394.000000	0.051906
2395.000000	0.054030
2396.000000	0.047913
2397.000000	0.056066
2398.000000	0.060832
2399.000000	0.065714
2400.000000	0.055824
2401.000000	0.058769
2402.000000	0.063150
2403.000000	0.063654
2404.000000	0.065709
2405.000000	0.062380
2406.000000	0.060966
2407.000000	0.065502
2408.000000	0.065505
2409.000000	0.064308
2410.000000	0.079053
2411.000000	0.081050
2412.000000	0.067983
2413.000000	0.071418
2414.000000	0.069147
2415.000000	0.070262
2416.000000	0.072433
2417.000000	0.068903
2418.000000	0.074871
2419.000000	0.086435
2420.000000	0.077844
2421.000000	0.090090
2422.000000	0.088653
2423.000000	0.077558
2424.000000	0.075557
2425.000000	0.088435
2426.000000	0.081696
2427.000000	0.077731
2428.000000	0.067909
2429.000000	0.075192
2430.000000	0.091099
2431.000000	0.087281
2432.000000	0.057617
2433.000000	0.065915
2434.000000	0.075620
2435.000000	0.074934
2436.000000	0.073173
2437.000000	0.081512
2438.000000	0.078161
2439.000000	0.062049
2440.000000	0.066003
2441.000000	0.067495
2442.000000	0.068234
2443.000000	0.068278
2444.000000	0.074876
2445.000000	0.073232
2446.000000	0.059880
2447.000000	0.054031
2448.000000	0.066131
2449.000000	0.062359
2450.000000	0.058344
2451.000000	0.064094
2452.000000	0.053655
2453.000000	0.077702
2454.000000	0.094461
2455.000000	0.093992
2456.000000	0.079817
2457.000000	0.069965
2458.000000	0.067101
2459.000000	0.046923
2460.000000	0.066362
2461.000000	0.063080
2462.000000	0.072233
2463.000000	0.058372
2464.000000	0.060612
2465.000000	0.074514
2466.000000	0.084260
2467.000000	0.077241
2468.000000	0.052654
2469.000000	0.064241
2470.000000	0.092341
2471.000000	0.088787
2472.000000	0.086506
2473.000000	0.085197
2474.000000	0.048708
2475.000000	0.079963
2476.000000	0.076551
2477.000000	0.079808
2478.000000	0.076199
2479.000000	0.052296
2480.000000	0.073500
2481.000000	0.058524
2482.000000	0.034777
2483.000000	0.092453
2484.000000	0.098861
2485.000000	0.100020
2486.000000	0.110558
2487.000000	0.068631
2488.000000	0.103014
2489.000000	0.062099
2490.000000	0.065000
2491.000000	0.077649
2492.000000	0.113364
2493.000000	0.041941
2494.000000	0.100367
2495.000000	0.073327
2496.000000	0.066525
2497.000000	0.075845
2498.000000	0.113774
2499.000000	0.101199
2500.000000	0.041601
