PE UV       SUBTECH     SPECTRUM    ASCII       PEDS        4.00        
   -1
CICIMAUCR0002-3.Sample.ASC
24/05/03
15:09:39.00
24/05/03
15:09:39.00
Vinicio Soto Monge
C. kalinini
250,000000
1
Lambda 1050
1050L1511233
PerkinElmer UV WinLab 6.3.2.0749 / 2.02.05 Lambda 900 UV/VIS/NIR, Aug  7 2015 09:38:08

0
0
3350/servo 860,8/2
0
0
UV/VIS
1
1
1
DoubleDePol,CommonBeamDepol,RBeamAtt,SBeamAtt,60mm sphere, WB InGaAs Detector
0
0
0
0
Program
Program
3350/servo 860,8/2
3350/0,2 860,8/0,2
3350/0,2 860,8/0,2
0
15.00
 
 
 
0
 
860,8
319,2
860,8
Front
100
on
S:100 R:100
0
0
0
0
 
0
 
 
 
0
 
 
0
0
0
0
0
 
 
 
 
0
0


0
0
#HDR
-1
-1
#GR
nm
%R
1.0
0.0
2500,000000
-1,000000
2251
8
99,074100
5,519500
#DATA
250.000000	6.254600
251.000000	6.232267
252.000000	6.194733
253.000000	6.171033
254.000000	6.210633
255.000000	6.197233
256.000000	6.182600
257.000000	6.134833
258.000000	6.149800
259.000000	6.134333
260.000000	6.115133
261.000000	6.095433
262.000000	6.065867
263.000000	6.043200
264.000000	6.011500
265.000000	5.978733
266.000000	5.991633
267.000000	5.917767
268.000000	5.889333
269.000000	5.900967
270.000000	5.905667
271.000000	5.843733
272.000000	5.865033
273.000000	5.824467
274.000000	5.814700
275.000000	5.799300
276.000000	5.796033
277.000000	5.794800
278.000000	5.781367
279.000000	5.768667
280.000000	5.754000
281.000000	5.767900
282.000000	5.756700
283.000000	5.747833
284.000000	5.742833
285.000000	5.741900
286.000000	5.723733
287.000000	5.708067
288.000000	5.738533
289.000000	5.725267
290.000000	5.693300
291.000000	5.702533
292.000000	5.688633
293.000000	5.704467
294.000000	5.711600
295.000000	5.690700
296.000000	5.694700
297.000000	5.687400
298.000000	5.665233
299.000000	5.670533
300.000000	5.666833
301.000000	5.622833
302.000000	5.670567
303.000000	5.686900
304.000000	5.678733
305.000000	5.658233
306.000000	5.671800
307.000000	5.676900
308.000000	5.644433
309.000000	5.655000
310.000000	5.693600
311.000000	5.648667
312.000000	5.655567
313.000000	5.644567
314.000000	5.664633
315.000000	5.630667
316.000000	5.654833
317.000000	5.879700
318.000000	5.855267
319.000000	6.096267
320.000000	5.869433
321.000000	5.805667
322.000000	5.951600
323.000000	5.881167
324.000000	5.666500
325.000000	5.579000
326.000000	5.782767
327.000000	5.779033
328.000000	5.733100
329.000000	5.718200
330.000000	5.605800
331.000000	5.683767
332.000000	5.819800
333.000000	5.878433
334.000000	5.802433
335.000000	5.818433
336.000000	5.886567
337.000000	5.833300
338.000000	5.753833
339.000000	5.826267
340.000000	5.690567
341.000000	5.803867
342.000000	5.894800
343.000000	5.732100
344.000000	5.781233
345.000000	5.812133
346.000000	5.820267
347.000000	5.858233
348.000000	5.886167
349.000000	5.899667
350.000000	5.957933
351.000000	5.993800
352.000000	5.968700
353.000000	5.970467
354.000000	5.983267
355.000000	6.030567
356.000000	5.985133
357.000000	6.012867
358.000000	6.017000
359.000000	6.023967
360.000000	6.133633
361.000000	6.076867
362.000000	6.062967
363.000000	6.077967
364.000000	6.086000
365.000000	6.112500
366.000000	6.239500
367.000000	6.206700
368.000000	6.140600
369.000000	6.227800
370.000000	6.215800
371.000000	6.242533
372.000000	6.246300
373.000000	6.120667
374.000000	6.219067
375.000000	6.352400
376.000000	6.445033
377.000000	6.456167
378.000000	6.488967
379.000000	6.520533
380.000000	6.564900
381.000000	6.608600
382.000000	6.647233
383.000000	6.689000
384.000000	6.740367
385.000000	6.796133
386.000000	6.854800
387.000000	6.912567
388.000000	6.982067
389.000000	7.058900
390.000000	7.137233
391.000000	7.223067
392.000000	7.331033
393.000000	7.434233
394.000000	7.535000
395.000000	7.638333
396.000000	7.761867
397.000000	7.895667
398.000000	8.039267
399.000000	8.186233
400.000000	8.359300
401.000000	8.527800
402.000000	8.730400
403.000000	8.934167
404.000000	9.136033
405.000000	9.373800
406.000000	9.610600
407.000000	9.863900
408.000000	10.138300
409.000000	10.423100
410.000000	10.733700
411.000000	11.056933
412.000000	11.384233
413.000000	11.736667
414.000000	12.108800
415.000000	12.489667
416.000000	12.875500
417.000000	13.277233
418.000000	13.695167
419.000000	14.120500
420.000000	14.561200
421.000000	15.014100
422.000000	15.464900
423.000000	15.922400
424.000000	16.384967
425.000000	16.851233
426.000000	17.320800
427.000000	17.778733
428.000000	18.245333
429.000000	18.712200
430.000000	19.170700
431.000000	19.630833
432.000000	20.086333
433.000000	20.518367
434.000000	20.948533
435.000000	21.376400
436.000000	21.785733
437.000000	22.188433
438.000000	22.585800
439.000000	22.971933
440.000000	23.347267
441.000000	23.710100
442.000000	24.068400
443.000000	24.432767
444.000000	24.759967
445.000000	25.072800
446.000000	25.388233
447.000000	25.681000
448.000000	25.964567
449.000000	26.244633
450.000000	26.495167
451.000000	26.742633
452.000000	26.994000
453.000000	27.216400
454.000000	27.436900
455.000000	27.636500
456.000000	27.820333
457.000000	27.976867
458.000000	28.143233
459.000000	28.301033
460.000000	28.421000
461.000000	28.550800
462.000000	28.648433
463.000000	28.751000
464.000000	28.832233
465.000000	28.892367
466.000000	28.953500
467.000000	28.993733
468.000000	29.024933
469.000000	29.044200
470.000000	29.054100
471.000000	29.050100
472.000000	29.034067
473.000000	29.015933
474.000000	28.986667
475.000000	28.944233
476.000000	28.909067
477.000000	28.864033
478.000000	28.802667
479.000000	28.765700
480.000000	28.724700
481.000000	28.680967
482.000000	28.629900
483.000000	28.594533
484.000000	28.556700
485.000000	28.536733
486.000000	28.530067
487.000000	28.545633
488.000000	28.597533
489.000000	28.682233
490.000000	28.802000
491.000000	28.969933
492.000000	29.209233
493.000000	29.495200
494.000000	29.847700
495.000000	30.264433
496.000000	30.719100
497.000000	31.221833
498.000000	31.782100
499.000000	32.395933
500.000000	33.084967
501.000000	33.825433
502.000000	34.611900
503.000000	35.397833
504.000000	36.242167
505.000000	37.073300
506.000000	37.908567
507.000000	38.769300
508.000000	39.626233
509.000000	40.492200
510.000000	41.334667
511.000000	42.161933
512.000000	42.970667
513.000000	43.773700
514.000000	44.553067
515.000000	45.352633
516.000000	46.125833
517.000000	46.901567
518.000000	47.677633
519.000000	48.424467
520.000000	49.173433
521.000000	49.916800
522.000000	50.648500
523.000000	51.364633
524.000000	52.093000
525.000000	52.794567
526.000000	53.467967
527.000000	54.133633
528.000000	54.770500
529.000000	55.414133
530.000000	56.040433
531.000000	56.690967
532.000000	57.317467
533.000000	57.955133
534.000000	58.601667
535.000000	59.244033
536.000000	59.897233
537.000000	60.538600
538.000000	61.143400
539.000000	61.780900
540.000000	62.392667
541.000000	62.995333
542.000000	63.589733
543.000000	64.186100
544.000000	64.739833
545.000000	65.270533
546.000000	65.766000
547.000000	66.250367
548.000000	66.726033
549.000000	67.133900
550.000000	67.559900
551.000000	67.956167
552.000000	68.337633
553.000000	68.693500
554.000000	69.018067
555.000000	69.321067
556.000000	69.621367
557.000000	69.885833
558.000000	70.169000
559.000000	70.417500
560.000000	70.658167
561.000000	70.885700
562.000000	71.087667
563.000000	71.253733
564.000000	71.411233
565.000000	71.553267
566.000000	71.677367
567.000000	71.808633
568.000000	71.914967
569.000000	71.981833
570.000000	72.033633
571.000000	72.080067
572.000000	72.112567
573.000000	72.056933
574.000000	72.045667
575.000000	71.995267
576.000000	71.956567
577.000000	71.878767
578.000000	71.799667
579.000000	71.710767
580.000000	71.626433
581.000000	71.520100
582.000000	71.372633
583.000000	71.246100
584.000000	71.043400
585.000000	70.884567
586.000000	70.711200
587.000000	70.474133
588.000000	70.290367
589.000000	70.056767
590.000000	69.798600
591.000000	69.518733
592.000000	69.246267
593.000000	68.939633
594.000000	68.585567
595.000000	68.206200
596.000000	67.814200
597.000000	67.385600
598.000000	66.953167
599.000000	66.481300
600.000000	66.064633
601.000000	65.609100
602.000000	65.183200
603.000000	64.742933
604.000000	64.280667
605.000000	63.881167
606.000000	63.468567
607.000000	63.123133
608.000000	62.757367
609.000000	62.426867
610.000000	62.175367
611.000000	61.920167
612.000000	61.753100
613.000000	61.559633
614.000000	61.446067
615.000000	61.377133
616.000000	61.336133
617.000000	61.307500
618.000000	61.298167
619.000000	61.288767
620.000000	61.293833
621.000000	61.296933
622.000000	61.354467
623.000000	61.349000
624.000000	61.392900
625.000000	61.419000
626.000000	61.489333
627.000000	61.508567
628.000000	61.563000
629.000000	61.626267
630.000000	61.708533
631.000000	61.754467
632.000000	61.858700
633.000000	61.925833
634.000000	62.023800
635.000000	62.116300
636.000000	62.189833
637.000000	62.300467
638.000000	62.380033
639.000000	62.455533
640.000000	62.521600
641.000000	62.573900
642.000000	62.610533
643.000000	62.655867
644.000000	62.659300
645.000000	62.680933
646.000000	62.742767
647.000000	62.787667
648.000000	62.833067
649.000000	62.938733
650.000000	63.056033
651.000000	63.239067
652.000000	63.488900
653.000000	63.813433
654.000000	64.141800
655.000000	64.550700
656.000000	65.026933
657.000000	65.493033
658.000000	65.996100
659.000000	66.575433
660.000000	67.141700
661.000000	67.744467
662.000000	68.333300
663.000000	68.935367
664.000000	69.519700
665.000000	70.096300
666.000000	70.614667
667.000000	71.093800
668.000000	71.576400
669.000000	72.027933
670.000000	72.486167
671.000000	72.904467
672.000000	73.291667
673.000000	73.732567
674.000000	74.087133
675.000000	74.467533
676.000000	74.867767
677.000000	75.319000
678.000000	75.753433
679.000000	76.208100
680.000000	76.655633
681.000000	77.167833
682.000000	77.684167
683.000000	78.258900
684.000000	78.784300
685.000000	79.317433
686.000000	79.864467
687.000000	80.400267
688.000000	80.881433
689.000000	81.417433
690.000000	81.931600
691.000000	82.405533
692.000000	82.905367
693.000000	83.394867
694.000000	83.844967
695.000000	84.297400
696.000000	84.766767
697.000000	85.222900
698.000000	85.713233
699.000000	86.120000
700.000000	86.579167
701.000000	87.058300
702.000000	87.551867
703.000000	88.062733
704.000000	88.591967
705.000000	89.085600
706.000000	89.590000
707.000000	90.043900
708.000000	90.498433
709.000000	90.962833
710.000000	91.375300
711.000000	91.783900
712.000000	92.181933
713.000000	92.556667
714.000000	92.867900
715.000000	93.195100
716.000000	93.513500
717.000000	93.820433
718.000000	94.046767
719.000000	94.244767
720.000000	94.549733
721.000000	94.833267
722.000000	95.050833
723.000000	95.286800
724.000000	95.518100
725.000000	95.709300
726.000000	95.908200
727.000000	96.119633
728.000000	96.341300
729.000000	96.518367
730.000000	96.689033
731.000000	96.889633
732.000000	97.124867
733.000000	97.354633
734.000000	97.500433
735.000000	97.681267
736.000000	97.896367
737.000000	98.067467
738.000000	98.212467
739.000000	98.352767
740.000000	98.499533
741.000000	98.582900
742.000000	98.667567
743.000000	98.785800
744.000000	98.859467
745.000000	98.901667
746.000000	98.902300
747.000000	98.986967
748.000000	99.046100
749.000000	99.070000
750.000000	99.148767
751.000000	99.199633
752.000000	99.262500
753.000000	99.325367
754.000000	99.342867
755.000000	99.338067
756.000000	99.415333
757.000000	99.476100
758.000000	99.497567
759.000000	99.493667
760.000000	99.426633
761.000000	99.409467
762.000000	99.384667
763.000000	99.262767
764.000000	99.216400
765.000000	99.145833
766.000000	99.027667
767.000000	98.931800
768.000000	98.813300
769.000000	98.677667
770.000000	98.556300
771.000000	98.369967
772.000000	98.165367
773.000000	97.934067
774.000000	97.771633
775.000000	97.602600
776.000000	97.445067
777.000000	97.262433
778.000000	97.009367
779.000000	96.809433
780.000000	96.666967
781.000000	96.401133
782.000000	96.194933
783.000000	96.017900
784.000000	95.717633
785.000000	95.453833
786.000000	95.201767
787.000000	94.929700
788.000000	94.624433
789.000000	94.303200
790.000000	93.995567
791.000000	93.659467
792.000000	93.296167
793.000000	92.881733
794.000000	92.569667
795.000000	92.191200
796.000000	91.887100
797.000000	91.571133
798.000000	91.189800
799.000000	90.779600
800.000000	90.461733
801.000000	90.035167
802.000000	89.666667
803.000000	89.254267
804.000000	88.812633
805.000000	88.488400
806.000000	88.101033
807.000000	87.784433
808.000000	87.321900
809.000000	86.956300
810.000000	86.642100
811.000000	86.291367
812.000000	85.845167
813.000000	85.482067
814.000000	85.124933
815.000000	84.713433
816.000000	84.316200
817.000000	83.940400
818.000000	83.606800
819.000000	83.368467
820.000000	82.957967
821.000000	82.527833
822.000000	82.195100
823.000000	81.868900
824.000000	81.608200
825.000000	81.262367
826.000000	80.960700
827.000000	80.576067
828.000000	80.348267
829.000000	80.089300
830.000000	79.745367
831.000000	79.408100
832.000000	79.260767
833.000000	79.031167
834.000000	78.717333
835.000000	78.631300
836.000000	78.351533
837.000000	78.177700
838.000000	77.735167
839.000000	77.750433
840.000000	77.393533
841.000000	77.172533
842.000000	77.111300
843.000000	76.834067
844.000000	76.753167
845.000000	76.531967
846.000000	76.484167
847.000000	76.493967
848.000000	76.356500
849.000000	76.112200
850.000000	75.925267
851.000000	75.832067
852.000000	75.813967
853.000000	75.851800
854.000000	75.244867
855.000000	75.177533
856.000000	74.916167
857.000000	75.072633
858.000000	75.055444
859.000000	74.683071
860.000000	74.569331
861.000000	74.458578
862.000000	74.328609
863.000000	74.224629
864.000000	74.121301
865.000000	74.012252
866.000000	73.903986
867.000000	73.805100
868.000000	73.708882
869.000000	73.588890
870.000000	73.477171
871.000000	73.366120
872.000000	73.328880
873.000000	73.434209
874.000000	73.614294
875.000000	73.790600
876.000000	73.975039
877.000000	74.096423
878.000000	74.144924
879.000000	74.205715
880.000000	74.248661
881.000000	74.282838
882.000000	74.276127
883.000000	74.280477
884.000000	74.275501
885.000000	74.269637
886.000000	74.259598
887.000000	74.239349
888.000000	74.207436
889.000000	74.187363
890.000000	74.161615
891.000000	74.122709
892.000000	74.080385
893.000000	74.058311
894.000000	73.993807
895.000000	73.952139
896.000000	73.904174
897.000000	73.836145
898.000000	73.787941
899.000000	73.720580
900.000000	73.636364
901.000000	73.568921
902.000000	73.496530
903.000000	73.432207
904.000000	73.366027
905.000000	73.318636
906.000000	73.262433
907.000000	73.207268
908.000000	73.165969
909.000000	73.139659
910.000000	73.106034
911.000000	73.081409
912.000000	73.060814
913.000000	73.055609
914.000000	73.034219
915.000000	73.031644
916.000000	73.012220
917.000000	73.004502
918.000000	72.997846
919.000000	72.983244
920.000000	72.955612
921.000000	72.932551
922.000000	72.911754
923.000000	72.868038
924.000000	72.830587
925.000000	72.793215
926.000000	72.756955
927.000000	72.732284
928.000000	72.706825
929.000000	72.646775
930.000000	72.615986
931.000000	72.587999
932.000000	72.563395
933.000000	72.501418
934.000000	72.462655
935.000000	72.415351
936.000000	72.366817
937.000000	72.329330
938.000000	72.271440
939.000000	72.224197
940.000000	72.174176
941.000000	72.139635
942.000000	72.080014
943.000000	72.024403
944.000000	71.994487
945.000000	71.954194
946.000000	71.888878
947.000000	71.841415
948.000000	71.788767
949.000000	71.746343
950.000000	71.689527
951.000000	71.632819
952.000000	71.578844
953.000000	71.515755
954.000000	71.455973
955.000000	71.397010
956.000000	71.311182
957.000000	71.231368
958.000000	71.153365
959.000000	71.055273
960.000000	70.970312
961.000000	70.893754
962.000000	70.780780
963.000000	70.680909
964.000000	70.592520
965.000000	70.507236
966.000000	70.410757
967.000000	70.318722
968.000000	70.230241
969.000000	70.128460
970.000000	70.034467
971.000000	69.935543
972.000000	69.846889
973.000000	69.738073
974.000000	69.641006
975.000000	69.528324
976.000000	69.425503
977.000000	69.323469
978.000000	69.209504
979.000000	69.093813
980.000000	68.975362
981.000000	68.863818
982.000000	68.749007
983.000000	68.635751
984.000000	68.515852
985.000000	68.388095
986.000000	68.261993
987.000000	68.139629
988.000000	68.019121
989.000000	67.887822
990.000000	67.764043
991.000000	67.641913
992.000000	67.518260
993.000000	67.389685
994.000000	67.257863
995.000000	67.139638
996.000000	67.018376
997.000000	66.896147
998.000000	66.780707
999.000000	66.657236
1000.000000	66.540116
1001.000000	66.418453
1002.000000	66.295670
1003.000000	66.177791
1004.000000	66.052676
1005.000000	65.931444
1006.000000	65.814311
1007.000000	65.687934
1008.000000	65.559539
1009.000000	65.442572
1010.000000	65.328585
1011.000000	65.213255
1012.000000	65.101408
1013.000000	64.994163
1014.000000	64.908683
1015.000000	64.829787
1016.000000	64.754047
1017.000000	64.685507
1018.000000	64.625672
1019.000000	64.582384
1020.000000	64.533258
1021.000000	64.495901
1022.000000	64.457975
1023.000000	64.428995
1024.000000	64.411566
1025.000000	64.380270
1026.000000	64.357410
1027.000000	64.336802
1028.000000	64.312597
1029.000000	64.292976
1030.000000	64.270694
1031.000000	64.237723
1032.000000	64.207924
1033.000000	64.190258
1034.000000	64.167301
1035.000000	64.136641
1036.000000	64.107839
1037.000000	64.078281
1038.000000	64.045011
1039.000000	64.010493
1040.000000	63.986310
1041.000000	63.951393
1042.000000	63.910393
1043.000000	63.871584
1044.000000	63.841695
1045.000000	63.818423
1046.000000	63.792061
1047.000000	63.766304
1048.000000	63.746909
1049.000000	63.738039
1050.000000	63.722241
1051.000000	63.703817
1052.000000	63.699536
1053.000000	63.700128
1054.000000	63.703706
1055.000000	63.703927
1056.000000	63.713109
1057.000000	63.731204
1058.000000	63.751935
1059.000000	63.759413
1060.000000	63.776916
1061.000000	63.795220
1062.000000	63.805794
1063.000000	63.811492
1064.000000	63.817708
1065.000000	63.829134
1066.000000	63.851857
1067.000000	63.874529
1068.000000	63.889930
1069.000000	63.906851
1070.000000	63.922100
1071.000000	63.942032
1072.000000	63.956468
1073.000000	63.981288
1074.000000	64.005196
1075.000000	64.022199
1076.000000	64.039545
1077.000000	64.063311
1078.000000	64.087206
1079.000000	64.107479
1080.000000	64.146322
1081.000000	64.170989
1082.000000	64.210627
1083.000000	64.245076
1084.000000	64.276126
1085.000000	64.315947
1086.000000	64.350333
1087.000000	64.397899
1088.000000	64.434910
1089.000000	64.473664
1090.000000	64.506018
1091.000000	64.547738
1092.000000	64.590123
1093.000000	64.624581
1094.000000	64.663572
1095.000000	64.695157
1096.000000	64.717012
1097.000000	64.747203
1098.000000	64.772808
1099.000000	64.796752
1100.000000	64.821257
1101.000000	64.836467
1102.000000	64.856846
1103.000000	64.881638
1104.000000	64.901871
1105.000000	64.911388
1106.000000	64.921578
1107.000000	64.927023
1108.000000	64.937270
1109.000000	64.944504
1110.000000	64.954325
1111.000000	64.956157
1112.000000	64.954424
1113.000000	64.953449
1114.000000	64.964799
1115.000000	64.967060
1116.000000	64.974546
1117.000000	64.967478
1118.000000	64.957947
1119.000000	64.941562
1120.000000	64.902471
1121.000000	64.852642
1122.000000	64.794535
1123.000000	64.719129
1124.000000	64.632546
1125.000000	64.527763
1126.000000	64.422026
1127.000000	64.277471
1128.000000	64.130858
1129.000000	63.933315
1130.000000	63.694253
1131.000000	63.413168
1132.000000	63.082455
1133.000000	62.730997
1134.000000	62.355697
1135.000000	61.953004
1136.000000	61.490711
1137.000000	61.000189
1138.000000	60.513618
1139.000000	60.037227
1140.000000	59.562310
1141.000000	59.107965
1142.000000	58.681920
1143.000000	58.261549
1144.000000	57.869358
1145.000000	57.524211
1146.000000	57.248850
1147.000000	57.058901
1148.000000	56.975327
1149.000000	56.953737
1150.000000	56.967673
1151.000000	56.998935
1152.000000	57.010914
1153.000000	57.004648
1154.000000	56.947222
1155.000000	56.835301
1156.000000	56.631583
1157.000000	56.362807
1158.000000	56.030770
1159.000000	55.657028
1160.000000	55.245660
1161.000000	54.811872
1162.000000	54.380787
1163.000000	53.930254
1164.000000	53.464880
1165.000000	53.008627
1166.000000	52.534761
1167.000000	52.101489
1168.000000	51.668644
1169.000000	51.228460
1170.000000	50.813888
1171.000000	50.402094
1172.000000	49.995034
1173.000000	49.596155
1174.000000	49.217212
1175.000000	48.864900
1176.000000	48.513550
1177.000000	48.148760
1178.000000	47.761734
1179.000000	47.313407
1180.000000	46.777688
1181.000000	46.211299
1182.000000	45.637502
1183.000000	45.084793
1184.000000	44.622726
1185.000000	44.288311
1186.000000	44.110158
1187.000000	44.046836
1188.000000	44.137285
1189.000000	44.391876
1190.000000	44.747095
1191.000000	45.218069
1192.000000	45.725893
1193.000000	46.251861
1194.000000	46.715282
1195.000000	47.124149
1196.000000	47.451012
1197.000000	47.701766
1198.000000	47.886113
1199.000000	48.037467
1200.000000	48.136584
1201.000000	48.197815
1202.000000	48.227379
1203.000000	48.247455
1204.000000	48.252328
1205.000000	48.258698
1206.000000	48.272441
1207.000000	48.298826
1208.000000	48.352105
1209.000000	48.413220
1210.000000	48.498364
1211.000000	48.586906
1212.000000	48.688305
1213.000000	48.797758
1214.000000	48.917959
1215.000000	49.042534
1216.000000	49.175001
1217.000000	49.320496
1218.000000	49.479714
1219.000000	49.638353
1220.000000	49.811756
1221.000000	49.999289
1222.000000	50.201793
1223.000000	50.411886
1224.000000	50.627870
1225.000000	50.842511
1226.000000	51.077217
1227.000000	51.303114
1228.000000	51.529165
1229.000000	51.756606
1230.000000	51.991928
1231.000000	52.217584
1232.000000	52.444009
1233.000000	52.671075
1234.000000	52.898133
1235.000000	53.117862
1236.000000	53.332957
1237.000000	53.546003
1238.000000	53.757500
1239.000000	53.978794
1240.000000	54.176134
1241.000000	54.360779
1242.000000	54.548348
1243.000000	54.734842
1244.000000	54.913759
1245.000000	55.082472
1246.000000	55.250592
1247.000000	55.396147
1248.000000	55.524715
1249.000000	55.656756
1250.000000	55.769729
1251.000000	55.866600
1252.000000	55.970005
1253.000000	56.056312
1254.000000	56.130392
1255.000000	56.214586
1256.000000	56.287131
1257.000000	56.350294
1258.000000	56.415863
1259.000000	56.482361
1260.000000	56.534713
1261.000000	56.587452
1262.000000	56.645717
1263.000000	56.703714
1264.000000	56.759209
1265.000000	56.817962
1266.000000	56.878416
1267.000000	56.940959
1268.000000	57.004956
1269.000000	57.062386
1270.000000	57.118227
1271.000000	57.181827
1272.000000	57.244092
1273.000000	57.302732
1274.000000	57.359543
1275.000000	57.425256
1276.000000	57.496297
1277.000000	57.568055
1278.000000	57.646647
1279.000000	57.728033
1280.000000	57.819088
1281.000000	57.911998
1282.000000	58.003516
1283.000000	58.101061
1284.000000	58.188757
1285.000000	58.271247
1286.000000	58.359326
1287.000000	58.445103
1288.000000	58.527561
1289.000000	58.594960
1290.000000	58.656201
1291.000000	58.714838
1292.000000	58.767700
1293.000000	58.805876
1294.000000	58.833695
1295.000000	58.862323
1296.000000	58.888648
1297.000000	58.911818
1298.000000	58.930111
1299.000000	58.939684
1300.000000	58.951829
1301.000000	58.959555
1302.000000	58.961016
1303.000000	58.968395
1304.000000	58.968348
1305.000000	58.956290
1306.000000	58.931221
1307.000000	58.903486
1308.000000	58.874562
1309.000000	58.827597
1310.000000	58.773459
1311.000000	58.716745
1312.000000	58.648862
1313.000000	58.583110
1314.000000	58.512732
1315.000000	58.424910
1316.000000	58.330252
1317.000000	58.240592
1318.000000	58.145820
1319.000000	58.043132
1320.000000	57.934902
1321.000000	57.826343
1322.000000	57.703349
1323.000000	57.576392
1324.000000	57.444403
1325.000000	57.308381
1326.000000	57.161164
1327.000000	57.006039
1328.000000	56.842992
1329.000000	56.669471
1330.000000	56.484325
1331.000000	56.287969
1332.000000	56.083912
1333.000000	55.865843
1334.000000	55.638993
1335.000000	55.393208
1336.000000	55.139613
1337.000000	54.878326
1338.000000	54.588424
1339.000000	54.291232
1340.000000	53.986948
1341.000000	53.664261
1342.000000	53.316456
1343.000000	52.959549
1344.000000	52.588197
1345.000000	52.203409
1346.000000	51.773177
1347.000000	51.336636
1348.000000	50.877282
1349.000000	50.368878
1350.000000	49.848986
1351.000000	49.269857
1352.000000	48.619357
1353.000000	47.940623
1354.000000	47.297093
1355.000000	46.675522
1356.000000	46.120242
1357.000000	45.695942
1358.000000	45.426119
1359.000000	45.273429
1360.000000	45.176352
1361.000000	45.153725
1362.000000	45.081290
1363.000000	44.945992
1364.000000	44.761409
1365.000000	44.588087
1366.000000	44.383357
1367.000000	44.157254
1368.000000	43.909979
1369.000000	43.612829
1370.000000	43.274681
1371.000000	42.934769
1372.000000	42.560729
1373.000000	42.169194
1374.000000	41.794944
1375.000000	41.489202
1376.000000	41.258374
1377.000000	41.100291
1378.000000	41.005454
1379.000000	40.950682
1380.000000	40.886459
1381.000000	40.805463
1382.000000	40.668233
1383.000000	40.420272
1384.000000	40.066641
1385.000000	39.699148
1386.000000	39.321037
1387.000000	38.983226
1388.000000	38.703663
1389.000000	38.435518
1390.000000	38.179474
1391.000000	38.005727
1392.000000	37.848846
1393.000000	37.696745
1394.000000	37.571189
1395.000000	37.486456
1396.000000	37.371999
1397.000000	37.163264
1398.000000	36.932848
1399.000000	36.734833
1400.000000	36.548887
1401.000000	36.247861
1402.000000	35.853849
1403.000000	35.474548
1404.000000	35.132513
1405.000000	34.723225
1406.000000	34.353390
1407.000000	33.972553
1408.000000	33.608899
1409.000000	33.248510
1410.000000	32.920508
1411.000000	32.589169
1412.000000	32.288975
1413.000000	32.090890
1414.000000	31.885522
1415.000000	31.665740
1416.000000	31.405995
1417.000000	31.172749
1418.000000	30.946301
1419.000000	30.748633
1420.000000	30.533671
1421.000000	30.274903
1422.000000	30.041595
1423.000000	29.819955
1424.000000	29.601218
1425.000000	29.367202
1426.000000	29.144602
1427.000000	28.917448
1428.000000	28.723749
1429.000000	28.525531
1430.000000	28.352263
1431.000000	28.197656
1432.000000	28.038822
1433.000000	27.926666
1434.000000	27.782523
1435.000000	27.632044
1436.000000	27.500127
1437.000000	27.386505
1438.000000	27.271489
1439.000000	27.168976
1440.000000	27.049350
1441.000000	26.914633
1442.000000	26.785930
1443.000000	26.661717
1444.000000	26.532349
1445.000000	26.411111
1446.000000	26.296579
1447.000000	26.158414
1448.000000	26.034691
1449.000000	25.895357
1450.000000	25.804342
1451.000000	25.708908
1452.000000	25.586808
1453.000000	25.465356
1454.000000	25.364276
1455.000000	25.263092
1456.000000	25.166375
1457.000000	25.073246
1458.000000	24.974318
1459.000000	24.876124
1460.000000	24.792759
1461.000000	24.716520
1462.000000	24.641644
1463.000000	24.567071
1464.000000	24.504780
1465.000000	24.432742
1466.000000	24.384815
1467.000000	24.329424
1468.000000	24.263936
1469.000000	24.204947
1470.000000	24.171056
1471.000000	24.108594
1472.000000	24.068345
1473.000000	24.019088
1474.000000	23.955548
1475.000000	23.882485
1476.000000	23.835790
1477.000000	23.779157
1478.000000	23.742154
1479.000000	23.700288
1480.000000	23.658959
1481.000000	23.622155
1482.000000	23.588508
1483.000000	23.559687
1484.000000	23.528194
1485.000000	23.509976
1486.000000	23.492508
1487.000000	23.465377
1488.000000	23.450209
1489.000000	23.431962
1490.000000	23.430217
1491.000000	23.416387
1492.000000	23.397071
1493.000000	23.381441
1494.000000	23.372926
1495.000000	23.366471
1496.000000	23.359513
1497.000000	23.361233
1498.000000	23.361680
1499.000000	23.366116
1500.000000	23.374141
1501.000000	23.379863
1502.000000	23.403445
1503.000000	23.422282
1504.000000	23.443458
1505.000000	23.465980
1506.000000	23.489188
1507.000000	23.514462
1508.000000	23.551425
1509.000000	23.575597
1510.000000	23.607224
1511.000000	23.638851
1512.000000	23.671402
1513.000000	23.700854
1514.000000	23.722885
1515.000000	23.759002
1516.000000	23.774967
1517.000000	23.802777
1518.000000	23.825981
1519.000000	23.846647
1520.000000	23.870920
1521.000000	23.896152
1522.000000	23.920674
1523.000000	23.945990
1524.000000	23.977630
1525.000000	23.996111
1526.000000	24.017066
1527.000000	24.028497
1528.000000	24.053271
1529.000000	24.069977
1530.000000	24.088519
1531.000000	24.103847
1532.000000	24.113122
1533.000000	24.125952
1534.000000	24.141619
1535.000000	24.156820
1536.000000	24.157867
1537.000000	24.165788
1538.000000	24.168972
1539.000000	24.165998
1540.000000	24.169692
1541.000000	24.178057
1542.000000	24.180719
1543.000000	24.181977
1544.000000	24.200216
1545.000000	24.211621
1546.000000	24.224342
1547.000000	24.243829
1548.000000	24.268514
1549.000000	24.288215
1550.000000	24.300425
1551.000000	24.318562
1552.000000	24.333809
1553.000000	24.352078
1554.000000	24.361350
1555.000000	24.361209
1556.000000	24.364136
1557.000000	24.359235
1558.000000	24.348971
1559.000000	24.340103
1560.000000	24.319372
1561.000000	24.294595
1562.000000	24.270996
1563.000000	24.247176
1564.000000	24.215274
1565.000000	24.184700
1566.000000	24.151574
1567.000000	24.120434
1568.000000	24.087798
1569.000000	24.049806
1570.000000	24.015379
1571.000000	23.983828
1572.000000	23.957183
1573.000000	23.936976
1574.000000	23.918294
1575.000000	23.903978
1576.000000	23.889352
1577.000000	23.871059
1578.000000	23.865623
1579.000000	23.860443
1580.000000	23.866507
1581.000000	23.874002
1582.000000	23.885461
1583.000000	23.899516
1584.000000	23.919297
1585.000000	23.941172
1586.000000	23.955755
1587.000000	23.975595
1588.000000	24.003267
1589.000000	24.038540
1590.000000	24.070031
1591.000000	24.104141
1592.000000	24.134486
1593.000000	24.168898
1594.000000	24.214481
1595.000000	24.260179
1596.000000	24.300049
1597.000000	24.346110
1598.000000	24.398611
1599.000000	24.453001
1600.000000	24.507185
1601.000000	24.565041
1602.000000	24.627044
1603.000000	24.693317
1604.000000	24.759831
1605.000000	24.823550
1606.000000	24.885632
1607.000000	24.957132
1608.000000	25.014094
1609.000000	25.078849
1610.000000	25.140424
1611.000000	25.199358
1612.000000	25.269723
1613.000000	25.336781
1614.000000	25.401312
1615.000000	25.468098
1616.000000	25.528175
1617.000000	25.594942
1618.000000	25.677045
1619.000000	25.744750
1620.000000	25.812892
1621.000000	25.891566
1622.000000	25.964833
1623.000000	26.039939
1624.000000	26.117673
1625.000000	26.191606
1626.000000	26.271439
1627.000000	26.349425
1628.000000	26.428392
1629.000000	26.503274
1630.000000	26.580460
1631.000000	26.661400
1632.000000	26.738217
1633.000000	26.810540
1634.000000	26.883191
1635.000000	26.955475
1636.000000	27.015496
1637.000000	27.079626
1638.000000	27.142730
1639.000000	27.201793
1640.000000	27.269943
1641.000000	27.316908
1642.000000	27.373692
1643.000000	27.434189
1644.000000	27.476533
1645.000000	27.533844
1646.000000	27.580451
1647.000000	27.620493
1648.000000	27.664959
1649.000000	27.707031
1650.000000	27.736185
1651.000000	27.767333
1652.000000	27.780332
1653.000000	27.791597
1654.000000	27.802574
1655.000000	27.801817
1656.000000	27.785610
1657.000000	27.760621
1658.000000	27.744336
1659.000000	27.709118
1660.000000	27.663332
1661.000000	27.604305
1662.000000	27.529945
1663.000000	27.445312
1664.000000	27.366091
1665.000000	27.263409
1666.000000	27.156572
1667.000000	27.052582
1668.000000	26.915194
1669.000000	26.756991
1670.000000	26.600882
1671.000000	26.396607
1672.000000	26.173838
1673.000000	25.928167
1674.000000	25.657009
1675.000000	25.331809
1676.000000	24.973558
1677.000000	24.562183
1678.000000	24.111342
1679.000000	23.606674
1680.000000	23.074430
1681.000000	22.564632
1682.000000	22.091737
1683.000000	21.705825
1684.000000	21.434156
1685.000000	21.279822
1686.000000	21.200857
1687.000000	21.163052
1688.000000	21.141005
1689.000000	21.112424
1690.000000	21.037765
1691.000000	20.917600
1692.000000	20.790101
1693.000000	20.653844
1694.000000	20.539759
1695.000000	20.470397
1696.000000	20.447646
1697.000000	20.480525
1698.000000	20.536267
1699.000000	20.642070
1700.000000	20.748005
1701.000000	20.886231
1702.000000	20.989953
1703.000000	21.061429
1704.000000	21.115316
1705.000000	21.163654
1706.000000	21.190879
1707.000000	21.180779
1708.000000	21.185264
1709.000000	21.164243
1710.000000	21.140779
1711.000000	21.095884
1712.000000	21.045980
1713.000000	20.974282
1714.000000	20.875697
1715.000000	20.790218
1716.000000	20.694699
1717.000000	20.593503
1718.000000	20.498215
1719.000000	20.419337
1720.000000	20.347592
1721.000000	20.292763
1722.000000	20.238958
1723.000000	20.201278
1724.000000	20.154851
1725.000000	20.113626
1726.000000	20.048432
1727.000000	19.975143
1728.000000	19.883804
1729.000000	19.786708
1730.000000	19.685303
1731.000000	19.588449
1732.000000	19.511481
1733.000000	19.478891
1734.000000	19.482527
1735.000000	19.532029
1736.000000	19.613780
1737.000000	19.740804
1738.000000	19.928331
1739.000000	20.140762
1740.000000	20.365149
1741.000000	20.611011
1742.000000	20.846766
1743.000000	21.082877
1744.000000	21.285225
1745.000000	21.468703
1746.000000	21.629282
1747.000000	21.763989
1748.000000	21.874652
1749.000000	21.947445
1750.000000	22.024377
1751.000000	22.074006
1752.000000	22.113842
1753.000000	22.135823
1754.000000	22.144277
1755.000000	22.126217
1756.000000	22.116821
1757.000000	22.059645
1758.000000	22.000616
1759.000000	21.934594
1760.000000	21.875865
1761.000000	21.818949
1762.000000	21.771998
1763.000000	21.741796
1764.000000	21.743620
1765.000000	21.765923
1766.000000	21.820626
1767.000000	21.919361
1768.000000	22.038917
1769.000000	22.154012
1770.000000	22.292503
1771.000000	22.442625
1772.000000	22.580191
1773.000000	22.724595
1774.000000	22.873458
1775.000000	23.005651
1776.000000	23.131355
1777.000000	23.259184
1778.000000	23.366854
1779.000000	23.480452
1780.000000	23.577966
1781.000000	23.662994
1782.000000	23.734784
1783.000000	23.825261
1784.000000	23.915239
1785.000000	23.996911
1786.000000	24.064242
1787.000000	24.125851
1788.000000	24.193252
1789.000000	24.254275
1790.000000	24.314214
1791.000000	24.376911
1792.000000	24.429469
1793.000000	24.483180
1794.000000	24.531912
1795.000000	24.580173
1796.000000	24.635858
1797.000000	24.682258
1798.000000	24.716766
1799.000000	24.756074
1800.000000	24.806773
1801.000000	24.869440
1802.000000	24.913793
1803.000000	24.957820
1804.000000	24.995867
1805.000000	25.042563
1806.000000	25.090238
1807.000000	25.142880
1808.000000	25.184550
1809.000000	25.216023
1810.000000	25.266632
1811.000000	25.314776
1812.000000	25.337945
1813.000000	25.359894
1814.000000	25.381381
1815.000000	25.391611
1816.000000	25.403491
1817.000000	25.403628
1818.000000	25.403734
1819.000000	25.421631
1820.000000	25.453099
1821.000000	25.476267
1822.000000	25.492334
1823.000000	25.489250
1824.000000	25.488574
1825.000000	25.538310
1826.000000	25.611315
1827.000000	25.673231
1828.000000	25.740314
1829.000000	25.827599
1830.000000	25.912789
1831.000000	25.987180
1832.000000	26.054357
1833.000000	26.127992
1834.000000	26.211543
1835.000000	26.298451
1836.000000	26.378478
1837.000000	26.446682
1838.000000	26.511726
1839.000000	26.577050
1840.000000	26.631397
1841.000000	26.675706
1842.000000	26.719580
1843.000000	26.732885
1844.000000	26.750651
1845.000000	26.812268
1846.000000	26.877533
1847.000000	26.962968
1848.000000	27.057152
1849.000000	27.126248
1850.000000	27.182289
1851.000000	27.238099
1852.000000	27.292604
1853.000000	27.351888
1854.000000	27.433530
1855.000000	27.501784
1856.000000	27.542631
1857.000000	27.593263
1858.000000	27.626668
1859.000000	27.638061
1860.000000	27.649556
1861.000000	27.646230
1862.000000	27.625825
1863.000000	27.587989
1864.000000	27.565466
1865.000000	27.541741
1866.000000	27.510838
1867.000000	27.477460
1868.000000	27.433308
1869.000000	27.355336
1870.000000	27.220498
1871.000000	27.067167
1872.000000	26.886326
1873.000000	26.671917
1874.000000	26.426041
1875.000000	26.154205
1876.000000	25.864486
1877.000000	25.556375
1878.000000	25.237840
1879.000000	24.873811
1880.000000	24.507043
1881.000000	24.140643
1882.000000	23.741489
1883.000000	23.354360
1884.000000	22.963855
1885.000000	22.561342
1886.000000	22.198821
1887.000000	21.884052
1888.000000	21.593832
1889.000000	21.318958
1890.000000	21.047893
1891.000000	20.783925
1892.000000	20.505298
1893.000000	20.204296
1894.000000	19.926490
1895.000000	19.687699
1896.000000	19.459240
1897.000000	19.241972
1898.000000	18.990243
1899.000000	18.748014
1900.000000	18.480596
1901.000000	18.188712
1902.000000	17.916242
1903.000000	17.675047
1904.000000	17.436113
1905.000000	17.181639
1906.000000	16.927438
1907.000000	16.648163
1908.000000	16.401886
1909.000000	16.187870
1910.000000	16.005135
1911.000000	15.823647
1912.000000	15.638947
1913.000000	15.443023
1914.000000	15.208490
1915.000000	15.009782
1916.000000	14.826357
1917.000000	14.672166
1918.000000	14.521206
1919.000000	14.380723
1920.000000	14.248413
1921.000000	14.101731
1922.000000	13.952658
1923.000000	13.799856
1924.000000	13.671572
1925.000000	13.564672
1926.000000	13.464364
1927.000000	13.377664
1928.000000	13.295797
1929.000000	13.199382
1930.000000	13.127755
1931.000000	13.054203
1932.000000	12.997493
1933.000000	12.932072
1934.000000	12.893095
1935.000000	12.864154
1936.000000	12.831640
1937.000000	12.807833
1938.000000	12.806655
1939.000000	12.787541
1940.000000	12.789422
1941.000000	12.787295
1942.000000	12.797230
1943.000000	12.801776
1944.000000	12.830270
1945.000000	12.847657
1946.000000	12.883892
1947.000000	12.904393
1948.000000	12.949710
1949.000000	12.991348
1950.000000	13.035027
1951.000000	13.083251
1952.000000	13.136278
1953.000000	13.196359
1954.000000	13.247577
1955.000000	13.300870
1956.000000	13.367937
1957.000000	13.424773
1958.000000	13.475089
1959.000000	13.537904
1960.000000	13.599228
1961.000000	13.653759
1962.000000	13.699683
1963.000000	13.770343
1964.000000	13.831162
1965.000000	13.892061
1966.000000	13.945650
1967.000000	14.001403
1968.000000	14.056612
1969.000000	14.113132
1970.000000	14.172668
1971.000000	14.245153
1972.000000	14.290163
1973.000000	14.350625
1974.000000	14.424530
1975.000000	14.481048
1976.000000	14.534974
1977.000000	14.619297
1978.000000	14.666273
1979.000000	14.730018
1980.000000	14.799722
1981.000000	14.864009
1982.000000	14.935756
1983.000000	14.998416
1984.000000	15.062166
1985.000000	15.121684
1986.000000	15.189354
1987.000000	15.235083
1988.000000	15.307686
1989.000000	15.349806
1990.000000	15.408639
1991.000000	15.463791
1992.000000	15.504438
1993.000000	15.551219
1994.000000	15.593846
1995.000000	15.616095
1996.000000	15.652978
1997.000000	15.686086
1998.000000	15.710529
1999.000000	15.737313
2000.000000	15.741684
2001.000000	15.760312
2002.000000	15.762279
2003.000000	15.776855
2004.000000	15.777969
2005.000000	15.772769
2006.000000	15.752928
2007.000000	15.742166
2008.000000	15.729022
2009.000000	15.705219
2010.000000	15.674683
2011.000000	15.645015
2012.000000	15.614913
2013.000000	15.559825
2014.000000	15.523742
2015.000000	15.494382
2016.000000	15.432600
2017.000000	15.378885
2018.000000	15.331526
2019.000000	15.266555
2020.000000	15.209440
2021.000000	15.142997
2022.000000	15.071391
2023.000000	14.993799
2024.000000	14.928654
2025.000000	14.850679
2026.000000	14.763256
2027.000000	14.683453
2028.000000	14.599896
2029.000000	14.515552
2030.000000	14.425221
2031.000000	14.328521
2032.000000	14.231896
2033.000000	14.131913
2034.000000	14.022554
2035.000000	13.898817
2036.000000	13.779974
2037.000000	13.660840
2038.000000	13.540998
2039.000000	13.411765
2040.000000	13.278183
2041.000000	13.139826
2042.000000	13.000779
2043.000000	12.864457
2044.000000	12.737559
2045.000000	12.613764
2046.000000	12.489213
2047.000000	12.373441
2048.000000	12.273777
2049.000000	12.177965
2050.000000	12.091836
2051.000000	12.018876
2052.000000	11.955423
2053.000000	11.915919
2054.000000	11.876145
2055.000000	11.851721
2056.000000	11.838959
2057.000000	11.831187
2058.000000	11.828439
2059.000000	11.841331
2060.000000	11.869063
2061.000000	11.899710
2062.000000	11.924383
2063.000000	11.959236
2064.000000	11.996043
2065.000000	12.035873
2066.000000	12.078277
2067.000000	12.121218
2068.000000	12.153369
2069.000000	12.194167
2070.000000	12.231774
2071.000000	12.271432
2072.000000	12.314391
2073.000000	12.355436
2074.000000	12.393018
2075.000000	12.421814
2076.000000	12.440270
2077.000000	12.471070
2078.000000	12.510024
2079.000000	12.533185
2080.000000	12.554426
2081.000000	12.577258
2082.000000	12.598304
2083.000000	12.610863
2084.000000	12.627793
2085.000000	12.643885
2086.000000	12.659293
2087.000000	12.669048
2088.000000	12.672832
2089.000000	12.682045
2090.000000	12.696791
2091.000000	12.702357
2092.000000	12.707508
2093.000000	12.724799
2094.000000	12.734981
2095.000000	12.743527
2096.000000	12.759023
2097.000000	12.770303
2098.000000	12.781174
2099.000000	12.794372
2100.000000	12.810012
2101.000000	12.842171
2102.000000	12.864490
2103.000000	12.884380
2104.000000	12.905240
2105.000000	12.920882
2106.000000	12.944365
2107.000000	12.963601
2108.000000	12.985553
2109.000000	13.007844
2110.000000	13.030619
2111.000000	13.056283
2112.000000	13.078555
2113.000000	13.097524
2114.000000	13.114107
2115.000000	13.138182
2116.000000	13.161907
2117.000000	13.174488
2118.000000	13.191742
2119.000000	13.204886
2120.000000	13.209449
2121.000000	13.220198
2122.000000	13.235968
2123.000000	13.241864
2124.000000	13.239917
2125.000000	13.242637
2126.000000	13.239748
2127.000000	13.238608
2128.000000	13.230562
2129.000000	13.220536
2130.000000	13.214359
2131.000000	13.208550
2132.000000	13.184470
2133.000000	13.163578
2134.000000	13.146368
2135.000000	13.128771
2136.000000	13.099028
2137.000000	13.077348
2138.000000	13.045745
2139.000000	13.012191
2140.000000	12.982547
2141.000000	12.952501
2142.000000	12.914694
2143.000000	12.878150
2144.000000	12.837083
2145.000000	12.805613
2146.000000	12.770549
2147.000000	12.726297
2148.000000	12.682727
2149.000000	12.629646
2150.000000	12.590479
2151.000000	12.552646
2152.000000	12.509321
2153.000000	12.460633
2154.000000	12.422935
2155.000000	12.380099
2156.000000	12.332889
2157.000000	12.294559
2158.000000	12.260626
2159.000000	12.222764
2160.000000	12.195622
2161.000000	12.166545
2162.000000	12.135590
2163.000000	12.107416
2164.000000	12.088835
2165.000000	12.065773
2166.000000	12.043823
2167.000000	12.020636
2168.000000	12.009735
2169.000000	11.983146
2170.000000	11.965716
2171.000000	11.959695
2172.000000	11.943987
2173.000000	11.934649
2174.000000	11.926552
2175.000000	11.919365
2176.000000	11.920907
2177.000000	11.921605
2178.000000	11.929727
2179.000000	11.930883
2180.000000	11.949564
2181.000000	11.947985
2182.000000	11.956026
2183.000000	11.983567
2184.000000	11.998888
2185.000000	12.018594
2186.000000	12.017308
2187.000000	12.024268
2188.000000	12.039712
2189.000000	12.053766
2190.000000	12.069950
2191.000000	12.078455
2192.000000	12.088805
2193.000000	12.104657
2194.000000	12.110042
2195.000000	12.122950
2196.000000	12.137541
2197.000000	12.146694
2198.000000	12.153276
2199.000000	12.171938
2200.000000	12.180870
2201.000000	12.201724
2202.000000	12.215522
2203.000000	12.227753
2204.000000	12.239290
2205.000000	12.259838
2206.000000	12.276340
2207.000000	12.288944
2208.000000	12.322331
2209.000000	12.341114
2210.000000	12.346310
2211.000000	12.376236
2212.000000	12.405212
2213.000000	12.428668
2214.000000	12.464364
2215.000000	12.492212
2216.000000	12.516022
2217.000000	12.536595
2218.000000	12.574450
2219.000000	12.601817
2220.000000	12.616505
2221.000000	12.643971
2222.000000	12.656727
2223.000000	12.681642
2224.000000	12.706926
2225.000000	12.713812
2226.000000	12.725050
2227.000000	12.727937
2228.000000	12.731319
2229.000000	12.715719
2230.000000	12.711544
2231.000000	12.688273
2232.000000	12.650605
2233.000000	12.617672
2234.000000	12.576629
2235.000000	12.531134
2236.000000	12.477410
2237.000000	12.419708
2238.000000	12.366238
2239.000000	12.281823
2240.000000	12.208699
2241.000000	12.113783
2242.000000	12.019425
2243.000000	11.937872
2244.000000	11.824006
2245.000000	11.693949
2246.000000	11.582845
2247.000000	11.448948
2248.000000	11.300238
2249.000000	11.144705
2250.000000	10.984859
2251.000000	10.824101
2252.000000	10.641197
2253.000000	10.459385
2254.000000	10.261885
2255.000000	10.083279
2256.000000	9.881900
2257.000000	9.687959
2258.000000	9.498172
2259.000000	9.308631
2260.000000	9.142371
2261.000000	8.970020
2262.000000	8.812767
2263.000000	8.684096
2264.000000	8.540468
2265.000000	8.420292
2266.000000	8.325092
2267.000000	8.239171
2268.000000	8.166993
2269.000000	8.105582
2270.000000	8.068469
2271.000000	8.021044
2272.000000	7.986725
2273.000000	7.993802
2274.000000	7.981648
2275.000000	7.981818
2276.000000	7.996215
2277.000000	8.000397
2278.000000	8.006775
2279.000000	8.031327
2280.000000	8.060061
2281.000000	8.072520
2282.000000	8.102907
2283.000000	8.114228
2284.000000	8.141190
2285.000000	8.151964
2286.000000	8.167082
2287.000000	8.164489
2288.000000	8.167696
2289.000000	8.165704
2290.000000	8.160257
2291.000000	8.130616
2292.000000	8.108446
2293.000000	8.069092
2294.000000	8.017351
2295.000000	7.969143
2296.000000	7.926128
2297.000000	7.854894
2298.000000	7.791000
2299.000000	7.732904
2300.000000	7.667146
2301.000000	7.607426
2302.000000	7.563094
2303.000000	7.505785
2304.000000	7.462721
2305.000000	7.439980
2306.000000	7.425835
2307.000000	7.422463
2308.000000	7.432340
2309.000000	7.457264
2310.000000	7.476373
2311.000000	7.520768
2312.000000	7.576187
2313.000000	7.641055
2314.000000	7.704268
2315.000000	7.777443
2316.000000	7.857369
2317.000000	7.937779
2318.000000	8.025954
2319.000000	8.121225
2320.000000	8.205734
2321.000000	8.278736
2322.000000	8.356700
2323.000000	8.433663
2324.000000	8.506784
2325.000000	8.573299
2326.000000	8.637630
2327.000000	8.696352
2328.000000	8.748183
2329.000000	8.799528
2330.000000	8.838322
2331.000000	8.878938
2332.000000	8.921710
2333.000000	8.945030
2334.000000	8.964144
2335.000000	8.989423
2336.000000	9.007187
2337.000000	9.008503
2338.000000	9.009197
2339.000000	9.012739
2340.000000	9.010050
2341.000000	8.989753
2342.000000	8.962667
2343.000000	8.941046
2344.000000	8.919064
2345.000000	8.890929
2346.000000	8.857541
2347.000000	8.829595
2348.000000	8.807917
2349.000000	8.789506
2350.000000	8.776802
2351.000000	8.764314
2352.000000	8.761517
2353.000000	8.755272
2354.000000	8.764611
2355.000000	8.782542
2356.000000	8.808354
2357.000000	8.840206
2358.000000	8.868994
2359.000000	8.911931
2360.000000	8.960539
2361.000000	9.009651
2362.000000	9.068039
2363.000000	9.114493
2364.000000	9.161714
2365.000000	9.217024
2366.000000	9.265173
2367.000000	9.313482
2368.000000	9.360384
2369.000000	9.397456
2370.000000	9.434368
2371.000000	9.470011
2372.000000	9.505807
2373.000000	9.536902
2374.000000	9.561293
2375.000000	9.580824
2376.000000	9.601109
2377.000000	9.624977
2378.000000	9.643602
2379.000000	9.661650
2380.000000	9.679350
2381.000000	9.696714
2382.000000	9.708168
2383.000000	9.712689
2384.000000	9.711759
2385.000000	9.717063
2386.000000	9.718970
2387.000000	9.724608
2388.000000	9.731515
2389.000000	9.718451
2390.000000	9.709470
2391.000000	9.702841
2392.000000	9.688855
2393.000000	9.676165
2394.000000	9.659707
2395.000000	9.640079
2396.000000	9.633934
2397.000000	9.616397
2398.000000	9.588552
2399.000000	9.560149
2400.000000	9.533951
2401.000000	9.517370
2402.000000	9.500240
2403.000000	9.478008
2404.000000	9.452558
2405.000000	9.436307
2406.000000	9.420708
2407.000000	9.405457
2408.000000	9.396905
2409.000000	9.384810
2410.000000	9.357946
2411.000000	9.339237
2412.000000	9.318398
2413.000000	9.308173
2414.000000	9.284681
2415.000000	9.273357
2416.000000	9.257499
2417.000000	9.235154
2418.000000	9.208323
2419.000000	9.196390
2420.000000	9.176819
2421.000000	9.147361
2422.000000	9.124486
2423.000000	9.098888
2424.000000	9.068025
2425.000000	9.041058
2426.000000	9.006909
2427.000000	8.973670
2428.000000	8.946569
2429.000000	8.914774
2430.000000	8.883601
2431.000000	8.836461
2432.000000	8.793041
2433.000000	8.745653
2434.000000	8.703911
2435.000000	8.669040
2436.000000	8.619303
2437.000000	8.573668
2438.000000	8.521018
2439.000000	8.461105
2440.000000	8.404057
2441.000000	8.354224
2442.000000	8.289031
2443.000000	8.257154
2444.000000	8.185264
2445.000000	8.130523
2446.000000	8.070373
2447.000000	8.012604
2448.000000	7.939065
2449.000000	7.897543
2450.000000	7.855521
2451.000000	7.800171
2452.000000	7.739706
2453.000000	7.702763
2454.000000	7.631395
2455.000000	7.607079
2456.000000	7.548856
2457.000000	7.481194
2458.000000	7.469948
2459.000000	7.431592
2460.000000	7.386053
2461.000000	7.346377
2462.000000	7.304052
2463.000000	7.286105
2464.000000	7.253272
2465.000000	7.230901
2466.000000	7.229953
2467.000000	7.218859
2468.000000	7.207877
2469.000000	7.207226
2470.000000	7.184821
2471.000000	7.171642
2472.000000	7.208318
2473.000000	7.198143
2474.000000	7.164554
2475.000000	7.178250
2476.000000	7.191275
2477.000000	7.201839
2478.000000	7.186481
2479.000000	7.188277
2480.000000	7.153699
2481.000000	7.163592
2482.000000	7.152133
2483.000000	7.167685
2484.000000	7.235184
2485.000000	7.199448
2486.000000	7.213829
2487.000000	7.203478
2488.000000	7.215654
2489.000000	7.206525
2490.000000	7.216079
2491.000000	7.268158
2492.000000	7.276964
2493.000000	7.227241
2494.000000	7.357420
2495.000000	7.414491
2496.000000	7.360457
2497.000000	7.376721
2498.000000	7.421874
2499.000000	7.416857
2500.000000	7.402319
