PE UV       SUBTECH     SPECTRUM    ASCII       PEDS        4.00        
   -1
CICIMAUCR0098-4.Sample.ASC
24/04/25
11:26:36.00
24/04/25
11:26:36.00
Vinicio Soto Monge
C. cupreomarginata
250,000000
1
Lambda 1050
1050L1511233
PerkinElmer UV WinLab 6.3.2.0749 / 2.02.05 Lambda 900 UV/VIS/NIR, Aug  7 2015 09:38:08

0
0
3350/servo 860,8/2
0
0
UV/VIS
1
1
1
DoubleDePol,CommonBeamDepol,RBeamAtt,SBeamAtt,60mm sphere, WB InGaAs Detector
0
0
0
0
Program
Program
3350/servo 860,8/2
3350/0,2 860,8/0,2
3350/0,2 860,8/0,2
0
15.00
 
 
 
0
 
860,8
319,2
860,8
Front
100
on
S:100 R:100
0
0
0
0
 
0
 
 
 
0
 
 
0
0
0
0
0
 
 
 
 
0
0


0
0
#HDR
-1
-1
#GR
nm
%R
1.0
0.0
2500,000000
-1,000000
2251
8
67,710500
4,817400
#DATA
2500,000000	6,159200
2499,000000	6,010700
2498,000000	5,996800
2497,000000	6,096200
2496,000000	6,000300
2495,000000	5,952100
2494,000000	6,034300
2493,000000	5,986400
2492,000000	5,994200
2491,000000	6,000100
2490,000000	5,984900
2489,000000	6,015900
2488,000000	5,947600
2487,000000	5,954200
2486,000000	5,867500
2485,000000	5,932200
2484,000000	5,957400
2483,000000	5,854900
2482,000000	5,953300
2481,000000	5,894100
2480,000000	5,861500
2479,000000	5,874000
2478,000000	5,899800
2477,000000	5,890800
2476,000000	5,896100
2475,000000	5,899400
2474,000000	5,867600
2473,000000	5,868300
2472,000000	5,920700
2471,000000	5,897000
2470,000000	5,912000
2469,000000	5,914100
2468,000000	5,916500
2467,000000	5,901100
2466,000000	5,926500
2465,000000	5,901500
2464,000000	5,933400
2463,000000	5,930600
2462,000000	5,920600
2461,000000	5,985400
2460,000000	5,967100
2459,000000	5,980300
2458,000000	5,989500
2457,000000	6,027200
2456,000000	6,057100
2455,000000	6,082000
2454,000000	6,085100
2453,000000	6,122600
2452,000000	6,146400
2451,000000	6,182100
2450,000000	6,229100
2449,000000	6,245300
2448,000000	6,257600
2447,000000	6,307800
2446,000000	6,334000
2445,000000	6,351000
2444,000000	6,358600
2443,000000	6,403100
2442,000000	6,428200
2441,000000	6,438100
2440,000000	6,466200
2439,000000	6,495200
2438,000000	6,532900
2437,000000	6,563000
2436,000000	6,598500
2435,000000	6,611100
2434,000000	6,638900
2433,000000	6,649800
2432,000000	6,646500
2431,000000	6,662700
2430,000000	6,707000
2429,000000	6,728500
2428,000000	6,745000
2427,000000	6,760900
2426,000000	6,779000
2425,000000	6,793800
2424,000000	6,815400
2423,000000	6,834500
2422,000000	6,826100
2421,000000	6,832100
2420,000000	6,854100
2419,000000	6,873900
2418,000000	6,870500
2417,000000	6,874400
2416,000000	6,885400
2415,000000	6,918000
2414,000000	6,923600
2413,000000	6,921100
2412,000000	6,929300
2411,000000	6,942500
2410,000000	6,968500
2409,000000	6,982600
2408,000000	7,000700
2407,000000	7,039700
2406,000000	7,046400
2405,000000	7,058200
2404,000000	7,076500
2403,000000	7,074200
2402,000000	7,092500
2401,000000	7,117900
2400,000000	7,139300
2399,000000	7,159100
2398,000000	7,158100
2397,000000	7,167600
2396,000000	7,197100
2395,000000	7,211800
2394,000000	7,231900
2393,000000	7,243000
2392,000000	7,241600
2391,000000	7,260900
2390,000000	7,287200
2389,000000	7,301200
2388,000000	7,304800
2387,000000	7,310000
2386,000000	7,316900
2385,000000	7,334200
2384,000000	7,338300
2383,000000	7,328900
2382,000000	7,332500
2381,000000	7,344400
2380,000000	7,349700
2379,000000	7,358200
2378,000000	7,363000
2377,000000	7,343900
2376,000000	7,331400
2375,000000	7,339900
2374,000000	7,327800
2373,000000	7,308200
2372,000000	7,315100
2371,000000	7,310700
2370,000000	7,307100
2369,000000	7,296600
2368,000000	7,272400
2367,000000	7,263900
2366,000000	7,246100
2365,000000	7,224300
2364,000000	7,211100
2363,000000	7,194500
2362,000000	7,179900
2361,000000	7,169200
2360,000000	7,148700
2359,000000	7,120300
2358,000000	7,106300
2357,000000	7,097100
2356,000000	7,089600
2355,000000	7,067000
2354,000000	7,053000
2353,000000	7,066900
2352,000000	7,070800
2351,000000	7,076300
2350,000000	7,085800
2349,000000	7,100400
2348,000000	7,101900
2347,000000	7,117200
2346,000000	7,147100
2345,000000	7,172400
2344,000000	7,205400
2343,000000	7,233800
2342,000000	7,246000
2341,000000	7,245200
2340,000000	7,269400
2339,000000	7,275600
2338,000000	7,280300
2337,000000	7,293800
2336,000000	7,301800
2335,000000	7,310600
2334,000000	7,301900
2333,000000	7,287400
2332,000000	7,287200
2331,000000	7,273300
2330,000000	7,248800
2329,000000	7,225100
2328,000000	7,206700
2327,000000	7,193000
2326,000000	7,156900
2325,000000	7,123700
2324,000000	7,095100
2323,000000	7,082300
2322,000000	7,053400
2321,000000	7,007200
2320,000000	6,971800
2319,000000	6,913400
2318,000000	6,878100
2317,000000	6,840200
2316,000000	6,805700
2315,000000	6,761200
2314,000000	6,721600
2313,000000	6,697200
2312,000000	6,676900
2311,000000	6,634300
2310,000000	6,605600
2309,000000	6,607300
2308,000000	6,589400
2307,000000	6,584000
2306,000000	6,574800
2305,000000	6,577700
2304,000000	6,603100
2303,000000	6,601400
2302,000000	6,637900
2301,000000	6,682100
2300,000000	6,685200
2299,000000	6,707700
2298,000000	6,728300
2297,000000	6,789100
2296,000000	6,818800
2295,000000	6,855300
2294,000000	6,890500
2293,000000	6,916000
2292,000000	6,920400
2291,000000	6,938900
2290,000000	6,963900
2289,000000	6,958900
2288,000000	6,967700
2287,000000	6,959400
2286,000000	6,949000
2285,000000	6,943400
2284,000000	6,933000
2283,000000	6,931500
2282,000000	6,925000
2281,000000	6,891700
2280,000000	6,853600
2279,000000	6,856400
2278,000000	6,830100
2277,000000	6,799000
2276,000000	6,809800
2275,000000	6,805800
2274,000000	6,813900
2273,000000	6,783300
2272,000000	6,806800
2271,000000	6,791500
2270,000000	6,801600
2269,000000	6,817200
2268,000000	6,853000
2267,000000	6,882200
2266,000000	6,916400
2265,000000	6,981300
2264,000000	7,014100
2263,000000	7,080000
2262,000000	7,138800
2261,000000	7,225600
2260,000000	7,318400
2259,000000	7,377500
2258,000000	7,480900
2257,000000	7,594300
2256,000000	7,675100
2255,000000	7,784000
2254,000000	7,867900
2253,000000	7,949800
2252,000000	8,037000
2251,000000	8,140900
2250,000000	8,230800
2249,000000	8,303800
2248,000000	8,387300
2247,000000	8,454500
2246,000000	8,533300
2245,000000	8,587100
2244,000000	8,667700
2243,000000	8,711700
2242,000000	8,761700
2241,000000	8,810300
2240,000000	8,881700
2239,000000	8,915200
2238,000000	8,944800
2237,000000	8,981700
2236,000000	9,023000
2235,000000	9,051500
2234,000000	9,078000
2233,000000	9,134800
2232,000000	9,141100
2231,000000	9,165200
2230,000000	9,202400
2229,000000	9,179800
2228,000000	9,208900
2227,000000	9,216100
2226,000000	9,242300
2225,000000	9,234800
2224,000000	9,238300
2223,000000	9,243700
2222,000000	9,250900
2221,000000	9,269600
2220,000000	9,257900
2219,000000	9,277800
2218,000000	9,269300
2217,000000	9,252700
2216,000000	9,255900
2215,000000	9,258500
2214,000000	9,242900
2213,000000	9,230500
2212,000000	9,219000
2211,000000	9,191800
2210,000000	9,211400
2209,000000	9,211700
2208,000000	9,194000
2207,000000	9,197500
2206,000000	9,197500
2205,000000	9,199000
2204,000000	9,196100
2203,000000	9,190000
2202,000000	9,175400
2201,000000	9,193600
2200,000000	9,201200
2199,000000	9,192000
2198,000000	9,197200
2197,000000	9,196400
2196,000000	9,183500
2195,000000	9,190900
2194,000000	9,183900
2193,000000	9,195700
2192,000000	9,188400
2191,000000	9,186700
2190,000000	9,178100
2189,000000	9,184200
2188,000000	9,187600
2187,000000	9,187400
2186,000000	9,180400
2185,000000	9,167700
2184,000000	9,167800
2183,000000	9,172300
2182,000000	9,158900
2181,000000	9,167600
2180,000000	9,163300
2179,000000	9,167000
2178,000000	9,165200
2177,000000	9,182400
2176,000000	9,180500
2175,000000	9,175800
2174,000000	9,168600
2173,000000	9,178900
2172,000000	9,179200
2171,000000	9,189300
2170,000000	9,191200
2169,000000	9,203100
2168,000000	9,208000
2167,000000	9,213400
2166,000000	9,220500
2165,000000	9,227800
2164,000000	9,248600
2163,000000	9,246900
2162,000000	9,256900
2161,000000	9,266800
2160,000000	9,278700
2159,000000	9,297900
2158,000000	9,308400
2157,000000	9,321600
2156,000000	9,331300
2155,000000	9,360200
2154,000000	9,373800
2153,000000	9,380600
2152,000000	9,383700
2151,000000	9,390600
2150,000000	9,391500
2149,000000	9,409700
2148,000000	9,424500
2147,000000	9,435200
2146,000000	9,453300
2145,000000	9,475200
2144,000000	9,483400
2143,000000	9,477200
2142,000000	9,481000
2141,000000	9,477700
2140,000000	9,497300
2139,000000	9,499300
2138,000000	9,489000
2137,000000	9,505000
2136,000000	9,504600
2135,000000	9,514200
2134,000000	9,513100
2133,000000	9,510700
2132,000000	9,515100
2131,000000	9,518200
2130,000000	9,510000
2129,000000	9,512500
2128,000000	9,510900
2127,000000	9,506900
2126,000000	9,500400
2125,000000	9,485000
2124,000000	9,460800
2123,000000	9,461800
2122,000000	9,469500
2121,000000	9,442600
2120,000000	9,424900
2119,000000	9,417500
2118,000000	9,409200
2117,000000	9,407400
2116,000000	9,384500
2115,000000	9,358800
2114,000000	9,328800
2113,000000	9,317500
2112,000000	9,324600
2111,000000	9,300500
2110,000000	9,287800
2109,000000	9,285900
2108,000000	9,277800
2107,000000	9,266100
2106,000000	9,245100
2105,000000	9,230300
2104,000000	9,217500
2103,000000	9,202800
2102,000000	9,189400
2101,000000	9,171800
2100,000000	9,164400
2099,000000	9,152800
2098,000000	9,131400
2097,000000	9,121900
2096,000000	9,112100
2095,000000	9,111400
2094,000000	9,103000
2093,000000	9,086700
2092,000000	9,077400
2091,000000	9,083000
2090,000000	9,074700
2089,000000	9,054800
2088,000000	9,053100
2087,000000	9,048000
2086,000000	9,030500
2085,000000	9,024300
2084,000000	9,025800
2083,000000	9,018600
2082,000000	9,010400
2081,000000	9,006200
2080,000000	8,981100
2079,000000	8,960900
2078,000000	8,961100
2077,000000	8,962000
2076,000000	8,941400
2075,000000	8,946700
2074,000000	8,935200
2073,000000	8,922800
2072,000000	8,923600
2071,000000	8,923400
2070,000000	8,906000
2069,000000	8,892900
2068,000000	8,893400
2067,000000	8,897800
2066,000000	8,884400
2065,000000	8,873700
2064,000000	8,863000
2063,000000	8,856400
2062,000000	8,859700
2061,000000	8,856300
2060,000000	8,848700
2059,000000	8,861700
2058,000000	8,870200
2057,000000	8,892300
2056,000000	8,901000
2055,000000	8,925600
2054,000000	8,936900
2053,000000	8,939400
2052,000000	8,959600
2051,000000	9,001500
2050,000000	9,033800
2049,000000	9,073500
2048,000000	9,104900
2047,000000	9,143700
2046,000000	9,202200
2045,000000	9,244200
2044,000000	9,262100
2043,000000	9,310400
2042,000000	9,365500
2041,000000	9,406800
2040,000000	9,443500
2039,000000	9,493200
2038,000000	9,523600
2037,000000	9,570300
2036,000000	9,604700
2035,000000	9,635200
2034,000000	9,672200
2033,000000	9,701900
2032,000000	9,744700
2031,000000	9,757000
2030,000000	9,772100
2029,000000	9,818200
2028,000000	9,845100
2027,000000	9,857300
2026,000000	9,868000
2025,000000	9,883100
2024,000000	9,909300
2023,000000	9,933300
2022,000000	9,937700
2021,000000	9,965100
2020,000000	9,977500
2019,000000	10,011000
2018,000000	10,021600
2017,000000	10,015500
2016,000000	10,023300
2015,000000	10,027500
2014,000000	10,030200
2013,000000	10,035800
2012,000000	10,034200
2011,000000	10,036200
2010,000000	10,020600
2009,000000	10,021500
2008,000000	10,018300
2007,000000	10,007900
2006,000000	10,021300
2005,000000	10,010700
2004,000000	9,989700
2003,000000	9,976000
2002,000000	9,962300
2001,000000	9,955400
2000,000000	9,944300
1999,000000	9,937400
1998,000000	9,906200
1997,000000	9,884800
1996,000000	9,870200
1995,000000	9,843300
1994,000000	9,808400
1993,000000	9,801900
1992,000000	9,749100
1991,000000	9,756300
1990,000000	9,716600
1989,000000	9,700700
1988,000000	9,666200
1987,000000	9,637400
1986,000000	9,611600
1985,000000	9,582500
1984,000000	9,539400
1983,000000	9,527200
1982,000000	9,504000
1981,000000	9,472600
1980,000000	9,422500
1979,000000	9,397100
1978,000000	9,360300
1977,000000	9,337000
1976,000000	9,318000
1975,000000	9,275500
1974,000000	9,271300
1973,000000	9,236400
1972,000000	9,209600
1971,000000	9,189100
1970,000000	9,148400
1969,000000	9,118700
1968,000000	9,113300
1967,000000	9,078800
1966,000000	9,056700
1965,000000	9,037500
1964,000000	8,994100
1963,000000	8,975800
1962,000000	8,948400
1961,000000	8,945100
1960,000000	8,899400
1959,000000	8,884800
1958,000000	8,868200
1957,000000	8,870400
1956,000000	8,833400
1955,000000	8,809100
1954,000000	8,792700
1953,000000	8,760100
1952,000000	8,741100
1951,000000	8,729500
1950,000000	8,710700
1949,000000	8,697500
1948,000000	8,680400
1947,000000	8,675000
1946,000000	8,638600
1945,000000	8,650700
1944,000000	8,645100
1943,000000	8,663200
1942,000000	8,653200
1941,000000	8,631900
1940,000000	8,656800
1939,000000	8,640100
1938,000000	8,627500
1937,000000	8,629600
1936,000000	8,656700
1935,000000	8,656100
1934,000000	8,687100
1933,000000	8,704900
1932,000000	8,737300
1931,000000	8,763900
1930,000000	8,783900
1929,000000	8,829700
1928,000000	8,866400
1927,000000	8,894900
1926,000000	8,945600
1925,000000	8,971400
1924,000000	9,038100
1923,000000	9,096600
1922,000000	9,144000
1921,000000	9,194600
1920,000000	9,240200
1919,000000	9,302600
1918,000000	9,370600
1917,000000	9,446900
1916,000000	9,519200
1915,000000	9,602900
1914,000000	9,672800
1913,000000	9,740300
1912,000000	9,822000
1911,000000	9,913700
1910,000000	9,987700
1909,000000	10,095200
1908,000000	10,184000
1907,000000	10,297400
1906,000000	10,386200
1905,000000	10,491300
1904,000000	10,582000
1903,000000	10,707100
1902,000000	10,792200
1901,000000	10,913300
1900,000000	11,031000
1899,000000	11,151100
1898,000000	11,277200
1897,000000	11,398500
1896,000000	11,524400
1895,000000	11,644000
1894,000000	11,790900
1893,000000	11,929400
1892,000000	12,104100
1891,000000	12,225900
1890,000000	12,399800
1889,000000	12,584100
1888,000000	12,757600
1887,000000	12,948300
1886,000000	13,170000
1885,000000	13,435800
1884,000000	13,719300
1883,000000	14,036400
1882,000000	14,368200
1881,000000	14,691200
1880,000000	15,021100
1879,000000	15,363200
1878,000000	15,682600
1877,000000	15,986900
1876,000000	16,293800
1875,000000	16,591700
1874,000000	16,853800
1873,000000	17,102600
1872,000000	17,335000
1871,000000	17,556700
1870,000000	17,746200
1869,000000	17,926800
1868,000000	18,063500
1867,000000	18,182200
1866,000000	18,293900
1865,000000	18,380800
1864,000000	18,472000
1863,000000	18,548300
1862,000000	18,625300
1861,000000	18,672100
1860,000000	18,710100
1859,000000	18,742400
1858,000000	18,742300
1857,000000	18,756300
1856,000000	18,756500
1855,000000	18,724800
1854,000000	18,700100
1853,000000	18,661300
1852,000000	18,636700
1851,000000	18,630400
1850,000000	18,615800
1849,000000	18,573100
1848,000000	18,488100
1847,000000	18,392600
1846,000000	18,315500
1845,000000	18,299200
1844,000000	18,304600
1843,000000	18,320300
1842,000000	18,304400
1841,000000	18,254800
1840,000000	18,204400
1839,000000	18,173900
1838,000000	18,141400
1837,000000	18,084000
1836,000000	18,027000
1835,000000	17,961100
1834,000000	17,897300
1833,000000	17,847000
1832,000000	17,803200
1831,000000	17,728500
1830,000000	17,654200
1829,000000	17,595900
1828,000000	17,527800
1827,000000	17,460500
1826,000000	17,388800
1825,000000	17,332400
1824,000000	17,314200
1823,000000	17,318800
1822,000000	17,305100
1821,000000	17,262100
1820,000000	17,203300
1819,000000	17,170800
1818,000000	17,158400
1817,000000	17,153100
1816,000000	17,166300
1815,000000	17,156600
1814,000000	17,136800
1813,000000	17,117900
1812,000000	17,096600
1811,000000	17,076600
1810,000000	17,052800
1809,000000	17,020900
1808,000000	16,994000
1807,000000	16,949800
1806,000000	16,894600
1805,000000	16,864300
1804,000000	16,829000
1803,000000	16,783400
1802,000000	16,742900
1801,000000	16,707100
1800,000000	16,661000
1799,000000	16,606900
1798,000000	16,567800
1797,000000	16,539000
1796,000000	16,508600
1795,000000	16,448200
1794,000000	16,401300
1793,000000	16,364400
1792,000000	16,306500
1791,000000	16,250300
1790,000000	16,186200
1789,000000	16,151700
1788,000000	16,094000
1787,000000	16,038800
1786,000000	15,975300
1785,000000	15,898400
1784,000000	15,831600
1783,000000	15,763400
1782,000000	15,703900
1781,000000	15,636300
1780,000000	15,575200
1779,000000	15,492300
1778,000000	15,423200
1777,000000	15,354900
1776,000000	15,273800
1775,000000	15,175900
1774,000000	15,073500
1773,000000	14,985700
1772,000000	14,897500
1771,000000	14,801000
1770,000000	14,708600
1769,000000	14,620600
1768,000000	14,538400
1767,000000	14,445500
1766,000000	14,388000
1765,000000	14,361700
1764,000000	14,322000
1763,000000	14,314700
1762,000000	14,333900
1761,000000	14,371500
1760,000000	14,425600
1759,000000	14,457400
1758,000000	14,514300
1757,000000	14,565200
1756,000000	14,589800
1755,000000	14,626900
1754,000000	14,641500
1753,000000	14,619800
1752,000000	14,614500
1751,000000	14,587200
1750,000000	14,564000
1749,000000	14,527300
1748,000000	14,445200
1747,000000	14,399600
1746,000000	14,321400
1745,000000	14,230000
1744,000000	14,123200
1743,000000	13,995500
1742,000000	13,837300
1741,000000	13,670300
1740,000000	13,504700
1739,000000	13,381900
1738,000000	13,246400
1737,000000	13,150000
1736,000000	13,065400
1735,000000	13,014600
1734,000000	12,991500
1733,000000	13,001800
1732,000000	13,054100
1731,000000	13,118100
1730,000000	13,198900
1729,000000	13,286700
1728,000000	13,362900
1727,000000	13,442200
1726,000000	13,503600
1725,000000	13,563000
1724,000000	13,604100
1723,000000	13,613400
1722,000000	13,629000
1721,000000	13,618100
1720,000000	13,614300
1719,000000	13,622900
1718,000000	13,628900
1717,000000	13,647900
1716,000000	13,671200
1715,000000	13,710400
1714,000000	13,730900
1713,000000	13,754000
1712,000000	13,766200
1711,000000	13,771600
1710,000000	13,762300
1709,000000	13,753000
1708,000000	13,738800
1707,000000	13,724800
1706,000000	13,695900
1705,000000	13,639900
1704,000000	13,593700
1703,000000	13,510900
1702,000000	13,467600
1701,000000	13,351400
1700,000000	13,239500
1699,000000	13,131800
1698,000000	13,046200
1697,000000	13,004400
1696,000000	12,949200
1695,000000	12,949600
1694,000000	13,005100
1693,000000	13,080800
1692,000000	13,197500
1691,000000	13,295900
1690,000000	13,392700
1689,000000	13,475200
1688,000000	13,530000
1687,000000	13,543400
1686,000000	13,529300
1685,000000	13,534500
1684,000000	13,618700
1683,000000	13,777800
1682,000000	14,021000
1681,000000	14,334800
1680,000000	14,691600
1679,000000	15,106500
1678,000000	15,489900
1677,000000	15,867300
1676,000000	16,208100
1675,000000	16,531600
1674,000000	16,778800
1673,000000	16,999900
1672,000000	17,216100
1671,000000	17,387500
1670,000000	17,525700
1669,000000	17,634400
1668,000000	17,716800
1667,000000	17,824200
1666,000000	17,902400
1665,000000	17,988700
1664,000000	18,013200
1663,000000	18,061300
1662,000000	18,112400
1661,000000	18,130900
1660,000000	18,139000
1659,000000	18,169500
1658,000000	18,177800
1657,000000	18,172300
1656,000000	18,172600
1655,000000	18,169900
1654,000000	18,145400
1653,000000	18,124400
1652,000000	18,095800
1651,000000	18,068700
1650,000000	18,029900
1649,000000	18,000800
1648,000000	17,953000
1647,000000	17,905800
1646,000000	17,865400
1645,000000	17,814600
1644,000000	17,779200
1643,000000	17,717000
1642,000000	17,651500
1641,000000	17,600400
1640,000000	17,542600
1639,000000	17,494400
1638,000000	17,426800
1637,000000	17,380800
1636,000000	17,309000
1635,000000	17,255400
1634,000000	17,187400
1633,000000	17,134800
1632,000000	17,087700
1631,000000	17,000700
1630,000000	16,918400
1629,000000	16,861300
1628,000000	16,807400
1627,000000	16,741200
1626,000000	16,680400
1625,000000	16,605400
1624,000000	16,542800
1623,000000	16,491700
1622,000000	16,416500
1621,000000	16,348300
1620,000000	16,298100
1619,000000	16,236500
1618,000000	16,165000
1617,000000	16,090000
1616,000000	16,040500
1615,000000	15,991700
1614,000000	15,954000
1613,000000	15,899400
1612,000000	15,833200
1611,000000	15,784800
1610,000000	15,745500
1609,000000	15,686400
1608,000000	15,620900
1607,000000	15,580100
1606,000000	15,544300
1605,000000	15,500000
1604,000000	15,449200
1603,000000	15,400000
1602,000000	15,352000
1601,000000	15,297200
1600,000000	15,265300
1599,000000	15,236700
1598,000000	15,193000
1597,000000	15,142500
1596,000000	15,111400
1595,000000	15,084500
1594,000000	15,040700
1593,000000	15,021600
1592,000000	14,995700
1591,000000	14,961400
1590,000000	14,935700
1589,000000	14,908200
1588,000000	14,867800
1587,000000	14,842800
1586,000000	14,821700
1585,000000	14,809600
1584,000000	14,787800
1583,000000	14,763400
1582,000000	14,760800
1581,000000	14,755300
1580,000000	14,752500
1579,000000	14,753400
1578,000000	14,729100
1577,000000	14,716300
1576,000000	14,732300
1575,000000	14,733500
1574,000000	14,728400
1573,000000	14,747900
1572,000000	14,766100
1571,000000	14,764100
1570,000000	14,764700
1569,000000	14,785500
1568,000000	14,807100
1567,000000	14,822100
1566,000000	14,839500
1565,000000	14,865800
1564,000000	14,878400
1563,000000	14,880400
1562,000000	14,893900
1561,000000	14,899200
1560,000000	14,905000
1559,000000	14,919400
1558,000000	14,927300
1557,000000	14,922400
1556,000000	14,930400
1555,000000	14,939700
1554,000000	14,944900
1553,000000	14,948500
1552,000000	14,935600
1551,000000	14,928900
1550,000000	14,924600
1549,000000	14,905900
1548,000000	14,913100
1547,000000	14,909500
1546,000000	14,899700
1545,000000	14,909100
1544,000000	14,902500
1543,000000	14,887800
1542,000000	14,895400
1541,000000	14,902500
1540,000000	14,895100
1539,000000	14,882300
1538,000000	14,878500
1537,000000	14,887200
1536,000000	14,888000
1535,000000	14,879400
1534,000000	14,871300
1533,000000	14,850800
1532,000000	14,833500
1531,000000	14,825800
1530,000000	14,820800
1529,000000	14,808100
1528,000000	14,781700
1527,000000	14,766200
1526,000000	14,765700
1525,000000	14,762000
1524,000000	14,726500
1523,000000	14,690600
1522,000000	14,696500
1521,000000	14,680700
1520,000000	14,648600
1519,000000	14,636000
1518,000000	14,614400
1517,000000	14,603600
1516,000000	14,589200
1515,000000	14,554900
1514,000000	14,526000
1513,000000	14,507700
1512,000000	14,485400
1511,000000	14,450800
1510,000000	14,442300
1509,000000	14,425300
1508,000000	14,399000
1507,000000	14,372600
1506,000000	14,348800
1505,000000	14,324500
1504,000000	14,300600
1503,000000	14,288700
1502,000000	14,278500
1501,000000	14,257300
1500,000000	14,224400
1499,000000	14,199200
1498,000000	14,204700
1497,000000	14,199000
1496,000000	14,156100
1495,000000	14,141500
1494,000000	14,145000
1493,000000	14,141100
1492,000000	14,133000
1491,000000	14,128500
1490,000000	14,128700
1489,000000	14,128300
1488,000000	14,113400
1487,000000	14,116600
1486,000000	14,096100
1485,000000	14,078800
1484,000000	14,095900
1483,000000	14,093400
1482,000000	14,113700
1481,000000	14,126500
1480,000000	14,138200
1479,000000	14,122700
1478,000000	14,127200
1477,000000	14,152000
1476,000000	14,156500
1475,000000	14,155300
1474,000000	14,177600
1473,000000	14,186400
1472,000000	14,208100
1471,000000	14,213900
1470,000000	14,228900
1469,000000	14,233700
1468,000000	14,238400
1467,000000	14,258300
1466,000000	14,302400
1465,000000	14,317400
1464,000000	14,331400
1463,000000	14,356800
1462,000000	14,387600
1461,000000	14,443000
1460,000000	14,473600
1459,000000	14,513800
1458,000000	14,557900
1457,000000	14,608400
1456,000000	14,650700
1455,000000	14,714300
1454,000000	14,770500
1453,000000	14,832400
1452,000000	14,921500
1451,000000	15,005900
1450,000000	15,028100
1449,000000	15,096500
1448,000000	15,167000
1447,000000	15,239200
1446,000000	15,357500
1445,000000	15,432900
1444,000000	15,465000
1443,000000	15,575600
1442,000000	15,672400
1441,000000	15,752100
1440,000000	15,854500
1439,000000	15,926600
1438,000000	16,024500
1437,000000	16,089300
1436,000000	16,187300
1435,000000	16,311500
1434,000000	16,396300
1433,000000	16,492200
1432,000000	16,590400
1431,000000	16,718000
1430,000000	16,796300
1429,000000	16,948400
1428,000000	17,081200
1427,000000	17,199000
1426,000000	17,362100
1425,000000	17,538700
1424,000000	17,701800
1423,000000	17,875800
1422,000000	18,052100
1421,000000	18,234400
1420,000000	18,428400
1419,000000	18,616700
1418,000000	18,749600
1417,000000	18,933300
1416,000000	19,140000
1415,000000	19,348300
1414,000000	19,547600
1413,000000	19,719700
1412,000000	19,893300
1411,000000	20,158900
1410,000000	20,414900
1409,000000	20,713700
1408,000000	21,022500
1407,000000	21,328300
1406,000000	21,658200
1405,000000	21,992000
1404,000000	22,325800
1403,000000	22,652600
1402,000000	22,992400
1401,000000	23,364700
1400,000000	23,654600
1399,000000	23,869400
1398,000000	24,089600
1397,000000	24,360400
1396,000000	24,633800
1395,000000	24,797400
1394,000000	24,969700
1393,000000	25,148100
1392,000000	25,361800
1391,000000	25,564200
1390,000000	25,809100
1389,000000	26,110700
1388,000000	26,462200
1387,000000	26,796300
1386,000000	27,190300
1385,000000	27,618200
1384,000000	28,062700
1383,000000	28,506300
1382,000000	28,847900
1381,000000	29,099300
1380,000000	29,270900
1379,000000	29,408100
1378,000000	29,498800
1377,000000	29,640800
1376,000000	29,797600
1375,000000	30,041500
1374,000000	30,343800
1373,000000	30,694100
1372,000000	31,066400
1371,000000	31,448900
1370,000000	31,769500
1369,000000	32,105200
1368,000000	32,403400
1367,000000	32,655400
1366,000000	32,870900
1365,000000	33,079700
1364,000000	33,260800
1363,000000	33,444400
1362,000000	33,603500
1361,000000	33,697700
1360,000000	33,748300
1359,000000	33,851700
1358,000000	33,983500
1357,000000	34,214900
1356,000000	34,552500
1355,000000	35,016900
1354,000000	35,526600
1353,000000	36,035400
1352,000000	36,631600
1351,000000	37,169000
1350,000000	37,646000
1349,000000	38,096300
1348,000000	38,518400
1347,000000	38,889000
1346,000000	39,208100
1345,000000	39,559800
1344,000000	39,896800
1343,000000	40,205600
1342,000000	40,489300
1341,000000	40,774800
1340,000000	41,041200
1339,000000	41,303700
1338,000000	41,555200
1337,000000	41,789500
1336,000000	42,023700
1335,000000	42,247200
1334,000000	42,474600
1333,000000	42,691400
1332,000000	42,879000
1331,000000	43,053100
1330,000000	43,239400
1329,000000	43,400900
1328,000000	43,563100
1327,000000	43,719000
1326,000000	43,864900
1325,000000	44,007600
1324,000000	44,143000
1323,000000	44,278700
1322,000000	44,395800
1321,000000	44,501900
1320,000000	44,621700
1319,000000	44,723800
1318,000000	44,831800
1317,000000	44,942200
1316,000000	45,037000
1315,000000	45,124000
1314,000000	45,201100
1313,000000	45,285300
1312,000000	45,365800
1311,000000	45,421700
1310,000000	45,484100
1309,000000	45,546700
1308,000000	45,601700
1307,000000	45,638700
1306,000000	45,671300
1305,000000	45,713100
1304,000000	45,739300
1303,000000	45,762600
1302,000000	45,782300
1301,000000	45,791300
1300,000000	45,810300
1299,000000	45,821900
1298,000000	45,825400
1297,000000	45,816000
1296,000000	45,812600
1295,000000	45,822900
1294,000000	45,814300
1293,000000	45,790700
1292,000000	45,776900
1291,000000	45,748400
1290,000000	45,719000
1289,000000	45,694800
1288,000000	45,655400
1287,000000	45,615800
1286,000000	45,558900
1285,000000	45,500400
1284,000000	45,445400
1283,000000	45,388500
1282,000000	45,320900
1281,000000	45,264500
1280,000000	45,223000
1279,000000	45,156600
1278,000000	45,091000
1277,000000	45,051900
1276,000000	45,000800
1275,000000	44,955800
1274,000000	44,910300
1273,000000	44,872100
1272,000000	44,836100
1271,000000	44,800800
1270,000000	44,771300
1269,000000	44,731200
1268,000000	44,692100
1267,000000	44,644400
1266,000000	44,608100
1265,000000	44,579000
1264,000000	44,528800
1263,000000	44,483800
1262,000000	44,441400
1261,000000	44,382600
1260,000000	44,337000
1259,000000	44,292200
1258,000000	44,248900
1257,000000	44,181500
1256,000000	44,120900
1255,000000	44,050500
1254,000000	43,973000
1253,000000	43,883000
1252,000000	43,821700
1251,000000	43,745700
1250,000000	43,648100
1249,000000	43,559900
1248,000000	43,463400
1247,000000	43,343400
1246,000000	43,215000
1245,000000	43,085400
1244,000000	42,949400
1243,000000	42,818000
1242,000000	42,669400
1241,000000	42,514700
1240,000000	42,357100
1239,000000	42,206700
1238,000000	42,040500
1237,000000	41,863800
1236,000000	41,702300
1235,000000	41,530900
1234,000000	41,349800
1233,000000	41,163000
1232,000000	40,965500
1231,000000	40,766600
1230,000000	40,569800
1229,000000	40,360400
1228,000000	40,166200
1227,000000	39,967200
1226,000000	39,764500
1225,000000	39,564400
1224,000000	39,359200
1223,000000	39,161500
1222,000000	38,965700
1221,000000	38,761100
1220,000000	38,572500
1219,000000	38,406000
1218,000000	38,228000
1217,000000	38,061200
1216,000000	37,890600
1215,000000	37,738300
1214,000000	37,578500
1213,000000	37,448000
1212,000000	37,317500
1211,000000	37,187400
1210,000000	37,028900
1209,000000	36,931900
1208,000000	36,834300
1207,000000	36,759200
1206,000000	36,685400
1205,000000	36,629600
1204,000000	36,593900
1203,000000	36,565600
1202,000000	36,520100
1201,000000	36,469700
1200,000000	36,393000
1199,000000	36,302400
1198,000000	36,172000
1197,000000	36,000800
1196,000000	35,759200
1195,000000	35,462700
1194,000000	35,097800
1193,000000	34,661500
1192,000000	34,167700
1191,000000	33,697100
1190,000000	33,228700
1189,000000	32,844400
1188,000000	32,562500
1187,000000	32,477800
1186,000000	32,493200
1185,000000	32,650000
1184,000000	32,941700
1183,000000	33,381500
1182,000000	33,889200
1181,000000	34,452700
1180,000000	35,005700
1179,000000	35,518900
1178,000000	35,958600
1177,000000	36,393400
1176,000000	36,758600
1175,000000	37,058600
1174,000000	37,416400
1173,000000	37,764100
1172,000000	38,142500
1171,000000	38,516500
1170,000000	38,893600
1169,000000	39,292300
1168,000000	39,669100
1167,000000	40,085500
1166,000000	40,460200
1165,000000	40,843800
1164,000000	41,279000
1163,000000	41,654800
1162,000000	42,034400
1161,000000	42,424900
1160,000000	42,796700
1159,000000	43,164900
1158,000000	43,461600
1157,000000	43,778000
1156,000000	44,009600
1155,000000	44,195300
1154,000000	44,319200
1153,000000	44,409000
1152,000000	44,467800
1151,000000	44,474000
1150,000000	44,491800
1149,000000	44,487800
1148,000000	44,534600
1147,000000	44,635400
1146,000000	44,783600
1145,000000	45,009400
1144,000000	45,301000
1143,000000	45,656200
1142,000000	45,995500
1141,000000	46,361000
1140,000000	46,705700
1139,000000	47,096700
1138,000000	47,470400
1137,000000	47,866100
1136,000000	48,266900
1135,000000	48,654100
1134,000000	48,986300
1133,000000	49,274500
1132,000000	49,587600
1131,000000	49,841200
1130,000000	50,078000
1129,000000	50,242600
1128,000000	50,393500
1127,000000	50,525600
1126,000000	50,620600
1125,000000	50,692900
1124,000000	50,772500
1123,000000	50,837100
1122,000000	50,860400
1121,000000	50,910500
1120,000000	50,920700
1119,000000	50,937200
1118,000000	50,961300
1117,000000	50,956600
1116,000000	50,948400
1115,000000	50,934900
1114,000000	50,932400
1113,000000	50,896800
1112,000000	50,901800
1111,000000	50,892400
1110,000000	50,882800
1109,000000	50,873200
1108,000000	50,858400
1107,000000	50,840600
1106,000000	50,835500
1105,000000	50,825900
1104,000000	50,815200
1103,000000	50,799500
1102,000000	50,786200
1101,000000	50,762600
1100,000000	50,743100
1099,000000	50,722800
1098,000000	50,707400
1097,000000	50,673900
1096,000000	50,610700
1095,000000	50,583200
1094,000000	50,561800
1093,000000	50,526700
1092,000000	50,506900
1091,000000	50,480200
1090,000000	50,443900
1089,000000	50,421400
1088,000000	50,373700
1087,000000	50,350600
1086,000000	50,313200
1085,000000	50,286600
1084,000000	50,245000
1083,000000	50,196900
1082,000000	50,163700
1081,000000	50,125700
1080,000000	50,099500
1079,000000	50,061700
1078,000000	50,029100
1077,000000	49,997700
1076,000000	49,966400
1075,000000	49,941000
1074,000000	49,910900
1073,000000	49,887200
1072,000000	49,848500
1071,000000	49,808000
1070,000000	49,775700
1069,000000	49,745300
1068,000000	49,706600
1067,000000	49,673900
1066,000000	49,629900
1065,000000	49,593100
1064,000000	49,574200
1063,000000	49,532300
1062,000000	49,489100
1061,000000	49,450400
1060,000000	49,416200
1059,000000	49,379100
1058,000000	49,315600
1057,000000	49,257300
1056,000000	49,211300
1055,000000	49,167000
1054,000000	49,123700
1053,000000	49,084300
1052,000000	49,049300
1051,000000	49,013600
1050,000000	48,973600
1049,000000	48,948800
1048,000000	48,917600
1047,000000	48,876800
1046,000000	48,847500
1045,000000	48,806200
1044,000000	48,781300
1043,000000	48,764600
1042,000000	48,733000
1041,000000	48,710800
1040,000000	48,687800
1039,000000	48,644000
1038,000000	48,607000
1037,000000	48,570600
1036,000000	48,526600
1035,000000	48,481800
1034,000000	48,444300
1033,000000	48,412500
1032,000000	48,365300
1031,000000	48,326000
1030,000000	48,288100
1029,000000	48,227300
1028,000000	48,183700
1027,000000	48,144200
1026,000000	48,080600
1025,000000	48,031600
1024,000000	47,989400
1023,000000	47,933500
1022,000000	47,896300
1021,000000	47,861900
1020,000000	47,822600
1019,000000	47,780200
1018,000000	47,746000
1017,000000	47,707000
1016,000000	47,673900
1015,000000	47,668300
1014,000000	47,667900
1013,000000	47,675200
1012,000000	47,684600
1011,000000	47,696700
1010,000000	47,729800
1009,000000	47,764400
1008,000000	47,795700
1007,000000	47,850600
1006,000000	47,897400
1005,000000	47,921700
1004,000000	47,981100
1003,000000	48,028700
1002,000000	48,065600
1001,000000	48,115100
1000,000000	48,161200
999,000000	48,211100
998,000000	48,261300
997,000000	48,317700
996,000000	48,369800
995,000000	48,428800
994,000000	48,494900
993,000000	48,554100
992,000000	48,612400
991,000000	48,691800
990,000000	48,783900
989,000000	48,860800
988,000000	48,947800
987,000000	49,034500
986,000000	49,121000
985,000000	49,213100
984,000000	49,315000
983,000000	49,413800
982,000000	49,498000
981,000000	49,613100
980,000000	49,719400
979,000000	49,800700
978,000000	49,900200
977,000000	49,996800
976,000000	50,100300
975,000000	50,191000
974,000000	50,279000
973,000000	50,392500
972,000000	50,467700
971,000000	50,562800
970,000000	50,688200
969,000000	50,786000
968,000000	50,873900
967,000000	50,988400
966,000000	51,066700
965,000000	51,181300
964,000000	51,304400
963,000000	51,400200
962,000000	51,524400
961,000000	51,640900
960,000000	51,755900
959,000000	51,888600
958,000000	51,996400
957,000000	52,092900
956,000000	52,223700
955,000000	52,319000
954,000000	52,398900
953,000000	52,504800
952,000000	52,583800
951,000000	52,703000
950,000000	52,776700
949,000000	52,868700
948,000000	52,967200
947,000000	53,078400
946,000000	53,190500
945,000000	53,273400
944,000000	53,359100
943,000000	53,448100
942,000000	53,561600
941,000000	53,681500
940,000000	53,794100
939,000000	53,907600
938,000000	53,981600
937,000000	54,079400
936,000000	54,185000
935,000000	54,297000
934,000000	54,428000
933,000000	54,527400
932,000000	54,643900
931,000000	54,751800
930,000000	54,870000
929,000000	54,981100
928,000000	55,103600
927,000000	55,219500
926,000000	55,328000
925,000000	55,428900
924,000000	55,536400
923,000000	55,661200
922,000000	55,811100
921,000000	55,916900
920,000000	56,030400
919,000000	56,115100
918,000000	56,214700
917,000000	56,298400
916,000000	56,412000
915,000000	56,490400
914,000000	56,585800
913,000000	56,670800
912,000000	56,814100
911,000000	56,881700
910,000000	56,935300
909,000000	57,032600
908,000000	57,122900
907,000000	57,225200
906,000000	57,354900
905,000000	57,471300
904,000000	57,584800
903,000000	57,700300
902,000000	57,853600
901,000000	57,952000
900,000000	58,050700
899,000000	58,173500
898,000000	58,212900
897,000000	58,320500
896,000000	58,427000
895,000000	58,510900
894,000000	58,569700
893,000000	58,666900
892,000000	58,707300
891,000000	58,680800
890,000000	58,731800
889,000000	58,736600
888,000000	58,673600
887,000000	58,674200
886,000000	58,712800
885,000000	58,709300
884,000000	58,592300
883,000000	58,554300
882,000000	58,447900
881,000000	58,426700
880,000000	58,373000
879,000000	58,251300
878,000000	58,165200
877,000000	58,014200
876,000000	57,926200
875,000000	57,737900
874,000000	57,624000
873,000000	57,401800
872,000000	57,120400
871,000000	56,922600
870,000000	56,593700
869,000000	56,267700
868,000000	55,975400
867,000000	55,672700
866,000000	55,506900
865,000000	55,570800
864,000000	55,656400
863,000000	55,764200
862,000000	55,846800
861,000000	55,926600
860,000000	56,017000
859,000000	56,085700
858,000000	57,529500
857,000000	65,534200
856,000000	65,714100
855,000000	66,053500
854,000000	66,509600
853,000000	65,989000
852,000000	66,026300
851,000000	66,315500
850,000000	65,960300
849,000000	66,068600
848,000000	66,264500
847,000000	66,466600
846,000000	65,966400
845,000000	66,255500
844,000000	66,297200
843,000000	66,267700
842,000000	66,093400
841,000000	66,153500
840,000000	66,156000
839,000000	66,168800
838,000000	66,023800
837,000000	65,945200
836,000000	66,106400
835,000000	66,091000
834,000000	65,985600
833,000000	66,074300
832,000000	66,003900
831,000000	65,987600
830,000000	65,965500
829,000000	65,966300
828,000000	65,912100
827,000000	65,877400
826,000000	65,659400
825,000000	65,695000
824,000000	65,578200
823,000000	65,529200
822,000000	65,532000
821,000000	65,348100
820,000000	65,263600
819,000000	65,083300
818,000000	65,093000
817,000000	64,863800
816,000000	64,782700
815,000000	64,764400
814,000000	64,745100
813,000000	64,621300
812,000000	64,578500
811,000000	64,474400
810,000000	64,344200
809,000000	64,324900
808,000000	64,224800
807,000000	64,209100
806,000000	64,108800
805,000000	64,064000
804,000000	63,971300
803,000000	63,839800
802,000000	63,861500
801,000000	63,843800
800,000000	63,827800
799,000000	63,754500
798,000000	63,748200
797,000000	63,713700
796,000000	63,593700
795,000000	63,469500
794,000000	63,538300
793,000000	63,398900
792,000000	63,334300
791,000000	63,351500
790,000000	63,294400
789,000000	63,220800
788,000000	63,213600
787,000000	63,147100
786,000000	63,098500
785,000000	63,049700
784,000000	63,028800
783,000000	63,055700
782,000000	63,045700
781,000000	63,016500
780,000000	62,960400
779,000000	62,910300
778,000000	62,843000
777,000000	62,856900
776,000000	62,838100
775,000000	62,702600
774,000000	62,764700
773,000000	62,736000
772,000000	62,626700
771,000000	62,535200
770,000000	62,385500
769,000000	62,363900
768,000000	62,372400
767,000000	62,284900
766,000000	62,207800
765,000000	62,188500
764,000000	62,139100
763,000000	62,103100
762,000000	62,073900
761,000000	62,040000
760,000000	61,912400
759,000000	61,838000
758,000000	61,816000
757,000000	61,713500
756,000000	61,690800
755,000000	61,626100
754,000000	61,521400
753,000000	61,441600
752,000000	61,364700
751,000000	61,277900
750,000000	61,197900
749,000000	61,163400
748,000000	61,108900
747,000000	61,034100
746,000000	61,016300
745,000000	61,004900
744,000000	60,904200
743,000000	60,841000
742,000000	60,836600
741,000000	60,718700
740,000000	60,674700
739,000000	60,651800
738,000000	60,606400
737,000000	60,561500
736,000000	60,482800
735,000000	60,417700
734,000000	60,370500
733,000000	60,273900
732,000000	60,179100
731,000000	60,099500
730,000000	60,054000
729,000000	60,007900
728,000000	59,985300
727,000000	59,967700
726,000000	59,906100
725,000000	59,834100
724,000000	59,795200
723,000000	59,767600
722,000000	59,757100
721,000000	59,708900
720,000000	59,640400
719,000000	59,573700
718,000000	59,506900
717,000000	59,438100
716,000000	59,389700
715,000000	59,320700
714,000000	59,215300
713,000000	59,083300
712,000000	58,975800
711,000000	58,912600
710,000000	58,804000
709,000000	58,683000
708,000000	58,604400
707,000000	58,520900
706,000000	58,457400
705,000000	58,339000
704,000000	58,155600
703,000000	58,014900
702,000000	57,867600
701,000000	57,743900
700,000000	57,631900
699,000000	57,441700
698,000000	57,271400
697,000000	57,074300
696,000000	56,877000
695,000000	56,738400
694,000000	56,604100
693,000000	56,414500
692,000000	56,228800
691,000000	56,045800
690,000000	55,810400
689,000000	55,610100
688,000000	55,372000
687,000000	55,111000
686,000000	54,901300
685,000000	54,691300
684,000000	54,447500
683,000000	54,243700
682,000000	54,020600
681,000000	53,853000
680,000000	53,649800
679,000000	53,506500
678,000000	53,348900
677,000000	53,195400
676,000000	53,049500
675,000000	52,946500
674,000000	52,840000
673,000000	52,778100
672,000000	52,644200
671,000000	52,510400
670,000000	52,339900
669,000000	52,223100
668,000000	52,144900
667,000000	52,046900
666,000000	51,939800
665,000000	51,817200
664,000000	51,695100
663,000000	51,612100
662,000000	51,600400
661,000000	51,553700
660,000000	51,473500
659,000000	51,467100
658,000000	51,457000
657,000000	51,429900
656,000000	51,371600
655,000000	51,331900
654,000000	51,289200
653,000000	51,216400
652,000000	51,091100
651,000000	50,924200
650,000000	50,783100
649,000000	50,647700
648,000000	50,491100
647,000000	50,275300
646,000000	50,039500
645,000000	49,827400
644,000000	49,557900
643,000000	49,315200
642,000000	49,063800
641,000000	48,877400
640,000000	48,655200
639,000000	48,439900
638,000000	48,260300
637,000000	48,097900
636,000000	47,956600
635,000000	47,824200
634,000000	47,725300
633,000000	47,602400
632,000000	47,459800
631,000000	47,368500
630,000000	47,283500
629,000000	47,171000
628,000000	47,099300
627,000000	47,074100
626,000000	47,098700
625,000000	47,129600
624,000000	47,236300
623,000000	47,400800
622,000000	47,634600
621,000000	47,921700
620,000000	48,308700
619,000000	48,766200
618,000000	49,311900
617,000000	49,855000
616,000000	50,479400
615,000000	51,194700
614,000000	51,880400
613,000000	52,603500
612,000000	53,343600
611,000000	53,995700
610,000000	54,647600
609,000000	55,265600
608,000000	55,814700
607,000000	56,334500
606,000000	56,820500
605,000000	57,305300
604,000000	57,685900
603,000000	58,142200
602,000000	58,587100
601,000000	58,993900
600,000000	59,433500
599,000000	59,927000
598,000000	60,387500
597,000000	60,828100
596,000000	61,327200
595,000000	61,850700
594,000000	62,324000
593,000000	62,830400
592,000000	63,349100
591,000000	63,805200
590,000000	64,331700
589,000000	64,717000
588,000000	65,078900
587,000000	65,430000
586,000000	65,735700
585,000000	65,934600
584,000000	66,110000
583,000000	66,232600
582,000000	66,303500
581,000000	66,398300
580,000000	66,454900
579,000000	66,473900
578,000000	66,564200
577,000000	66,613400
576,000000	66,684200
575,000000	66,801800
574,000000	66,906200
573,000000	67,075900
572,000000	67,178500
571,000000	67,292700
570,000000	67,416700
569,000000	67,506000
568,000000	67,637300
567,000000	67,643600
566,000000	67,710500
565,000000	67,680900
564,000000	67,664600
563,000000	67,607900
562,000000	67,519800
561,000000	67,397900
560,000000	67,289900
559,000000	67,056500
558,000000	66,929100
557,000000	66,799600
556,000000	66,634800
555,000000	66,438800
554,000000	66,230100
553,000000	65,991900
552,000000	65,672500
551,000000	65,355700
550,000000	64,953600
549,000000	64,544400
548,000000	64,062200
547,000000	63,527800
546,000000	62,978600
545,000000	62,344700
544,000000	61,720100
543,000000	61,022400
542,000000	60,294000
541,000000	59,559600
540,000000	58,776500
539,000000	57,978600
538,000000	57,156800
537,000000	56,272700
536,000000	55,370700
535,000000	54,438400
534,000000	53,463400
533,000000	52,480000
532,000000	51,470800
531,000000	50,488700
530,000000	49,495700
529,000000	48,505200
528,000000	47,527200
527,000000	46,578400
526,000000	45,634000
525,000000	44,671900
524,000000	43,744100
523,000000	42,830800
522,000000	41,940700
521,000000	41,075500
520,000000	40,213600
519,000000	39,366200
518,000000	38,513100
517,000000	37,697100
516,000000	36,886000
515,000000	36,094000
514,000000	35,295700
513,000000	34,515100
512,000000	33,734300
511,000000	32,941500
510,000000	32,148100
509,000000	31,382900
508,000000	30,601300
507,000000	29,861300
506,000000	29,143100
505,000000	28,422800
504,000000	27,727800
503,000000	27,055900
502,000000	26,378700
501,000000	25,753600
500,000000	25,159300
499,000000	24,616300
498,000000	24,122800
497,000000	23,655700
496,000000	23,237100
495,000000	22,856200
494,000000	22,511900
493,000000	22,224300
492,000000	21,990900
491,000000	21,774200
490,000000	21,591700
489,000000	21,442400
488,000000	21,317900
487,000000	21,219600
486,000000	21,111600
485,000000	21,008900
484,000000	20,956800
483,000000	20,891200
482,000000	20,818800
481,000000	20,750800
480,000000	20,661200
479,000000	20,584200
478,000000	20,519200
477,000000	20,449200
476,000000	20,381300
475,000000	20,292500
474,000000	20,185600
473,000000	20,093100
472,000000	19,996800
471,000000	19,901800
470,000000	19,797700
469,000000	19,687100
468,000000	19,571700
467,000000	19,443400
466,000000	19,302800
465,000000	19,176900
464,000000	19,061900
463,000000	18,931200
462,000000	18,777800
461,000000	18,633100
460,000000	18,480800
459,000000	18,314300
458,000000	18,173900
457,000000	18,019400
456,000000	17,830500
455,000000	17,653400
454,000000	17,465400
453,000000	17,300300
452,000000	17,097600
451,000000	16,866600
450,000000	16,652100
449,000000	16,453300
448,000000	16,241500
447,000000	15,998400
446,000000	15,763100
445,000000	15,509400
444,000000	15,232700
443,000000	14,978900
442,000000	14,717800
441,000000	14,452100
440,000000	14,173300
439,000000	13,894000
438,000000	13,623100
437,000000	13,335700
436,000000	13,040300
435,000000	12,766700
434,000000	12,472000
433,000000	12,159300
432,000000	11,874200
431,000000	11,595700
430,000000	11,318600
429,000000	11,034300
428,000000	10,756900
427,000000	10,496800
426,000000	10,215900
425,000000	9,937800
424,000000	9,672600
423,000000	9,417200
422,000000	9,180900
421,000000	8,934300
420,000000	8,698400
419,000000	8,462900
418,000000	8,235800
417,000000	8,022100
416,000000	7,814500
415,000000	7,624400
414,000000	7,446200
413,000000	7,273200
412,000000	7,104000
411,000000	6,954700
410,000000	6,824200
409,000000	6,686000
408,000000	6,561800
407,000000	6,448000
406,000000	6,328600
405,000000	6,221300
404,000000	6,134300
403,000000	6,045400
402,000000	5,967900
401,000000	5,885900
400,000000	5,808000
399,000000	5,751000
398,000000	5,704600
397,000000	5,653600
396,000000	5,616500
395,000000	5,559200
394,000000	5,520200
393,000000	5,485500
392,000000	5,448100
391,000000	5,413700
390,000000	5,393600
389,000000	5,374300
388,000000	5,329900
387,000000	5,319600
386,000000	5,310100
385,000000	5,284900
384,000000	5,277400
383,000000	5,244100
382,000000	5,217500
381,000000	5,213400
380,000000	5,202300
379,000000	5,182900
378,000000	5,166900
377,000000	5,164500
376,000000	5,043100
375,000000	4,817400
374,000000	4,828200
373,000000	4,946100
372,000000	4,869200
371,000000	4,965200
370,000000	4,925800
369,000000	4,893400
368,000000	5,034400
367,000000	5,026200
366,000000	5,101400
365,000000	5,128300
364,000000	5,080100
363,000000	5,152300
362,000000	5,013100
361,000000	4,969500
360,000000	5,046200
359,000000	5,098900
358,000000	5,121100
357,000000	5,036700
356,000000	5,172200
355,000000	5,145300
354,000000	5,107600
353,000000	5,083500
352,000000	5,116000
351,000000	5,057800
350,000000	5,039800
349,000000	5,223900
348,000000	5,208200
347,000000	5,242200
346,000000	5,310900
345,000000	5,123300
344,000000	5,113700
343,000000	5,175000
342,000000	5,214900
341,000000	5,154500
340,000000	5,157200
339,000000	5,069500
338,000000	5,074800
337,000000	5,224500
336,000000	5,299200
335,000000	5,375300
334,000000	5,449500
333,000000	5,265300
332,000000	5,190000
331,000000	5,442000
330,000000	5,122600
329,000000	5,343300
328,000000	5,593800
327,000000	5,499500
326,000000	5,803300
325,000000	5,344100
324,000000	5,590700
323,000000	5,604500
322,000000	5,181700
321,000000	5,877900
320,000000	5,646800
319,000000	6,179200
318,000000	5,987900
317,000000	5,936700
316,000000	5,231400
315,000000	5,181700
314,000000	5,232600
313,000000	5,227100
312,000000	5,203700
311,000000	5,244400
310,000000	5,214300
309,000000	5,259700
308,000000	5,249000
307,000000	5,244300
306,000000	5,206100
305,000000	5,256500
304,000000	5,273100
303,000000	5,353400
302,000000	5,296700
301,000000	5,320300
300,000000	5,254300
299,000000	5,225100
298,000000	5,340700
297,000000	5,324700
296,000000	5,344200
295,000000	5,358900
294,000000	5,388000
293,000000	5,347500
292,000000	5,427200
291,000000	5,359600
290,000000	5,452900
289,000000	5,417500
288,000000	5,380400
287,000000	5,434200
286,000000	5,506000
285,000000	5,455900
284,000000	5,484200
283,000000	5,511500
282,000000	5,471400
281,000000	5,466700
280,000000	5,526500
279,000000	5,498100
278,000000	5,563400
277,000000	5,584500
276,000000	5,562000
275,000000	5,601400
274,000000	5,630000
273,000000	5,615300
272,000000	5,632000
271,000000	5,657100
270,000000	5,665600
269,000000	5,737100
268,000000	5,720000
267,000000	5,699300
266,000000	5,772300
265,000000	5,752900
264,000000	5,835600
263,000000	5,849800
262,000000	5,857900
261,000000	5,856500
260,000000	5,928100
259,000000	5,941100
258,000000	5,972600
257,000000	5,982000
256,000000	5,958800
255,000000	6,029600
254,000000	5,979600
253,000000	5,977700
252,000000	6,056800
251,000000	6,039100
250,000000	6,071500
