PE UV       SUBTECH     SPECTRUM    ASCII       PEDS        4.00        
   -1
CICIMAUCR0002-1.Sample.ASC
24/05/03
09:51:02.00
24/05/03
09:51:02.00
Vinicio Soto Monge
C. kalinini
250,000000
1
Lambda 1050
1050L1511233
PerkinElmer UV WinLab 6.3.2.0749 / 2.02.05 Lambda 900 UV/VIS/NIR, Aug  7 2015 09:38:08

0
0
3350/servo 860,8/2
0
0
UV/VIS
1
1
1
DoubleDePol,CommonBeamDepol,RBeamAtt,SBeamAtt,60mm sphere, WB InGaAs Detector
0
0
0
0
Program
Program
3350/servo 860,8/2
3350/0,2 860,8/0,2
3350/0,2 860,8/0,2
0
15.00
 
 
 
0
 
860,8
319,2
860,8
Front
100
on
S:100 R:100
0
0
0
0
 
0
 
 
 
0
 
 
0
0
0
0
0
 
 
 
 
0
0


0
0
#HDR
-1
-1
#GR
nm
%R
1.0
0.0
2500,000000
-1,000000
2251
8
99,963300
5,163900
#DATA
2500,000000	5,315300
2499,000000	5,371300
2498,000000	5,377200
2497,000000	5,356300
2496,000000	5,361200
2495,000000	5,353900
2494,000000	5,365000
2493,000000	5,336300
2492,000000	5,255600
2491,000000	5,290000
2490,000000	5,318500
2489,000000	5,277500
2488,000000	5,296500
2487,000000	5,298100
2486,000000	5,232400
2485,000000	5,230900
2484,000000	5,309500
2483,000000	5,180600
2482,000000	5,186100
2481,000000	5,221600
2480,000000	5,182000
2479,000000	5,201100
2478,000000	5,225400
2477,000000	5,279100
2476,000000	5,235300
2475,000000	5,230200
2474,000000	5,190800
2473,000000	5,220600
2472,000000	5,246200
2471,000000	5,190700
2470,000000	5,185200
2469,000000	5,186700
2468,000000	5,163900
2467,000000	5,205600
2466,000000	5,188100
2465,000000	5,182800
2464,000000	5,185200
2463,000000	5,199800
2462,000000	5,191100
2461,000000	5,211800
2460,000000	5,217300
2459,000000	5,237900
2458,000000	5,280900
2457,000000	5,240300
2456,000000	5,283900
2455,000000	5,287300
2454,000000	5,289200
2453,000000	5,315500
2452,000000	5,314200
2451,000000	5,317900
2450,000000	5,323700
2449,000000	5,330800
2448,000000	5,352900
2447,000000	5,368300
2446,000000	5,393400
2445,000000	5,413900
2444,000000	5,406600
2443,000000	5,442700
2442,000000	5,427000
2441,000000	5,452200
2440,000000	5,467500
2439,000000	5,501800
2438,000000	5,512700
2437,000000	5,523800
2436,000000	5,519300
2435,000000	5,546600
2434,000000	5,539000
2433,000000	5,546600
2432,000000	5,562500
2431,000000	5,575500
2430,000000	5,594900
2429,000000	5,597000
2428,000000	5,621000
2427,000000	5,612000
2426,000000	5,607900
2425,000000	5,631200
2424,000000	5,644700
2423,000000	5,645100
2422,000000	5,647600
2421,000000	5,651900
2420,000000	5,676000
2419,000000	5,673500
2418,000000	5,656700
2417,000000	5,683200
2416,000000	5,704800
2415,000000	5,687500
2414,000000	5,686000
2413,000000	5,705500
2412,000000	5,703900
2411,000000	5,714900
2410,000000	5,712900
2409,000000	5,725300
2408,000000	5,722200
2407,000000	5,721500
2406,000000	5,735700
2405,000000	5,742500
2404,000000	5,730700
2403,000000	5,754700
2402,000000	5,770600
2401,000000	5,768200
2400,000000	5,779500
2399,000000	5,801400
2398,000000	5,824600
2397,000000	5,821400
2396,000000	5,811300
2395,000000	5,811700
2394,000000	5,823200
2393,000000	5,835000
2392,000000	5,843300
2391,000000	5,846000
2390,000000	5,842900
2389,000000	5,852900
2388,000000	5,854500
2387,000000	5,854500
2386,000000	5,851500
2385,000000	5,843100
2384,000000	5,832600
2383,000000	5,847300
2382,000000	5,848900
2381,000000	5,846700
2380,000000	5,846000
2379,000000	5,825300
2378,000000	5,816700
2377,000000	5,817000
2376,000000	5,810300
2375,000000	5,797300
2374,000000	5,795300
2373,000000	5,797100
2372,000000	5,786200
2371,000000	5,776800
2370,000000	5,759200
2369,000000	5,743300
2368,000000	5,738100
2367,000000	5,720500
2366,000000	5,697800
2365,000000	5,670600
2364,000000	5,648100
2363,000000	5,626900
2362,000000	5,617000
2361,000000	5,600700
2360,000000	5,582900
2359,000000	5,570700
2358,000000	5,555000
2357,000000	5,546900
2356,000000	5,531000
2355,000000	5,523800
2354,000000	5,526500
2353,000000	5,524500
2352,000000	5,538900
2351,000000	5,538900
2350,000000	5,544100
2349,000000	5,549100
2348,000000	5,551900
2347,000000	5,556900
2346,000000	5,574500
2345,000000	5,598400
2344,000000	5,607400
2343,000000	5,608700
2342,000000	5,629300
2341,000000	5,652800
2340,000000	5,660600
2339,000000	5,649700
2338,000000	5,655100
2337,000000	5,672100
2336,000000	5,674400
2335,000000	5,671900
2334,000000	5,659400
2333,000000	5,649800
2332,000000	5,644200
2331,000000	5,633500
2330,000000	5,631800
2329,000000	5,614200
2328,000000	5,595300
2327,000000	5,581900
2326,000000	5,555600
2325,000000	5,532300
2324,000000	5,516000
2323,000000	5,489000
2322,000000	5,462700
2321,000000	5,444800
2320,000000	5,423700
2319,000000	5,389700
2318,000000	5,351800
2317,000000	5,326900
2316,000000	5,309800
2315,000000	5,276200
2314,000000	5,254100
2313,000000	5,254700
2312,000000	5,231800
2311,000000	5,216000
2310,000000	5,209100
2309,000000	5,218500
2308,000000	5,208800
2307,000000	5,199000
2306,000000	5,207800
2305,000000	5,221400
2304,000000	5,221100
2303,000000	5,246600
2302,000000	5,280000
2301,000000	5,278800
2300,000000	5,309100
2299,000000	5,325300
2298,000000	5,346300
2297,000000	5,369100
2296,000000	5,404300
2295,000000	5,411700
2294,000000	5,431200
2293,000000	5,441600
2292,000000	5,464100
2291,000000	5,467200
2290,000000	5,500800
2289,000000	5,484800
2288,000000	5,501500
2287,000000	5,506700
2286,000000	5,515400
2285,000000	5,512200
2284,000000	5,518000
2283,000000	5,518300
2282,000000	5,535600
2281,000000	5,515000
2280,000000	5,537700
2279,000000	5,532700
2278,000000	5,536600
2277,000000	5,549500
2276,000000	5,557700
2275,000000	5,544700
2274,000000	5,561100
2273,000000	5,575100
2272,000000	5,560500
2271,000000	5,591700
2270,000000	5,640700
2269,000000	5,637200
2268,000000	5,669700
2267,000000	5,684600
2266,000000	5,716900
2265,000000	5,755800
2264,000000	5,807500
2263,000000	5,859000
2262,000000	5,872600
2261,000000	5,926300
2260,000000	6,009900
2259,000000	6,062700
2258,000000	6,127900
2257,000000	6,195600
2256,000000	6,258600
2255,000000	6,331500
2254,000000	6,401300
2253,000000	6,481700
2252,000000	6,557000
2251,000000	6,623200
2250,000000	6,674000
2249,000000	6,747200
2248,000000	6,819300
2247,000000	6,881100
2246,000000	6,930500
2245,000000	6,963800
2244,000000	7,045200
2243,000000	7,083800
2242,000000	7,116100
2241,000000	7,152300
2240,000000	7,209900
2239,000000	7,246600
2238,000000	7,299300
2237,000000	7,315800
2236,000000	7,375400
2235,000000	7,389300
2234,000000	7,424300
2233,000000	7,444100
2232,000000	7,467100
2231,000000	7,512000
2230,000000	7,518100
2229,000000	7,507700
2228,000000	7,557700
2227,000000	7,570200
2226,000000	7,574400
2225,000000	7,564100
2224,000000	7,573900
2223,000000	7,566300
2222,000000	7,574600
2221,000000	7,587600
2220,000000	7,583800
2219,000000	7,600200
2218,000000	7,586200
2217,000000	7,572600
2216,000000	7,579300
2215,000000	7,580600
2214,000000	7,575000
2213,000000	7,561600
2212,000000	7,570400
2211,000000	7,563700
2210,000000	7,548600
2209,000000	7,569100
2208,000000	7,574800
2207,000000	7,543800
2206,000000	7,539600
2205,000000	7,560300
2204,000000	7,545000
2203,000000	7,564100
2202,000000	7,546000
2201,000000	7,537400
2200,000000	7,539500
2199,000000	7,550000
2198,000000	7,537700
2197,000000	7,529100
2196,000000	7,534100
2195,000000	7,522500
2194,000000	7,520000
2193,000000	7,531500
2192,000000	7,511900
2191,000000	7,504700
2190,000000	7,502100
2189,000000	7,503200
2188,000000	7,497800
2187,000000	7,491100
2186,000000	7,477200
2185,000000	7,484700
2184,000000	7,503300
2183,000000	7,491300
2182,000000	7,452500
2181,000000	7,460300
2180,000000	7,466300
2179,000000	7,459300
2178,000000	7,467100
2177,000000	7,452000
2176,000000	7,452900
2175,000000	7,445200
2174,000000	7,456000
2173,000000	7,466600
2172,000000	7,470500
2171,000000	7,485300
2170,000000	7,487300
2169,000000	7,499400
2168,000000	7,516600
2167,000000	7,512000
2166,000000	7,519600
2165,000000	7,526700
2164,000000	7,537700
2163,000000	7,542400
2162,000000	7,563600
2161,000000	7,580600
2160,000000	7,579900
2159,000000	7,587400
2158,000000	7,599000
2157,000000	7,603400
2156,000000	7,622400
2155,000000	7,644200
2154,000000	7,653000
2153,000000	7,653200
2152,000000	7,668000
2151,000000	7,692600
2150,000000	7,696100
2149,000000	7,705400
2148,000000	7,737600
2147,000000	7,734000
2146,000000	7,750300
2145,000000	7,741000
2144,000000	7,742300
2143,000000	7,759900
2142,000000	7,777900
2141,000000	7,780700
2140,000000	7,779100
2139,000000	7,801700
2138,000000	7,806700
2137,000000	7,808200
2136,000000	7,814500
2135,000000	7,817900
2134,000000	7,811700
2133,000000	7,822500
2132,000000	7,829300
2131,000000	7,840400
2130,000000	7,814800
2129,000000	7,807300
2128,000000	7,816600
2127,000000	7,818400
2126,000000	7,806900
2125,000000	7,801200
2124,000000	7,801000
2123,000000	7,812200
2122,000000	7,800700
2121,000000	7,777200
2120,000000	7,767100
2119,000000	7,774300
2118,000000	7,763200
2117,000000	7,755600
2116,000000	7,745400
2115,000000	7,728600
2114,000000	7,725000
2113,000000	7,724100
2112,000000	7,715700
2111,000000	7,705600
2110,000000	7,690300
2109,000000	7,682900
2108,000000	7,673700
2107,000000	7,661800
2106,000000	7,649700
2105,000000	7,642300
2104,000000	7,644000
2103,000000	7,635500
2102,000000	7,625100
2101,000000	7,615300
2100,000000	7,591600
2099,000000	7,586200
2098,000000	7,594000
2097,000000	7,588000
2096,000000	7,582300
2095,000000	7,580000
2094,000000	7,580700
2093,000000	7,565700
2092,000000	7,560000
2091,000000	7,565300
2090,000000	7,550400
2089,000000	7,542100
2088,000000	7,547200
2087,000000	7,549400
2086,000000	7,548200
2085,000000	7,540900
2084,000000	7,544600
2083,000000	7,547100
2082,000000	7,537200
2081,000000	7,536000
2080,000000	7,533100
2079,000000	7,524000
2078,000000	7,516600
2077,000000	7,496500
2076,000000	7,491800
2075,000000	7,496800
2074,000000	7,495100
2073,000000	7,489900
2072,000000	7,471400
2071,000000	7,446900
2070,000000	7,439900
2069,000000	7,434400
2068,000000	7,427300
2067,000000	7,432700
2066,000000	7,416500
2065,000000	7,383100
2064,000000	7,365800
2063,000000	7,359900
2062,000000	7,354300
2061,000000	7,366600
2060,000000	7,346400
2059,000000	7,324500
2058,000000	7,314400
2057,000000	7,313900
2056,000000	7,321700
2055,000000	7,330900
2054,000000	7,345100
2053,000000	7,363100
2052,000000	7,371700
2051,000000	7,402600
2050,000000	7,435400
2049,000000	7,478200
2048,000000	7,523600
2047,000000	7,564200
2046,000000	7,621900
2045,000000	7,687500
2044,000000	7,744300
2043,000000	7,795800
2042,000000	7,869100
2041,000000	7,942000
2040,000000	8,021000
2039,000000	8,097300
2038,000000	8,157800
2037,000000	8,213100
2036,000000	8,273300
2035,000000	8,332500
2034,000000	8,404400
2033,000000	8,477400
2032,000000	8,518300
2031,000000	8,568100
2030,000000	8,637300
2029,000000	8,687500
2028,000000	8,721900
2027,000000	8,754500
2026,000000	8,810800
2025,000000	8,861000
2024,000000	8,912100
2023,000000	8,945300
2022,000000	8,998600
2021,000000	9,035000
2020,000000	9,083800
2019,000000	9,104100
2018,000000	9,146700
2017,000000	9,170500
2016,000000	9,200900
2015,000000	9,260000
2014,000000	9,285100
2013,000000	9,289700
2012,000000	9,335400
2011,000000	9,360500
2010,000000	9,370400
2009,000000	9,399600
2008,000000	9,427200
2007,000000	9,438500
2006,000000	9,451300
2005,000000	9,468300
2004,000000	9,477200
2003,000000	9,465600
2002,000000	9,479700
2001,000000	9,477300
2000,000000	9,470700
1999,000000	9,462300
1998,000000	9,481900
1997,000000	9,459700
1996,000000	9,439200
1995,000000	9,416100
1994,000000	9,437700
1993,000000	9,389500
1992,000000	9,377800
1991,000000	9,347400
1990,000000	9,332200
1989,000000	9,306200
1988,000000	9,279100
1987,000000	9,239900
1986,000000	9,239700
1985,000000	9,181600
1984,000000	9,149500
1983,000000	9,134000
1982,000000	9,077600
1981,000000	9,043000
1980,000000	9,016500
1979,000000	8,978900
1978,000000	8,952800
1977,000000	8,934300
1976,000000	8,872900
1975,000000	8,843100
1974,000000	8,822700
1973,000000	8,771600
1972,000000	8,740200
1971,000000	8,712700
1970,000000	8,693400
1969,000000	8,645600
1968,000000	8,611900
1967,000000	8,611000
1966,000000	8,564600
1965,000000	8,538400
1964,000000	8,496600
1963,000000	8,478500
1962,000000	8,438200
1961,000000	8,413000
1960,000000	8,390700
1959,000000	8,351500
1958,000000	8,310400
1957,000000	8,296300
1956,000000	8,263400
1955,000000	8,230100
1954,000000	8,224400
1953,000000	8,186600
1952,000000	8,150900
1951,000000	8,134100
1950,000000	8,108300
1949,000000	8,086700
1948,000000	8,071300
1947,000000	8,046200
1946,000000	8,021600
1945,000000	8,017100
1944,000000	8,017400
1943,000000	8,016000
1942,000000	8,015200
1941,000000	8,004500
1940,000000	8,034400
1939,000000	8,037700
1938,000000	8,049300
1937,000000	8,039800
1936,000000	8,044000
1935,000000	8,072300
1934,000000	8,093900
1933,000000	8,103600
1932,000000	8,150200
1931,000000	8,170000
1930,000000	8,220200
1929,000000	8,262400
1928,000000	8,317400
1927,000000	8,366500
1926,000000	8,401800
1925,000000	8,450900
1924,000000	8,503400
1923,000000	8,593600
1922,000000	8,683600
1921,000000	8,783900
1920,000000	8,870000
1919,000000	8,915900
1918,000000	8,959600
1917,000000	9,049600
1916,000000	9,124700
1915,000000	9,235200
1914,000000	9,354500
1913,000000	9,500000
1912,000000	9,590500
1911,000000	9,663000
1910,000000	9,740100
1909,000000	9,837000
1908,000000	9,958300
1907,000000	10,104500
1906,000000	10,268900
1905,000000	10,406400
1904,000000	10,513900
1903,000000	10,640400
1902,000000	10,755900
1901,000000	10,920400
1900,000000	11,077300
1899,000000	11,214500
1898,000000	11,335700
1897,000000	11,454600
1896,000000	11,545000
1895,000000	11,659900
1894,000000	11,781200
1893,000000	11,946400
1892,000000	12,118500
1891,000000	12,278100
1890,000000	12,418700
1889,000000	12,578800
1888,000000	12,740900
1887,000000	12,919200
1886,000000	13,133900
1885,000000	13,408900
1884,000000	13,696600
1883,000000	13,983100
1882,000000	14,270200
1881,000000	14,551700
1880,000000	14,800100
1879,000000	15,092500
1878,000000	15,372700
1877,000000	15,600100
1876,000000	15,840400
1875,000000	16,055400
1874,000000	16,270900
1873,000000	16,448600
1872,000000	16,599000
1871,000000	16,741400
1870,000000	16,859800
1869,000000	16,947800
1868,000000	16,997000
1867,000000	17,016900
1866,000000	17,045200
1865,000000	17,046300
1864,000000	17,052200
1863,000000	17,067100
1862,000000	17,076600
1861,000000	17,059700
1860,000000	17,038000
1859,000000	17,016000
1858,000000	16,994500
1857,000000	16,951000
1856,000000	16,897000
1855,000000	16,847800
1854,000000	16,771000
1853,000000	16,691000
1852,000000	16,630900
1851,000000	16,583800
1850,000000	16,540600
1849,000000	16,471300
1848,000000	16,380500
1847,000000	16,286600
1846,000000	16,219000
1845,000000	16,177100
1844,000000	16,133700
1843,000000	16,112500
1842,000000	16,097600
1841,000000	16,060900
1840,000000	16,015100
1839,000000	15,963000
1838,000000	15,920500
1837,000000	15,864100
1836,000000	15,794800
1835,000000	15,731200
1834,000000	15,666400
1833,000000	15,595000
1832,000000	15,532000
1831,000000	15,467500
1830,000000	15,394400
1829,000000	15,313500
1828,000000	15,237300
1827,000000	15,174800
1826,000000	15,101400
1825,000000	15,022500
1824,000000	14,963500
1823,000000	14,955100
1822,000000	14,955100
1821,000000	14,927700
1820,000000	14,902400
1819,000000	14,884100
1818,000000	14,880300
1817,000000	14,879100
1816,000000	14,879300
1815,000000	14,876000
1814,000000	14,868400
1813,000000	14,844800
1812,000000	14,808700
1811,000000	14,778700
1810,000000	14,744900
1809,000000	14,700500
1808,000000	14,668700
1807,000000	14,635900
1806,000000	14,589700
1805,000000	14,551300
1804,000000	14,513100
1803,000000	14,482900
1802,000000	14,441200
1801,000000	14,411600
1800,000000	14,346800
1799,000000	14,306100
1798,000000	14,283700
1797,000000	14,247100
1796,000000	14,210600
1795,000000	14,160200
1794,000000	14,123300
1793,000000	14,073700
1792,000000	14,033300
1791,000000	13,987200
1790,000000	13,932200
1789,000000	13,883300
1788,000000	13,821700
1787,000000	13,748400
1786,000000	13,696100
1785,000000	13,642000
1784,000000	13,577800
1783,000000	13,486400
1782,000000	13,418900
1781,000000	13,348300
1780,000000	13,275200
1779,000000	13,206400
1778,000000	13,111500
1777,000000	13,018200
1776,000000	12,918600
1775,000000	12,812200
1774,000000	12,708200
1773,000000	12,581400
1772,000000	12,468200
1771,000000	12,360100
1770,000000	12,238700
1769,000000	12,137600
1768,000000	12,063700
1767,000000	11,952000
1766,000000	11,885300
1765,000000	11,857900
1764,000000	11,850900
1763,000000	11,865300
1762,000000	11,903200
1761,000000	11,943000
1760,000000	12,001100
1759,000000	12,051500
1758,000000	12,113200
1757,000000	12,156600
1756,000000	12,204700
1755,000000	12,214900
1754,000000	12,220900
1753,000000	12,211200
1752,000000	12,205500
1751,000000	12,169900
1750,000000	12,130800
1749,000000	12,065100
1748,000000	12,027900
1747,000000	11,950000
1746,000000	11,838800
1745,000000	11,739000
1744,000000	11,597900
1743,000000	11,457400
1742,000000	11,280000
1741,000000	11,112700
1740,000000	10,928800
1739,000000	10,770500
1738,000000	10,633200
1737,000000	10,502500
1736,000000	10,430200
1735,000000	10,374600
1734,000000	10,370100
1733,000000	10,394700
1732,000000	10,429800
1731,000000	10,508100
1730,000000	10,592900
1729,000000	10,687200
1728,000000	10,776100
1727,000000	10,859800
1726,000000	10,906000
1725,000000	10,967100
1724,000000	11,003800
1723,000000	11,038100
1722,000000	11,053400
1721,000000	11,088200
1720,000000	11,117400
1719,000000	11,150100
1718,000000	11,178500
1717,000000	11,234300
1716,000000	11,274100
1715,000000	11,336300
1714,000000	11,374600
1713,000000	11,426200
1712,000000	11,472600
1711,000000	11,487300
1710,000000	11,526100
1709,000000	11,525800
1708,000000	11,548700
1707,000000	11,521500
1706,000000	11,547400
1705,000000	11,527200
1704,000000	11,488800
1703,000000	11,451100
1702,000000	11,406200
1701,000000	11,333700
1700,000000	11,254900
1699,000000	11,196600
1698,000000	11,121800
1697,000000	11,119000
1696,000000	11,114300
1695,000000	11,153700
1694,000000	11,241100
1693,000000	11,355200
1692,000000	11,476900
1691,000000	11,561900
1690,000000	11,642400
1689,000000	11,713200
1688,000000	11,717800
1687,000000	11,700900
1686,000000	11,719400
1685,000000	11,772200
1684,000000	11,890800
1683,000000	12,089400
1682,000000	12,401300
1681,000000	12,761200
1680,000000	13,139600
1679,000000	13,528500
1678,000000	13,907300
1677,000000	14,235500
1676,000000	14,558400
1675,000000	14,827800
1674,000000	15,059600
1673,000000	15,266600
1672,000000	15,430900
1671,000000	15,593600
1670,000000	15,722400
1669,000000	15,820100
1668,000000	15,934600
1667,000000	16,025500
1666,000000	16,068100
1665,000000	16,135300
1664,000000	16,193400
1663,000000	16,232300
1662,000000	16,280200
1661,000000	16,323200
1660,000000	16,351100
1659,000000	16,371000
1658,000000	16,373300
1657,000000	16,372400
1656,000000	16,376400
1655,000000	16,380400
1654,000000	16,369100
1653,000000	16,353400
1652,000000	16,311800
1651,000000	16,300500
1650,000000	16,267300
1649,000000	16,240500
1648,000000	16,207600
1647,000000	16,164900
1646,000000	16,121400
1645,000000	16,078400
1644,000000	16,024500
1643,000000	15,984300
1642,000000	15,924900
1641,000000	15,881900
1640,000000	15,840600
1639,000000	15,770500
1638,000000	15,719100
1637,000000	15,676300
1636,000000	15,618300
1635,000000	15,567700
1634,000000	15,505800
1633,000000	15,442100
1632,000000	15,387000
1631,000000	15,335300
1630,000000	15,266500
1629,000000	15,218300
1628,000000	15,148600
1627,000000	15,084900
1626,000000	15,019600
1625,000000	14,961700
1624,000000	14,922300
1623,000000	14,861800
1622,000000	14,797200
1621,000000	14,731300
1620,000000	14,688300
1619,000000	14,641700
1618,000000	14,587500
1617,000000	14,527800
1616,000000	14,477900
1615,000000	14,427900
1614,000000	14,386900
1613,000000	14,350500
1612,000000	14,296900
1611,000000	14,249400
1610,000000	14,226200
1609,000000	14,189200
1608,000000	14,146000
1607,000000	14,117000
1606,000000	14,077200
1605,000000	14,030600
1604,000000	13,986400
1603,000000	13,951500
1602,000000	13,901800
1601,000000	13,877600
1600,000000	13,844900
1599,000000	13,807400
1598,000000	13,772900
1597,000000	13,745700
1596,000000	13,721500
1595,000000	13,703300
1594,000000	13,674900
1593,000000	13,641600
1592,000000	13,627700
1591,000000	13,619500
1590,000000	13,603300
1589,000000	13,584700
1588,000000	13,566300
1587,000000	13,553400
1586,000000	13,535900
1585,000000	13,529400
1584,000000	13,519700
1583,000000	13,503000
1582,000000	13,500100
1581,000000	13,498400
1580,000000	13,496000
1579,000000	13,492500
1578,000000	13,498500
1577,000000	13,505300
1576,000000	13,523300
1575,000000	13,538300
1574,000000	13,551300
1573,000000	13,554700
1572,000000	13,564400
1571,000000	13,581200
1570,000000	13,596100
1569,000000	13,627100
1568,000000	13,658200
1567,000000	13,680400
1566,000000	13,701200
1565,000000	13,720400
1564,000000	13,742500
1563,000000	13,760600
1562,000000	13,776000
1561,000000	13,787800
1560,000000	13,806700
1559,000000	13,831200
1558,000000	13,838600
1557,000000	13,847000
1556,000000	13,840200
1555,000000	13,844200
1554,000000	13,858000
1553,000000	13,852000
1552,000000	13,839300
1551,000000	13,843400
1550,000000	13,838700
1549,000000	13,848100
1548,000000	13,842300
1547,000000	13,835000
1546,000000	13,823600
1545,000000	13,817100
1544,000000	13,819300
1543,000000	13,815200
1542,000000	13,815500
1541,000000	13,819900
1540,000000	13,822900
1539,000000	13,806700
1538,000000	13,815500
1537,000000	13,824300
1536,000000	13,823600
1535,000000	13,825500
1534,000000	13,810500
1533,000000	13,805100
1532,000000	13,812000
1531,000000	13,827400
1530,000000	13,819000
1529,000000	13,808200
1528,000000	13,793700
1527,000000	13,787500
1526,000000	13,807300
1525,000000	13,793500
1524,000000	13,799700
1523,000000	13,786500
1522,000000	13,776900
1521,000000	13,775200
1520,000000	13,770200
1519,000000	13,763300
1518,000000	13,769800
1517,000000	13,766000
1516,000000	13,752200
1515,000000	13,758900
1514,000000	13,741000
1513,000000	13,754800
1512,000000	13,743600
1511,000000	13,734000
1510,000000	13,735500
1509,000000	13,716000
1508,000000	13,728000
1507,000000	13,724300
1506,000000	13,715000
1505,000000	13,706800
1504,000000	13,712900
1503,000000	13,719500
1502,000000	13,727000
1501,000000	13,711300
1500,000000	13,713400
1499,000000	13,714000
1498,000000	13,727300
1497,000000	13,743500
1496,000000	13,754000
1495,000000	13,755600
1494,000000	13,770100
1493,000000	13,788600
1492,000000	13,800700
1491,000000	13,813100
1490,000000	13,830000
1489,000000	13,812700
1488,000000	13,841100
1487,000000	13,839300
1486,000000	13,876100
1485,000000	13,884500
1484,000000	13,900700
1483,000000	13,928200
1482,000000	13,944400
1481,000000	13,977700
1480,000000	13,993600
1479,000000	14,021000
1478,000000	14,055600
1477,000000	14,072800
1476,000000	14,117500
1475,000000	14,137800
1474,000000	14,186800
1473,000000	14,222000
1472,000000	14,246400
1471,000000	14,259900
1470,000000	14,306100
1469,000000	14,308700
1468,000000	14,354300
1467,000000	14,386100
1466,000000	14,425000
1465,000000	14,447700
1464,000000	14,485500
1463,000000	14,528100
1462,000000	14,565500
1461,000000	14,631000
1460,000000	14,670500
1459,000000	14,733600
1458,000000	14,806500
1457,000000	14,867100
1456,000000	14,943100
1455,000000	15,014800
1454,000000	15,080200
1453,000000	15,150600
1452,000000	15,265300
1451,000000	15,341600
1450,000000	15,412600
1449,000000	15,483800
1448,000000	15,586700
1447,000000	15,694600
1446,000000	15,816800
1445,000000	15,919100
1444,000000	16,009400
1443,000000	16,124400
1442,000000	16,213300
1441,000000	16,329000
1440,000000	16,413900
1439,000000	16,520000
1438,000000	16,529000
1437,000000	16,616600
1436,000000	16,701500
1435,000000	16,804600
1434,000000	16,923700
1433,000000	17,051700
1432,000000	17,132000
1431,000000	17,276900
1430,000000	17,379000
1429,000000	17,526900
1428,000000	17,692000
1427,000000	17,878700
1426,000000	18,056100
1425,000000	18,252900
1424,000000	18,427000
1423,000000	18,600600
1422,000000	18,794700
1421,000000	18,994700
1420,000000	19,186500
1419,000000	19,364400
1418,000000	19,510900
1417,000000	19,691200
1416,000000	19,855700
1415,000000	20,072000
1414,000000	20,216700
1413,000000	20,375600
1412,000000	20,541800
1411,000000	20,770200
1410,000000	21,045700
1409,000000	21,313700
1408,000000	21,608100
1407,000000	21,934500
1406,000000	22,262400
1405,000000	22,554700
1404,000000	22,902800
1403,000000	23,186800
1402,000000	23,550900
1401,000000	23,829600
1400,000000	24,040000
1399,000000	24,188100
1398,000000	24,361700
1397,000000	24,545100
1396,000000	24,652100
1395,000000	24,704300
1394,000000	24,784800
1393,000000	24,892700
1392,000000	24,980400
1391,000000	25,109400
1390,000000	25,276300
1389,000000	25,509600
1388,000000	25,721700
1387,000000	25,988600
1386,000000	26,300900
1385,000000	26,655300
1384,000000	26,983700
1383,000000	27,278300
1382,000000	27,454700
1381,000000	27,491000
1380,000000	27,583500
1379,000000	27,605800
1378,000000	27,679300
1377,000000	27,758400
1376,000000	27,934100
1375,000000	28,196200
1374,000000	28,529100
1373,000000	28,908000
1372,000000	29,317300
1371,000000	29,685800
1370,000000	30,034100
1369,000000	30,390500
1368,000000	30,669600
1367,000000	30,909200
1366,000000	31,149800
1365,000000	31,341500
1364,000000	31,505400
1363,000000	31,696600
1362,000000	31,801800
1361,000000	31,868600
1360,000000	31,913600
1359,000000	32,006700
1358,000000	32,193500
1357,000000	32,522700
1356,000000	33,038300
1355,000000	33,673100
1354,000000	34,344700
1353,000000	35,078600
1352,000000	35,799700
1351,000000	36,472700
1350,000000	37,065900
1349,000000	37,598500
1348,000000	38,096400
1347,000000	38,568800
1346,000000	39,017800
1345,000000	39,465800
1344,000000	39,863000
1343,000000	40,250200
1342,000000	40,610300
1341,000000	40,966900
1340,000000	41,308300
1339,000000	41,628300
1338,000000	41,927300
1337,000000	42,227000
1336,000000	42,501500
1335,000000	42,768800
1334,000000	43,018200
1333,000000	43,259300
1332,000000	43,491800
1331,000000	43,706500
1330,000000	43,910300
1329,000000	44,101500
1328,000000	44,292400
1327,000000	44,464800
1326,000000	44,629200
1325,000000	44,789000
1324,000000	44,934200
1323,000000	45,073800
1322,000000	45,198300
1321,000000	45,325400
1320,000000	45,449400
1319,000000	45,565300
1318,000000	45,674200
1317,000000	45,768500
1316,000000	45,862900
1315,000000	45,967600
1314,000000	46,065500
1313,000000	46,135900
1312,000000	46,200600
1311,000000	46,277100
1310,000000	46,325400
1309,000000	46,371700
1308,000000	46,426200
1307,000000	46,455200
1306,000000	46,478100
1305,000000	46,505800
1304,000000	46,519400
1303,000000	46,520300
1302,000000	46,507600
1301,000000	46,498600
1300,000000	46,486200
1299,000000	46,474200
1298,000000	46,458000
1297,000000	46,436200
1296,000000	46,418500
1295,000000	46,398500
1294,000000	46,367300
1293,000000	46,335000
1292,000000	46,296400
1291,000000	46,245200
1290,000000	46,187000
1289,000000	46,123000
1288,000000	46,058000
1287,000000	45,970800
1286,000000	45,876200
1285,000000	45,790000
1284,000000	45,722000
1283,000000	45,638200
1282,000000	45,541000
1281,000000	45,457400
1280,000000	45,364000
1279,000000	45,274500
1278,000000	45,193600
1277,000000	45,112200
1276,000000	45,037500
1275,000000	44,970400
1274,000000	44,903000
1273,000000	44,838100
1272,000000	44,776800
1271,000000	44,707100
1270,000000	44,642500
1269,000000	44,580600
1268,000000	44,512600
1267,000000	44,436000
1266,000000	44,368100
1265,000000	44,309200
1264,000000	44,238700
1263,000000	44,178900
1262,000000	44,125300
1261,000000	44,064200
1260,000000	44,005400
1259,000000	43,950300
1258,000000	43,861700
1257,000000	43,798700
1256,000000	43,732600
1255,000000	43,640900
1254,000000	43,562700
1253,000000	43,477000
1252,000000	43,386500
1251,000000	43,285100
1250,000000	43,171100
1249,000000	43,032600
1248,000000	42,911300
1247,000000	42,766800
1246,000000	42,608400
1245,000000	42,441200
1244,000000	42,261800
1243,000000	42,059200
1242,000000	41,855800
1241,000000	41,645300
1240,000000	41,438100
1239,000000	41,220500
1238,000000	40,981700
1237,000000	40,759500
1236,000000	40,520900
1235,000000	40,279300
1234,000000	40,032600
1233,000000	39,780300
1232,000000	39,528700
1231,000000	39,275400
1230,000000	39,018500
1229,000000	38,764100
1228,000000	38,520000
1227,000000	38,269100
1226,000000	38,011800
1225,000000	37,756400
1224,000000	37,524400
1223,000000	37,285600
1222,000000	37,073000
1221,000000	36,858900
1220,000000	36,655700
1219,000000	36,475400
1218,000000	36,312500
1217,000000	36,152700
1216,000000	35,996600
1215,000000	35,869700
1214,000000	35,735200
1213,000000	35,611400
1212,000000	35,504900
1211,000000	35,416300
1210,000000	35,366200
1209,000000	35,293300
1208,000000	35,270900
1207,000000	35,245500
1206,000000	35,236800
1205,000000	35,231500
1204,000000	35,260800
1203,000000	35,292600
1202,000000	35,284500
1201,000000	35,258800
1200,000000	35,204000
1199,000000	35,113200
1198,000000	34,949800
1197,000000	34,760600
1196,000000	34,472700
1195,000000	34,100300
1194,000000	33,652100
1193,000000	33,142800
1192,000000	32,575500
1191,000000	32,051000
1190,000000	31,565200
1189,000000	31,235900
1188,000000	31,008200
1187,000000	30,981400
1186,000000	31,110900
1185,000000	31,346700
1184,000000	31,747300
1183,000000	32,287300
1182,000000	32,906700
1181,000000	33,531500
1180,000000	34,161800
1179,000000	34,728300
1178,000000	35,170300
1177,000000	35,589600
1176,000000	35,982800
1175,000000	36,353500
1174,000000	36,755500
1173,000000	37,198300
1172,000000	37,625600
1171,000000	38,076900
1170,000000	38,529500
1169,000000	38,977700
1168,000000	39,448700
1167,000000	39,943700
1166,000000	40,415600
1165,000000	40,931700
1164,000000	41,455000
1163,000000	41,941200
1162,000000	42,464100
1161,000000	42,916700
1160,000000	43,388400
1159,000000	43,831700
1158,000000	44,246100
1157,000000	44,612900
1156,000000	44,877900
1155,000000	45,059100
1154,000000	45,152400
1153,000000	45,210300
1152,000000	45,187600
1151,000000	45,159700
1150,000000	45,103100
1149,000000	45,103500
1148,000000	45,145900
1147,000000	45,266100
1146,000000	45,527500
1145,000000	45,889400
1144,000000	46,304400
1143,000000	46,782700
1142,000000	47,284400
1141,000000	47,781600
1140,000000	48,325900
1139,000000	48,886000
1138,000000	49,438800
1137,000000	49,984700
1136,000000	50,544300
1135,000000	51,068900
1134,000000	51,496100
1133,000000	51,927900
1132,000000	52,324600
1131,000000	52,677900
1130,000000	52,981000
1129,000000	53,231900
1128,000000	53,437900
1127,000000	53,599300
1126,000000	53,758600
1125,000000	53,886800
1124,000000	54,001600
1123,000000	54,101200
1122,000000	54,201100
1121,000000	54,280400
1120,000000	54,352900
1119,000000	54,393200
1118,000000	54,409300
1117,000000	54,438700
1116,000000	54,473500
1115,000000	54,476700
1114,000000	54,488400
1113,000000	54,498700
1112,000000	54,515200
1111,000000	54,538900
1110,000000	54,544500
1109,000000	54,545300
1108,000000	54,572500
1107,000000	54,571900
1106,000000	54,598600
1105,000000	54,600500
1104,000000	54,596800
1103,000000	54,597700
1102,000000	54,581500
1101,000000	54,570600
1100,000000	54,585900
1099,000000	54,591100
1098,000000	54,567300
1097,000000	54,549500
1096,000000	54,555900
1095,000000	54,559900
1094,000000	54,554000
1093,000000	54,517000
1092,000000	54,504700
1091,000000	54,487400
1090,000000	54,467700
1089,000000	54,452200
1088,000000	54,435300
1087,000000	54,432700
1086,000000	54,399300
1085,000000	54,380500
1084,000000	54,370000
1083,000000	54,369000
1082,000000	54,361900
1081,000000	54,354000
1080,000000	54,355100
1079,000000	54,336000
1078,000000	54,350800
1077,000000	54,354500
1076,000000	54,363000
1075,000000	54,370500
1074,000000	54,375100
1073,000000	54,391000
1072,000000	54,406200
1071,000000	54,424800
1070,000000	54,436600
1069,000000	54,450300
1068,000000	54,462100
1067,000000	54,481600
1066,000000	54,492400
1065,000000	54,511100
1064,000000	54,523200
1063,000000	54,544600
1062,000000	54,579500
1061,000000	54,603400
1060,000000	54,626800
1059,000000	54,645300
1058,000000	54,663700
1057,000000	54,685100
1056,000000	54,699700
1055,000000	54,717500
1054,000000	54,748900
1053,000000	54,785100
1052,000000	54,823700
1051,000000	54,874400
1050,000000	54,917000
1049,000000	54,965200
1048,000000	55,017800
1047,000000	55,081200
1046,000000	55,136200
1045,000000	55,197300
1044,000000	55,267300
1043,000000	55,343000
1042,000000	55,419600
1041,000000	55,508200
1040,000000	55,593200
1039,000000	55,649000
1038,000000	55,718600
1037,000000	55,800900
1036,000000	55,877600
1035,000000	55,942500
1034,000000	56,009400
1033,000000	56,083200
1032,000000	56,143100
1031,000000	56,214700
1030,000000	56,303300
1029,000000	56,365600
1028,000000	56,407600
1027,000000	56,465400
1026,000000	56,533400
1025,000000	56,598500
1024,000000	56,666700
1023,000000	56,737000
1022,000000	56,803500
1021,000000	56,877000
1020,000000	56,973900
1019,000000	57,061800
1018,000000	57,145600
1017,000000	57,243400
1016,000000	57,339000
1015,000000	57,458600
1014,000000	57,599200
1013,000000	57,737200
1012,000000	57,885000
1011,000000	58,048200
1010,000000	58,207800
1009,000000	58,374000
1008,000000	58,532200
1007,000000	58,696300
1006,000000	58,867600
1005,000000	59,035100
1004,000000	59,200300
1003,000000	59,367300
1002,000000	59,519900
1001,000000	59,680800
1000,000000	59,855600
999,000000	60,019400
998,000000	60,181900
997,000000	60,326800
996,000000	60,492500
995,000000	60,660900
994,000000	60,821300
993,000000	60,984500
992,000000	61,152100
991,000000	61,319500
990,000000	61,474200
989,000000	61,638800
988,000000	61,792700
987,000000	61,946300
986,000000	62,108700
985,000000	62,270400
984,000000	62,438200
983,000000	62,588000
982,000000	62,733000
981,000000	62,864700
980,000000	63,003600
979,000000	63,157700
978,000000	63,292600
977,000000	63,439900
976,000000	63,573000
975,000000	63,705200
974,000000	63,833300
973,000000	63,962700
972,000000	64,093100
971,000000	64,200300
970,000000	64,318700
969,000000	64,437200
968,000000	64,549400
967,000000	64,658500
966,000000	64,772700
965,000000	64,889400
964,000000	64,998200
963,000000	65,104700
962,000000	65,225200
961,000000	65,357000
960,000000	65,447600
959,000000	65,547800
958,000000	65,665100
957,000000	65,762200
956,000000	65,863400
955,000000	65,958700
954,000000	66,035000
953,000000	66,110700
952,000000	66,186200
951,000000	66,259400
950,000000	66,320100
949,000000	66,374500
948,000000	66,450000
947,000000	66,516800
946,000000	66,572000
945,000000	66,646500
944,000000	66,708900
943,000000	66,734900
942,000000	66,810400
941,000000	66,884200
940,000000	66,947600
939,000000	67,013500
938,000000	67,078800
937,000000	67,149200
936,000000	67,219700
935,000000	67,282100
934,000000	67,334100
933,000000	67,383100
932,000000	67,449000
931,000000	67,503000
930,000000	67,552700
929,000000	67,582200
928,000000	67,641300
927,000000	67,708600
926,000000	67,740900
925,000000	67,801500
924,000000	67,856600
923,000000	67,907000
922,000000	67,982400
921,000000	68,028000
920,000000	68,068400
919,000000	68,114700
918,000000	68,158700
917,000000	68,206000
916,000000	68,226900
915,000000	68,275800
914,000000	68,312100
913,000000	68,376600
912,000000	68,390500
911,000000	68,449000
910,000000	68,519900
909,000000	68,590200
908,000000	68,679000
907,000000	68,770300
906,000000	68,878400
905,000000	68,999300
904,000000	69,093000
903,000000	69,218300
902,000000	69,347100
901,000000	69,492800
900,000000	69,638600
899,000000	69,773000
898,000000	69,903400
897,000000	70,018800
896,000000	70,145500
895,000000	70,261600
894,000000	70,363600
893,000000	70,493600
892,000000	70,585500
891,000000	70,686600
890,000000	70,772700
889,000000	70,856300
888,000000	70,943500
887,000000	71,020100
886,000000	71,104500
885,000000	71,171900
884,000000	71,222400
883,000000	71,276500
882,000000	71,342000
881,000000	71,404800
880,000000	71,411200
879,000000	71,410400
878,000000	71,399100
877,000000	71,399800
876,000000	71,332100
875,000000	71,209900
874,000000	71,114600
873,000000	71,108900
872,000000	71,208600
871,000000	71,341300
870,000000	71,499400
869,000000	71,628400
868,000000	71,756400
867,000000	71,880700
866,000000	72,009800
865,000000	72,150600
864,000000	72,285500
863,000000	72,414600
862,000000	72,567000
861,000000	72,719900
860,000000	72,831600
859,000000	72,982300
858,000000	73,146800
857,000000	73,353200
856,000000	73,602800
855,000000	73,825500
854,000000	73,942300
853,000000	74,786800
852,000000	74,649000
851,000000	74,489900
850,000000	74,394400
849,000000	74,823000
848,000000	75,390500
847,000000	75,344100
846,000000	75,254600
845,000000	75,062400
844,000000	75,341800
843,000000	75,695600
842,000000	76,240100
841,000000	76,389800
840,000000	76,385500
839,000000	76,637200
838,000000	76,699400
837,000000	77,305800
836,000000	77,752600
835,000000	77,965600
834,000000	77,954700
833,000000	78,463200
832,000000	78,634500
831,000000	78,931800
830,000000	79,470300
829,000000	79,653100
828,000000	80,104700
827,000000	80,341000
826,000000	80,846100
825,000000	81,070900
824,000000	81,720600
823,000000	82,199200
822,000000	82,491800
821,000000	82,814200
820,000000	83,553800
819,000000	84,070000
818,000000	84,353600
817,000000	84,804500
816,000000	85,119400
815,000000	85,680900
814,000000	86,305200
813,000000	86,678700
812,000000	87,155700
811,000000	87,641000
810,000000	88,067600
809,000000	88,365300
808,000000	88,894600
807,000000	89,335000
806,000000	89,597100
805,000000	90,043200
804,000000	90,362600
803,000000	90,884300
802,000000	91,318700
801,000000	91,811600
800,000000	92,216300
799,000000	92,603100
798,000000	92,995000
797,000000	93,343800
796,000000	93,616800
795,000000	93,976800
794,000000	94,434800
793,000000	94,743300
792,000000	95,105700
791,000000	95,560300
790,000000	95,969900
789,000000	96,143800
788,000000	96,396900
787,000000	96,799700
786,000000	97,069400
785,000000	97,288000
784,000000	97,362000
783,000000	97,625000
782,000000	97,816400
781,000000	97,965300
780,000000	98,202300
779,000000	98,359400
778,000000	98,583400
777,000000	98,683200
776,000000	98,759400
775,000000	98,887200
774,000000	99,094700
773,000000	99,245500
772,000000	99,419600
771,000000	99,533800
770,000000	99,655100
769,000000	99,711800
768,000000	99,785500
767,000000	99,867900
766,000000	99,869000
765,000000	99,901100
764,000000	99,926700
763,000000	99,892400
762,000000	99,963300
761,000000	99,941800
760,000000	99,874600
759,000000	99,889500
758,000000	99,849000
757,000000	99,722800
756,000000	99,612100
755,000000	99,490400
754,000000	99,410600
753,000000	99,357300
752,000000	99,346200
751,000000	99,246500
750,000000	99,138600
749,000000	99,098800
748,000000	99,110100
747,000000	99,039500
746,000000	98,997800
745,000000	98,923600
744,000000	98,772900
743,000000	98,700400
742,000000	98,611000
741,000000	98,554800
740,000000	98,434100
739,000000	98,237500
738,000000	98,052000
737,000000	97,869500
736,000000	97,664600
735,000000	97,410000
734,000000	97,170900
733,000000	96,994700
732,000000	96,725200
731,000000	96,475600
730,000000	96,299300
729,000000	96,112200
728,000000	95,924700
727,000000	95,687200
726,000000	95,473200
725,000000	95,270900
724,000000	95,075100
723,000000	94,858000
722,000000	94,658800
721,000000	94,445100
720,000000	94,076800
719,000000	93,832400
718,000000	93,649300
717,000000	93,324500
716,000000	93,027300
715,000000	92,725700
714,000000	92,350400
713,000000	92,080800
712,000000	91,660300
711,000000	91,187300
710,000000	90,742500
709,000000	90,240500
708,000000	89,697900
707,000000	89,161300
706,000000	88,656100
705,000000	88,127600
704,000000	87,562900
703,000000	86,998100
702,000000	86,489800
701,000000	85,903600
700,000000	85,417200
699,000000	84,984400
698,000000	84,537100
697,000000	84,028100
696,000000	83,515900
695,000000	83,028600
694,000000	82,573700
693,000000	82,085000
692,000000	81,554000
691,000000	80,948700
690,000000	80,433800
689,000000	79,906400
688,000000	79,297300
687,000000	78,720700
686,000000	78,086200
685,000000	77,546100
684,000000	76,966600
683,000000	76,412400
682,000000	75,816000
681,000000	75,260600
680,000000	74,762000
679,000000	74,314200
678,000000	73,888200
677,000000	73,450800
676,000000	73,020400
675,000000	72,654000
674,000000	72,232100
673,000000	71,968500
672,000000	71,491400
671,000000	71,075100
670,000000	70,647000
669,000000	70,172300
668,000000	69,707700
667,000000	69,176600
666,000000	68,621900
665,000000	68,041200
664,000000	67,338900
663,000000	66,701400
662,000000	65,971000
661,000000	65,303700
660,000000	64,676100
659,000000	64,049900
658,000000	63,408200
657,000000	62,913700
656,000000	62,462000
655,000000	62,055700
654,000000	61,759100
653,000000	61,498200
652,000000	61,299200
651,000000	61,212100
650,000000	61,190200
649,000000	61,221300
648,000000	61,276500
647,000000	61,428800
646,000000	61,497600
645,000000	61,571800
644,000000	61,635600
643,000000	61,772500
642,000000	61,780800
641,000000	61,801000
640,000000	61,786500
639,000000	61,777200
638,000000	61,772100
637,000000	61,662500
636,000000	61,544400
635,000000	61,453800
634,000000	61,390100
633,000000	61,351100
632,000000	61,268400
631,000000	61,235800
630,000000	61,252300
629,000000	61,173100
628,000000	61,167400
627,000000	61,163500
626,000000	61,198100
625,000000	61,134100
624,000000	61,168500
623,000000	61,136800
622,000000	61,160400
621,000000	61,111400
620,000000	61,178700
619,000000	61,207100
618,000000	61,247700
617,000000	61,266000
616,000000	61,399100
615,000000	61,462600
614,000000	61,679400
613,000000	61,844200
612,000000	62,118900
611,000000	62,472400
610,000000	62,796200
609,000000	63,186800
608,000000	63,715500
607,000000	64,228500
606,000000	64,707400
605,000000	65,262600
604,000000	65,799100
603,000000	66,399400
602,000000	66,979700
601,000000	67,508800
600,000000	68,093500
599,000000	68,622200
598,000000	69,179500
597,000000	69,669700
596,000000	70,138200
595,000000	70,582900
594,000000	70,978100
593,000000	71,343600
592,000000	71,636700
591,000000	71,898600
590,000000	72,105100
589,000000	72,327400
588,000000	72,508400
587,000000	72,665700
586,000000	72,857000
585,000000	72,975300
584,000000	73,130200
583,000000	73,259500
582,000000	73,351400
581,000000	73,386500
580,000000	73,464400
579,000000	73,416200
578,000000	73,421600
577,000000	73,446200
576,000000	73,438600
575,000000	73,427000
574,000000	73,406300
573,000000	73,369200
572,000000	73,331200
571,000000	73,240000
570,000000	73,141000
569,000000	73,016700
568,000000	72,841000
567,000000	72,639100
566,000000	72,455700
565,000000	72,282400
564,000000	72,034600
563,000000	71,823600
562,000000	71,615700
561,000000	71,348200
560,000000	71,030800
559,000000	70,716700
558,000000	70,380500
557,000000	70,010500
556,000000	69,701800
555,000000	69,299300
554,000000	68,944500
553,000000	68,554900
552,000000	68,108900
551,000000	67,641500
550,000000	67,163200
549,000000	66,649400
548,000000	66,156100
547,000000	65,592700
546,000000	65,016800
545,000000	64,446500
544,000000	63,831100
543,000000	63,188100
542,000000	62,474900
541,000000	61,833000
540,000000	61,146400
539,000000	60,462000
538,000000	59,756300
537,000000	59,101800
536,000000	58,413200
535,000000	57,743600
534,000000	57,058400
533,000000	56,361400
532,000000	55,685200
531,000000	55,043400
530,000000	54,380300
529,000000	53,742900
528,000000	53,067000
527,000000	52,388800
526,000000	51,706400
525,000000	50,997500
524,000000	50,259100
523,000000	49,480400
522,000000	48,717200
521,000000	47,936200
520,000000	47,165200
519,000000	46,380400
518,000000	45,583700
517,000000	44,737800
516,000000	43,942700
515,000000	43,135000
514,000000	42,304700
513,000000	41,470100
512,000000	40,620800
511,000000	39,742300
510,000000	38,851300
509,000000	37,943500
508,000000	37,009700
507,000000	36,103300
506,000000	35,187400
505,000000	34,322100
504,000000	33,454200
503,000000	32,581400
502,000000	31,779600
501,000000	31,004500
500,000000	30,315400
499,000000	29,679600
498,000000	29,156900
497,000000	28,670300
496,000000	28,281200
495,000000	27,944600
494,000000	27,652900
493,000000	27,483800
492,000000	27,370300
491,000000	27,318800
490,000000	27,326700
489,000000	27,386500
488,000000	27,482800
487,000000	27,614700
486,000000	27,780100
485,000000	27,952900
484,000000	28,136000
483,000000	28,335100
482,000000	28,510700
481,000000	28,697500
480,000000	28,841200
479,000000	28,992800
478,000000	29,136000
477,000000	29,285100
476,000000	29,394700
475,000000	29,466000
474,000000	29,543200
473,000000	29,610400
472,000000	29,651700
471,000000	29,673100
470,000000	29,677800
469,000000	29,648800
468,000000	29,600300
467,000000	29,556900
466,000000	29,500700
465,000000	29,385300
464,000000	29,260700
463,000000	29,152100
462,000000	29,015100
461,000000	28,883300
460,000000	28,704900
459,000000	28,543700
458,000000	28,347100
457,000000	28,122200
456,000000	27,941500
455,000000	27,719300
454,000000	27,502600
453,000000	27,239500
452,000000	26,962800
451,000000	26,672900
450,000000	26,382600
449,000000	26,114700
448,000000	25,815400
447,000000	25,511300
446,000000	25,197900
445,000000	24,864500
444,000000	24,518100
443,000000	24,135000
442,000000	23,737100
441,000000	23,334800
440,000000	22,929600
439,000000	22,529200
438,000000	22,112200
437,000000	21,679700
436,000000	21,242000
435,000000	20,784800
434,000000	20,308500
433,000000	19,838000
432,000000	19,376300
431,000000	18,865500
430,000000	18,354500
429,000000	17,883300
428,000000	17,382600
427,000000	16,874000
426,000000	16,376100
425,000000	15,869300
424,000000	15,386500
423,000000	14,905500
422,000000	14,432400
421,000000	13,945500
420,000000	13,465800
419,000000	13,019000
418,000000	12,605400
417,000000	12,186400
416,000000	11,789100
415,000000	11,394700
414,000000	11,029700
413,000000	10,674100
412,000000	10,322300
411,000000	10,020200
410,000000	9,720200
409,000000	9,435200
408,000000	9,195200
407,000000	8,946900
406,000000	8,720800
405,000000	8,524000
404,000000	8,331600
403,000000	8,173100
402,000000	8,002200
401,000000	7,840800
400,000000	7,703500
399,000000	7,571000
398,000000	7,459500
397,000000	7,351600
396,000000	7,261200
395,000000	7,177400
394,000000	7,104800
393,000000	7,025400
392,000000	6,944200
391,000000	6,881100
390,000000	6,816900
389,000000	6,761300
388,000000	6,701700
387,000000	6,621000
386,000000	6,587100
385,000000	6,568100
384,000000	6,518100
383,000000	6,483000
382,000000	6,456400
381,000000	6,428800
380,000000	6,399700
379,000000	6,337800
378,000000	6,306300
377,000000	6,284600
376,000000	6,242800
375,000000	6,299100
374,000000	6,185500
373,000000	6,087900
372,000000	6,139000
371,000000	6,156800
370,000000	6,091500
369,000000	6,030200
368,000000	6,007100
367,000000	6,026300
366,000000	6,047100
365,000000	5,941000
364,000000	5,954400
363,000000	5,889600
362,000000	5,963300
361,000000	5,917500
360,000000	5,928000
359,000000	5,919200
358,000000	5,818600
357,000000	5,867700
356,000000	5,903500
355,000000	5,875800
354,000000	5,810100
353,000000	5,819700
352,000000	5,799200
351,000000	5,790000
350,000000	5,686300
349,000000	5,659400
348,000000	5,664400
347,000000	5,729300
346,000000	5,705700
345,000000	5,611300
344,000000	5,614300
343,000000	5,604100
342,000000	5,655700
341,000000	5,658200
340,000000	5,770500
339,000000	5,660400
338,000000	5,616000
337,000000	5,562300
336,000000	5,636600
335,000000	5,562400
334,000000	5,711300
333,000000	5,731100
332,000000	5,671700
331,000000	5,526500
330,000000	5,515900
329,000000	5,656100
328,000000	5,550600
327,000000	5,509700
326,000000	5,539000
325,000000	5,517800
324,000000	5,452400
323,000000	5,244800
322,000000	5,577100
321,000000	5,686600
320,000000	5,429300
319,000000	5,845800
318,000000	5,767700
317,000000	6,151500
316,000000	5,523300
315,000000	5,481300
314,000000	5,474500
313,000000	5,519800
312,000000	5,480100
311,000000	5,448100
310,000000	5,494600
309,000000	5,508100
308,000000	5,442400
307,000000	5,505100
306,000000	5,499600
305,000000	5,493700
304,000000	5,524300
303,000000	5,532500
302,000000	5,524000
301,000000	5,473000
300,000000	5,508600
299,000000	5,453700
298,000000	5,468100
297,000000	5,499200
296,000000	5,541400
295,000000	5,476600
294,000000	5,551600
293,000000	5,530300
292,000000	5,480400
291,000000	5,500400
290,000000	5,512900
289,000000	5,520900
288,000000	5,540900
287,000000	5,548500
286,000000	5,516500
285,000000	5,559000
284,000000	5,531000
283,000000	5,556700
282,000000	5,575300
281,000000	5,582300
280,000000	5,545700
279,000000	5,611300
278,000000	5,564300
277,000000	5,597000
276,000000	5,609600
275,000000	5,602800
274,000000	5,614300
273,000000	5,620200
272,000000	5,624200
271,000000	5,684200
270,000000	5,721400
269,000000	5,672600
268,000000	5,694000
267,000000	5,717900
266,000000	5,790100
265,000000	5,766300
264,000000	5,808000
263,000000	5,844700
262,000000	5,843900
261,000000	5,881600
260,000000	5,924200
259,000000	5,917600
258,000000	5,967400
257,000000	5,928900
256,000000	5,968000
255,000000	5,957600
254,000000	5,976800
253,000000	5,997400
252,000000	5,960000
251,000000	6,033300
250,000000	5,988300
