PE UV       SUBTECH     SPECTRUM    ASCII       PEDS        4.00        
   -1
CICIMAUCR0019-5.Sample.ASC
24/04/25
14:12:17.00
24/04/25
14:12:17.00
Vinicio Soto Monge
C. cupreomarginata
250,000000
1
Lambda 1050
1050L1511233
PerkinElmer UV WinLab 6.3.2.0749 / 2.02.05 Lambda 900 UV/VIS/NIR, Aug  7 2015 09:38:08

0
0
3350/servo 860,8/2
0
0
UV/VIS
1
1
1
DoubleDePol,CommonBeamDepol,RBeamAtt,SBeamAtt,60mm sphere, WB InGaAs Detector
0
0
0
0
Program
Program
3350/servo 860,8/2
3350/0,2 860,8/0,2
3350/0,2 860,8/0,2
0
15.00
 
 
 
0
 
860,8
319,2
860,8
Front
100
on
S:100 R:100
0
0
0
0
 
0
 
 
 
0
 
 
0
0
0
0
0
 
 
 
 
0
0


0
0
#HDR
-1
-1
#GR
nm
%R
1.0
0.0
2500,000000
-1,000000
2251
8
69,269700
4,960200
#DATA
2500,000000	6,513900
2499,000000	6,479700
2498,000000	6,438600
2497,000000	6,453200
2496,000000	6,371900
2495,000000	6,403500
2494,000000	6,331300
2493,000000	6,298100
2492,000000	6,355900
2491,000000	6,359000
2490,000000	6,328600
2489,000000	6,352500
2488,000000	6,270100
2487,000000	6,302800
2486,000000	6,277200
2485,000000	6,277600
2484,000000	6,307300
2483,000000	6,337500
2482,000000	6,334600
2481,000000	6,243400
2480,000000	6,293700
2479,000000	6,326500
2478,000000	6,262600
2477,000000	6,265000
2476,000000	6,280500
2475,000000	6,295800
2474,000000	6,276100
2473,000000	6,346200
2472,000000	6,281900
2471,000000	6,257000
2470,000000	6,235200
2469,000000	6,282800
2468,000000	6,300400
2467,000000	6,306900
2466,000000	6,324000
2465,000000	6,335400
2464,000000	6,357400
2463,000000	6,356300
2462,000000	6,383300
2461,000000	6,412200
2460,000000	6,412900
2459,000000	6,457600
2458,000000	6,478300
2457,000000	6,548900
2456,000000	6,543900
2455,000000	6,576800
2454,000000	6,639900
2453,000000	6,665800
2452,000000	6,685800
2451,000000	6,740000
2450,000000	6,770300
2449,000000	6,842300
2448,000000	6,846700
2447,000000	6,904400
2446,000000	6,976300
2445,000000	7,014400
2444,000000	7,062900
2443,000000	7,087100
2442,000000	7,124100
2441,000000	7,179200
2440,000000	7,237600
2439,000000	7,266800
2438,000000	7,322100
2437,000000	7,367500
2436,000000	7,393800
2435,000000	7,436600
2434,000000	7,492900
2433,000000	7,527100
2432,000000	7,552600
2431,000000	7,583200
2430,000000	7,628800
2429,000000	7,655700
2428,000000	7,686100
2427,000000	7,712200
2426,000000	7,746700
2425,000000	7,776400
2424,000000	7,780300
2423,000000	7,798000
2422,000000	7,847900
2421,000000	7,858100
2420,000000	7,883000
2419,000000	7,908100
2418,000000	7,920400
2417,000000	7,932900
2416,000000	7,967300
2415,000000	7,992600
2414,000000	8,003300
2413,000000	8,019500
2412,000000	8,048200
2411,000000	8,058500
2410,000000	8,073900
2409,000000	8,115400
2408,000000	8,165300
2407,000000	8,196300
2406,000000	8,235300
2405,000000	8,256600
2404,000000	8,277800
2403,000000	8,295600
2402,000000	8,305300
2401,000000	8,335800
2400,000000	8,368900
2399,000000	8,385800
2398,000000	8,417900
2397,000000	8,439500
2396,000000	8,474300
2395,000000	8,506200
2394,000000	8,514700
2393,000000	8,531100
2392,000000	8,553800
2391,000000	8,574900
2390,000000	8,590400
2389,000000	8,611600
2388,000000	8,626500
2387,000000	8,638200
2386,000000	8,643500
2385,000000	8,639700
2384,000000	8,646100
2383,000000	8,653900
2382,000000	8,643100
2381,000000	8,643200
2380,000000	8,661500
2379,000000	8,652100
2378,000000	8,640200
2377,000000	8,640300
2376,000000	8,636200
2375,000000	8,615300
2374,000000	8,611900
2373,000000	8,598900
2372,000000	8,579400
2371,000000	8,567600
2370,000000	8,555500
2369,000000	8,529000
2368,000000	8,495200
2367,000000	8,473400
2366,000000	8,449200
2365,000000	8,424400
2364,000000	8,393800
2363,000000	8,347100
2362,000000	8,311000
2361,000000	8,275000
2360,000000	8,247300
2359,000000	8,207900
2358,000000	8,167700
2357,000000	8,145000
2356,000000	8,118000
2355,000000	8,099100
2354,000000	8,077800
2353,000000	8,068600
2352,000000	8,066500
2351,000000	8,068500
2350,000000	8,088600
2349,000000	8,099400
2348,000000	8,120200
2347,000000	8,142000
2346,000000	8,175000
2345,000000	8,211800
2344,000000	8,243000
2343,000000	8,263100
2342,000000	8,292800
2341,000000	8,328400
2340,000000	8,353400
2339,000000	8,368600
2338,000000	8,379500
2337,000000	8,393300
2336,000000	8,391100
2335,000000	8,379800
2334,000000	8,380100
2333,000000	8,370900
2332,000000	8,364500
2331,000000	8,342600
2330,000000	8,320400
2329,000000	8,297700
2328,000000	8,245400
2327,000000	8,201700
2326,000000	8,168900
2325,000000	8,125900
2324,000000	8,086100
2323,000000	8,040800
2322,000000	7,988300
2321,000000	7,943500
2320,000000	7,879900
2319,000000	7,802300
2318,000000	7,750800
2317,000000	7,694100
2316,000000	7,621400
2315,000000	7,558900
2314,000000	7,500300
2313,000000	7,434700
2312,000000	7,380700
2311,000000	7,349100
2310,000000	7,302400
2309,000000	7,272300
2308,000000	7,237000
2307,000000	7,220300
2306,000000	7,206100
2305,000000	7,216200
2304,000000	7,226700
2303,000000	7,256900
2302,000000	7,294900
2301,000000	7,329200
2300,000000	7,369300
2299,000000	7,438300
2298,000000	7,481500
2297,000000	7,554300
2296,000000	7,606300
2295,000000	7,668400
2294,000000	7,706400
2293,000000	7,746700
2292,000000	7,788800
2291,000000	7,823200
2290,000000	7,839700
2289,000000	7,851200
2288,000000	7,858500
2287,000000	7,874200
2286,000000	7,853500
2285,000000	7,847500
2284,000000	7,831700
2283,000000	7,822600
2282,000000	7,776800
2281,000000	7,760800
2280,000000	7,721200
2279,000000	7,684600
2278,000000	7,671500
2277,000000	7,641400
2276,000000	7,614000
2275,000000	7,572900
2274,000000	7,584700
2273,000000	7,565400
2272,000000	7,556000
2271,000000	7,558900
2270,000000	7,572100
2269,000000	7,597400
2268,000000	7,648700
2267,000000	7,688100
2266,000000	7,740900
2265,000000	7,814800
2264,000000	7,901200
2263,000000	8,000100
2262,000000	8,110700
2261,000000	8,243100
2260,000000	8,400400
2259,000000	8,557500
2258,000000	8,696200
2257,000000	8,868600
2256,000000	9,039700
2255,000000	9,235400
2254,000000	9,403300
2253,000000	9,582500
2252,000000	9,754500
2251,000000	9,927200
2250,000000	10,081500
2249,000000	10,240900
2248,000000	10,391700
2247,000000	10,537200
2246,000000	10,692700
2245,000000	10,779600
2244,000000	10,892500
2243,000000	11,017000
2242,000000	11,112600
2241,000000	11,196200
2240,000000	11,310300
2239,000000	11,377700
2238,000000	11,445800
2237,000000	11,515500
2236,000000	11,609200
2235,000000	11,661100
2234,000000	11,717200
2233,000000	11,768900
2232,000000	11,825400
2231,000000	11,850300
2230,000000	11,898400
2229,000000	11,913700
2228,000000	11,950200
2227,000000	11,977800
2226,000000	11,975900
2225,000000	11,969100
2224,000000	11,995800
2223,000000	11,993100
2222,000000	11,980800
2221,000000	11,973000
2220,000000	11,963000
2219,000000	11,968700
2218,000000	11,928300
2217,000000	11,904900
2216,000000	11,881700
2215,000000	11,873800
2214,000000	11,849000
2213,000000	11,845100
2212,000000	11,818200
2211,000000	11,827900
2210,000000	11,807200
2209,000000	11,783500
2208,000000	11,743000
2207,000000	11,742100
2206,000000	11,730400
2205,000000	11,701300
2204,000000	11,709000
2203,000000	11,696500
2202,000000	11,698900
2201,000000	11,656700
2200,000000	11,645600
2199,000000	11,660100
2198,000000	11,637400
2197,000000	11,619300
2196,000000	11,606800
2195,000000	11,605100
2194,000000	11,621400
2193,000000	11,587200
2192,000000	11,587700
2191,000000	11,585400
2190,000000	11,559300
2189,000000	11,563200
2188,000000	11,547000
2187,000000	11,546500
2186,000000	11,521700
2185,000000	11,501400
2184,000000	11,496700
2183,000000	11,474900
2182,000000	11,470100
2181,000000	11,461100
2180,000000	11,451000
2179,000000	11,424600
2178,000000	11,421000
2177,000000	11,408200
2176,000000	11,414800
2175,000000	11,418800
2174,000000	11,424700
2173,000000	11,424900
2172,000000	11,406900
2171,000000	11,400200
2170,000000	11,419500
2169,000000	11,453900
2168,000000	11,462300
2167,000000	11,471800
2166,000000	11,489800
2165,000000	11,513100
2164,000000	11,509100
2163,000000	11,537600
2162,000000	11,541700
2161,000000	11,555800
2160,000000	11,587800
2159,000000	11,599200
2158,000000	11,609900
2157,000000	11,640800
2156,000000	11,669200
2155,000000	11,692500
2154,000000	11,717000
2153,000000	11,738200
2152,000000	11,759800
2151,000000	11,779900
2150,000000	11,813200
2149,000000	11,847700
2148,000000	11,875300
2147,000000	11,884400
2146,000000	11,899500
2145,000000	11,938400
2144,000000	11,959700
2143,000000	11,956300
2142,000000	11,983900
2141,000000	11,998800
2140,000000	12,001800
2139,000000	12,042200
2138,000000	12,053000
2137,000000	12,044900
2136,000000	12,041100
2135,000000	12,055200
2134,000000	12,061400
2133,000000	12,066300
2132,000000	12,064000
2131,000000	12,072000
2130,000000	12,058100
2129,000000	12,053600
2128,000000	12,052600
2127,000000	12,046100
2126,000000	12,034200
2125,000000	12,013700
2124,000000	12,009400
2123,000000	11,985900
2122,000000	11,947900
2121,000000	11,936400
2120,000000	11,927100
2119,000000	11,912000
2118,000000	11,886200
2117,000000	11,858600
2116,000000	11,821800
2115,000000	11,777700
2114,000000	11,748900
2113,000000	11,724900
2112,000000	11,687600
2111,000000	11,662500
2110,000000	11,638600
2109,000000	11,612100
2108,000000	11,591600
2107,000000	11,561800
2106,000000	11,530100
2105,000000	11,509200
2104,000000	11,486700
2103,000000	11,457300
2102,000000	11,426600
2101,000000	11,399800
2100,000000	11,379900
2099,000000	11,357500
2098,000000	11,325400
2097,000000	11,297600
2096,000000	11,273500
2095,000000	11,248000
2094,000000	11,226000
2093,000000	11,210200
2092,000000	11,200400
2091,000000	11,192600
2090,000000	11,176800
2089,000000	11,163600
2088,000000	11,137100
2087,000000	11,103700
2086,000000	11,087400
2085,000000	11,073700
2084,000000	11,060100
2083,000000	11,040600
2082,000000	11,016100
2081,000000	10,998300
2080,000000	10,985200
2079,000000	10,968600
2078,000000	10,933800
2077,000000	10,912800
2076,000000	10,880900
2075,000000	10,863400
2074,000000	10,847300
2073,000000	10,823600
2072,000000	10,792900
2071,000000	10,761600
2070,000000	10,737600
2069,000000	10,714900
2068,000000	10,702800
2067,000000	10,672300
2066,000000	10,637700
2065,000000	10,612900
2064,000000	10,592300
2063,000000	10,587600
2062,000000	10,571600
2061,000000	10,560700
2060,000000	10,552100
2059,000000	10,540500
2058,000000	10,539500
2057,000000	10,558200
2056,000000	10,554700
2055,000000	10,579300
2054,000000	10,599900
2053,000000	10,628000
2052,000000	10,660300
2051,000000	10,707800
2050,000000	10,749000
2049,000000	10,812000
2048,000000	10,880800
2047,000000	10,964800
2046,000000	11,027800
2045,000000	11,096200
2044,000000	11,175400
2043,000000	11,268200
2042,000000	11,340900
2041,000000	11,420100
2040,000000	11,503500
2039,000000	11,579800
2038,000000	11,644600
2037,000000	11,724400
2036,000000	11,789600
2035,000000	11,872900
2034,000000	11,935000
2033,000000	11,994700
2032,000000	12,032100
2031,000000	12,085100
2030,000000	12,157900
2029,000000	12,191300
2028,000000	12,244200
2027,000000	12,268400
2026,000000	12,305600
2025,000000	12,362900
2024,000000	12,381800
2023,000000	12,407100
2022,000000	12,431500
2021,000000	12,482900
2020,000000	12,500200
2019,000000	12,528400
2018,000000	12,564000
2017,000000	12,562500
2016,000000	12,587900
2015,000000	12,605400
2014,000000	12,604500
2013,000000	12,595200
2012,000000	12,601900
2011,000000	12,622700
2010,000000	12,603800
2009,000000	12,578800
2008,000000	12,587500
2007,000000	12,562300
2006,000000	12,544200
2005,000000	12,524900
2004,000000	12,494500
2003,000000	12,466400
2002,000000	12,433200
2001,000000	12,410200
2000,000000	12,364200
1999,000000	12,311600
1998,000000	12,270000
1997,000000	12,244400
1996,000000	12,193700
1995,000000	12,137900
1994,000000	12,083500
1993,000000	12,019200
1992,000000	11,988600
1991,000000	11,949400
1990,000000	11,895500
1989,000000	11,835600
1988,000000	11,772500
1987,000000	11,692500
1986,000000	11,663900
1985,000000	11,595000
1984,000000	11,515000
1983,000000	11,473400
1982,000000	11,399500
1981,000000	11,335700
1980,000000	11,270500
1979,000000	11,199700
1978,000000	11,147200
1977,000000	11,081800
1976,000000	11,014900
1975,000000	10,946900
1974,000000	10,897100
1973,000000	10,837500
1972,000000	10,785700
1971,000000	10,737600
1970,000000	10,662000
1969,000000	10,605500
1968,000000	10,564200
1967,000000	10,528100
1966,000000	10,450100
1965,000000	10,390100
1964,000000	10,365300
1963,000000	10,284600
1962,000000	10,256000
1961,000000	10,192900
1960,000000	10,141700
1959,000000	10,099500
1958,000000	10,050400
1957,000000	10,025700
1956,000000	9,947700
1955,000000	9,881100
1954,000000	9,872400
1953,000000	9,827100
1952,000000	9,787500
1951,000000	9,733700
1950,000000	9,712000
1949,000000	9,684500
1948,000000	9,638400
1947,000000	9,603700
1946,000000	9,602400
1945,000000	9,543600
1944,000000	9,543600
1943,000000	9,505400
1942,000000	9,520100
1941,000000	9,500100
1940,000000	9,506500
1939,000000	9,526100
1938,000000	9,481400
1937,000000	9,499300
1936,000000	9,494600
1935,000000	9,509700
1934,000000	9,552400
1933,000000	9,586200
1932,000000	9,623800
1931,000000	9,645100
1930,000000	9,702500
1929,000000	9,764900
1928,000000	9,821200
1927,000000	9,866700
1926,000000	9,921300
1925,000000	10,007200
1924,000000	10,101200
1923,000000	10,191600
1922,000000	10,285400
1921,000000	10,403500
1920,000000	10,489700
1919,000000	10,593800
1918,000000	10,719100
1917,000000	10,845900
1916,000000	10,966700
1915,000000	11,122700
1914,000000	11,279800
1913,000000	11,430000
1912,000000	11,572500
1911,000000	11,711800
1910,000000	11,912200
1909,000000	12,095300
1908,000000	12,281500
1907,000000	12,487500
1906,000000	12,690800
1905,000000	12,918800
1904,000000	13,133300
1903,000000	13,348800
1902,000000	13,575900
1901,000000	13,830300
1900,000000	14,075300
1899,000000	14,362000
1898,000000	14,612500
1897,000000	14,861200
1896,000000	15,120500
1895,000000	15,422100
1894,000000	15,721200
1893,000000	16,022000
1892,000000	16,392100
1891,000000	16,743600
1890,000000	17,086900
1889,000000	17,454700
1888,000000	17,865600
1887,000000	18,263600
1886,000000	18,724700
1885,000000	19,242100
1884,000000	19,789300
1883,000000	20,349100
1882,000000	20,908100
1881,000000	21,524800
1880,000000	22,075200
1879,000000	22,613600
1878,000000	23,171700
1877,000000	23,694900
1876,000000	24,209700
1875,000000	24,683900
1874,000000	25,145100
1873,000000	25,579400
1872,000000	25,942200
1871,000000	26,262300
1870,000000	26,562800
1869,000000	26,838400
1868,000000	27,042100
1867,000000	27,215500
1866,000000	27,352200
1865,000000	27,493300
1864,000000	27,606700
1863,000000	27,712600
1862,000000	27,848400
1861,000000	27,964800
1860,000000	28,033100
1859,000000	28,069500
1858,000000	28,092500
1857,000000	28,107600
1856,000000	28,109500
1855,000000	28,098300
1854,000000	28,042700
1853,000000	27,969500
1852,000000	27,914100
1851,000000	27,886900
1850,000000	27,877300
1849,000000	27,833800
1848,000000	27,751300
1847,000000	27,640600
1846,000000	27,523800
1845,000000	27,457100
1844,000000	27,438000
1843,000000	27,440500
1842,000000	27,426100
1841,000000	27,355400
1840,000000	27,290800
1839,000000	27,250900
1838,000000	27,197600
1837,000000	27,120400
1836,000000	27,026900
1835,000000	26,906100
1834,000000	26,805100
1833,000000	26,716600
1832,000000	26,628600
1831,000000	26,536900
1830,000000	26,440000
1829,000000	26,332400
1828,000000	26,226000
1827,000000	26,126800
1826,000000	26,014100
1825,000000	25,928100
1824,000000	25,879100
1823,000000	25,881900
1822,000000	25,855200
1821,000000	25,799600
1820,000000	25,747900
1819,000000	25,699000
1818,000000	25,674400
1817,000000	25,667800
1816,000000	25,653200
1815,000000	25,626500
1814,000000	25,611900
1813,000000	25,600800
1812,000000	25,567700
1811,000000	25,518100
1810,000000	25,471900
1809,000000	25,426200
1808,000000	25,378500
1807,000000	25,335300
1806,000000	25,260500
1805,000000	25,181700
1804,000000	25,122000
1803,000000	25,076900
1802,000000	25,012300
1801,000000	24,938000
1800,000000	24,862700
1799,000000	24,796500
1798,000000	24,748300
1797,000000	24,690500
1796,000000	24,627700
1795,000000	24,563900
1794,000000	24,502400
1793,000000	24,446100
1792,000000	24,371900
1791,000000	24,296300
1790,000000	24,217000
1789,000000	24,139400
1788,000000	24,075700
1787,000000	23,985500
1786,000000	23,889500
1785,000000	23,818000
1784,000000	23,716900
1783,000000	23,595700
1782,000000	23,504000
1781,000000	23,412400
1780,000000	23,309600
1779,000000	23,210100
1778,000000	23,113200
1777,000000	22,995200
1776,000000	22,847100
1775,000000	22,720900
1774,000000	22,567700
1773,000000	22,423100
1772,000000	22,275200
1771,000000	22,121800
1770,000000	21,973700
1769,000000	21,835300
1768,000000	21,696300
1767,000000	21,580200
1766,000000	21,481000
1765,000000	21,412400
1764,000000	21,365900
1763,000000	21,359000
1762,000000	21,374000
1761,000000	21,425600
1760,000000	21,502400
1759,000000	21,610000
1758,000000	21,691800
1757,000000	21,761800
1756,000000	21,811800
1755,000000	21,856300
1754,000000	21,884600
1753,000000	21,868700
1752,000000	21,851700
1751,000000	21,825600
1750,000000	21,754500
1749,000000	21,686700
1748,000000	21,600000
1747,000000	21,491700
1746,000000	21,349800
1745,000000	21,174400
1744,000000	20,995600
1743,000000	20,797400
1742,000000	20,569500
1741,000000	20,302300
1740,000000	20,039400
1739,000000	19,783600
1738,000000	19,545200
1737,000000	19,365600
1736,000000	19,216200
1735,000000	19,108300
1734,000000	19,076500
1733,000000	19,084600
1732,000000	19,166900
1731,000000	19,243900
1730,000000	19,374300
1729,000000	19,494200
1728,000000	19,632900
1727,000000	19,776900
1726,000000	19,873300
1725,000000	19,946600
1724,000000	20,027400
1723,000000	20,066900
1722,000000	20,087000
1721,000000	20,108400
1720,000000	20,109900
1719,000000	20,147500
1718,000000	20,181100
1717,000000	20,231300
1716,000000	20,292500
1715,000000	20,348400
1714,000000	20,424200
1713,000000	20,491700
1712,000000	20,554500
1711,000000	20,568100
1710,000000	20,589200
1709,000000	20,580000
1708,000000	20,559200
1707,000000	20,521000
1706,000000	20,473100
1705,000000	20,398600
1704,000000	20,321000
1703,000000	20,211300
1702,000000	20,104500
1701,000000	19,945200
1700,000000	19,755000
1699,000000	19,576400
1698,000000	19,404200
1697,000000	19,277700
1696,000000	19,227600
1695,000000	19,216900
1694,000000	19,303200
1693,000000	19,429500
1692,000000	19,608100
1691,000000	19,793700
1690,000000	19,956800
1689,000000	20,084400
1688,000000	20,166600
1687,000000	20,185200
1686,000000	20,199100
1685,000000	20,253400
1684,000000	20,381500
1683,000000	20,630700
1682,000000	21,032600
1681,000000	21,564300
1680,000000	22,164500
1679,000000	22,818500
1678,000000	23,454600
1677,000000	24,045700
1676,000000	24,578700
1675,000000	25,098400
1674,000000	25,488200
1673,000000	25,829400
1672,000000	26,119500
1671,000000	26,394900
1670,000000	26,630700
1669,000000	26,827000
1668,000000	26,989700
1667,000000	27,156100
1666,000000	27,260500
1665,000000	27,374700
1664,000000	27,474900
1663,000000	27,548100
1662,000000	27,611300
1661,000000	27,659300
1660,000000	27,703900
1659,000000	27,734300
1658,000000	27,766100
1657,000000	27,778300
1656,000000	27,765500
1655,000000	27,762800
1654,000000	27,741800
1653,000000	27,715000
1652,000000	27,683300
1651,000000	27,647100
1650,000000	27,617100
1649,000000	27,546900
1648,000000	27,494700
1647,000000	27,426800
1646,000000	27,351700
1645,000000	27,279200
1644,000000	27,208900
1643,000000	27,143100
1642,000000	27,061700
1641,000000	27,001400
1640,000000	26,909000
1639,000000	26,814700
1638,000000	26,745700
1637,000000	26,637800
1636,000000	26,552100
1635,000000	26,459600
1634,000000	26,347100
1633,000000	26,265000
1632,000000	26,178900
1631,000000	26,065900
1630,000000	25,973500
1629,000000	25,861100
1628,000000	25,748100
1627,000000	25,651000
1626,000000	25,553400
1625,000000	25,448900
1624,000000	25,343600
1623,000000	25,236300
1622,000000	25,138800
1621,000000	25,028400
1620,000000	24,926000
1619,000000	24,830400
1618,000000	24,729400
1617,000000	24,642800
1616,000000	24,552300
1615,000000	24,447200
1614,000000	24,361800
1613,000000	24,255600
1612,000000	24,159800
1611,000000	24,097500
1610,000000	24,020500
1609,000000	23,919100
1608,000000	23,820500
1607,000000	23,741900
1606,000000	23,650200
1605,000000	23,577700
1604,000000	23,503900
1603,000000	23,403800
1602,000000	23,317500
1601,000000	23,238400
1600,000000	23,181000
1599,000000	23,100200
1598,000000	23,021900
1597,000000	22,951700
1596,000000	22,873100
1595,000000	22,810900
1594,000000	22,754600
1593,000000	22,694900
1592,000000	22,640400
1591,000000	22,584600
1590,000000	22,537300
1589,000000	22,499400
1588,000000	22,450000
1587,000000	22,395500
1586,000000	22,344500
1585,000000	22,307100
1584,000000	22,268600
1583,000000	22,248300
1582,000000	22,212900
1581,000000	22,184900
1580,000000	22,169100
1579,000000	22,157100
1578,000000	22,140100
1577,000000	22,130100
1576,000000	22,120600
1575,000000	22,110700
1574,000000	22,124200
1573,000000	22,130300
1572,000000	22,142100
1571,000000	22,152200
1570,000000	22,158200
1569,000000	22,172700
1568,000000	22,200100
1567,000000	22,225900
1566,000000	22,246700
1565,000000	22,259400
1564,000000	22,279800
1563,000000	22,314000
1562,000000	22,328600
1561,000000	22,331000
1560,000000	22,350100
1559,000000	22,362800
1558,000000	22,366200
1557,000000	22,368100
1556,000000	22,369400
1555,000000	22,370500
1554,000000	22,359300
1553,000000	22,350700
1552,000000	22,332800
1551,000000	22,319800
1550,000000	22,308400
1549,000000	22,289400
1548,000000	22,268600
1547,000000	22,252900
1546,000000	22,236700
1545,000000	22,228200
1544,000000	22,220700
1543,000000	22,207400
1542,000000	22,195300
1541,000000	22,182400
1540,000000	22,167700
1539,000000	22,155900
1538,000000	22,145700
1537,000000	22,141700
1536,000000	22,128500
1535,000000	22,119000
1534,000000	22,085900
1533,000000	22,045000
1532,000000	22,032000
1531,000000	22,004000
1530,000000	21,971900
1529,000000	21,950300
1528,000000	21,924200
1527,000000	21,893500
1526,000000	21,860200
1525,000000	21,830000
1524,000000	21,783400
1523,000000	21,746400
1522,000000	21,710100
1521,000000	21,678900
1520,000000	21,617400
1519,000000	21,571900
1518,000000	21,548400
1517,000000	21,499000
1516,000000	21,461600
1515,000000	21,411500
1514,000000	21,378100
1513,000000	21,326700
1512,000000	21,285300
1511,000000	21,249200
1510,000000	21,201700
1509,000000	21,149800
1508,000000	21,095300
1507,000000	21,035800
1506,000000	20,986500
1505,000000	20,953300
1504,000000	20,910100
1503,000000	20,875200
1502,000000	20,828400
1501,000000	20,783600
1500,000000	20,755500
1499,000000	20,704700
1498,000000	20,675600
1497,000000	20,652400
1496,000000	20,616200
1495,000000	20,578300
1494,000000	20,552800
1493,000000	20,549800
1492,000000	20,515800
1491,000000	20,511600
1490,000000	20,482400
1489,000000	20,462700
1488,000000	20,472300
1487,000000	20,456300
1486,000000	20,444800
1485,000000	20,417000
1484,000000	20,398000
1483,000000	20,412900
1482,000000	20,433100
1481,000000	20,438300
1480,000000	20,444000
1479,000000	20,442200
1478,000000	20,460400
1477,000000	20,462700
1476,000000	20,466000
1475,000000	20,474300
1474,000000	20,506300
1473,000000	20,527400
1472,000000	20,548200
1471,000000	20,574800
1470,000000	20,594000
1469,000000	20,612500
1468,000000	20,644000
1467,000000	20,666800
1466,000000	20,699900
1465,000000	20,727800
1464,000000	20,786700
1463,000000	20,831800
1462,000000	20,888800
1461,000000	20,939400
1460,000000	20,998400
1459,000000	21,081700
1458,000000	21,156200
1457,000000	21,266200
1456,000000	21,359200
1455,000000	21,444200
1454,000000	21,532300
1453,000000	21,648600
1452,000000	21,776300
1451,000000	21,898700
1450,000000	21,955500
1449,000000	22,076300
1448,000000	22,232200
1447,000000	22,357000
1446,000000	22,512400
1445,000000	22,609800
1444,000000	22,761200
1443,000000	22,914500
1442,000000	23,034900
1441,000000	23,218700
1440,000000	23,354200
1439,000000	23,504500
1438,000000	23,657400
1437,000000	23,804800
1436,000000	23,936500
1435,000000	24,103500
1434,000000	24,265900
1433,000000	24,452500
1432,000000	24,619900
1431,000000	24,793200
1430,000000	24,994600
1429,000000	25,228900
1428,000000	25,468300
1427,000000	25,684800
1426,000000	25,939300
1425,000000	26,203400
1424,000000	26,480000
1423,000000	26,766000
1422,000000	27,035500
1421,000000	27,342100
1420,000000	27,675000
1419,000000	27,972800
1418,000000	28,254300
1417,000000	28,532000
1416,000000	28,845700
1415,000000	29,178400
1414,000000	29,476700
1413,000000	29,757000
1412,000000	30,051100
1411,000000	30,439800
1410,000000	30,870700
1409,000000	31,281400
1408,000000	31,747300
1407,000000	32,223700
1406,000000	32,714100
1405,000000	33,209800
1404,000000	33,681800
1403,000000	34,202600
1402,000000	34,715300
1401,000000	35,252700
1400,000000	35,735000
1399,000000	36,071900
1398,000000	36,403700
1397,000000	36,805600
1396,000000	37,182700
1395,000000	37,484900
1394,000000	37,742400
1393,000000	38,013500
1392,000000	38,345100
1391,000000	38,645500
1390,000000	38,975300
1389,000000	39,381100
1388,000000	39,845100
1387,000000	40,288200
1386,000000	40,796100
1385,000000	41,354600
1384,000000	41,922900
1383,000000	42,452200
1382,000000	42,880600
1381,000000	43,192300
1380,000000	43,387700
1379,000000	43,542200
1378,000000	43,649800
1377,000000	43,805400
1376,000000	44,005400
1375,000000	44,275800
1374,000000	44,648000
1373,000000	45,089400
1372,000000	45,577100
1371,000000	46,070800
1370,000000	46,509100
1369,000000	46,919700
1368,000000	47,276300
1367,000000	47,589700
1366,000000	47,873800
1365,000000	48,135400
1364,000000	48,377100
1363,000000	48,604400
1362,000000	48,796800
1361,000000	48,922200
1360,000000	49,008600
1359,000000	49,090500
1358,000000	49,257900
1357,000000	49,526600
1356,000000	49,954600
1355,000000	50,528400
1354,000000	51,157100
1353,000000	51,795400
1352,000000	52,553700
1351,000000	53,247600
1350,000000	53,860900
1349,000000	54,433300
1348,000000	54,952600
1347,000000	55,419000
1346,000000	55,867900
1345,000000	56,332200
1344,000000	56,774900
1343,000000	57,157700
1342,000000	57,524700
1341,000000	57,885200
1340,000000	58,240200
1339,000000	58,563900
1338,000000	58,851400
1337,000000	59,170100
1336,000000	59,478500
1335,000000	59,749700
1334,000000	60,011100
1333,000000	60,260700
1332,000000	60,499100
1331,000000	60,728700
1330,000000	60,956100
1329,000000	61,174700
1328,000000	61,361100
1327,000000	61,534800
1326,000000	61,721800
1325,000000	61,891500
1324,000000	62,058100
1323,000000	62,206400
1322,000000	62,343800
1321,000000	62,480600
1320,000000	62,611300
1319,000000	62,733700
1318,000000	62,848000
1317,000000	62,962700
1316,000000	63,080500
1315,000000	63,187300
1314,000000	63,283400
1313,000000	63,363500
1312,000000	63,443300
1311,000000	63,534900
1310,000000	63,605500
1309,000000	63,669400
1308,000000	63,729800
1307,000000	63,777300
1306,000000	63,830700
1305,000000	63,867500
1304,000000	63,886800
1303,000000	63,898300
1302,000000	63,912500
1301,000000	63,916200
1300,000000	63,912300
1299,000000	63,923100
1298,000000	63,919300
1297,000000	63,911600
1296,000000	63,896000
1295,000000	63,876700
1294,000000	63,867800
1293,000000	63,841500
1292,000000	63,798500
1291,000000	63,757900
1290,000000	63,717700
1289,000000	63,671900
1288,000000	63,612500
1287,000000	63,541400
1286,000000	63,467200
1285,000000	63,390900
1284,000000	63,302900
1283,000000	63,226700
1282,000000	63,139400
1281,000000	63,032400
1280,000000	62,961300
1279,000000	62,895600
1278,000000	62,811600
1277,000000	62,732200
1276,000000	62,663800
1275,000000	62,597400
1274,000000	62,540200
1273,000000	62,474400
1272,000000	62,416700
1271,000000	62,374300
1270,000000	62,326500
1269,000000	62,264300
1268,000000	62,201300
1267,000000	62,141100
1266,000000	62,085800
1265,000000	62,028000
1264,000000	61,958300
1263,000000	61,895400
1262,000000	61,832600
1261,000000	61,763800
1260,000000	61,701800
1259,000000	61,638400
1258,000000	61,576000
1257,000000	61,498400
1256,000000	61,429800
1255,000000	61,345100
1254,000000	61,250300
1253,000000	61,149800
1252,000000	61,066700
1251,000000	60,960700
1250,000000	60,857600
1249,000000	60,733100
1248,000000	60,586800
1247,000000	60,460200
1246,000000	60,320600
1245,000000	60,148000
1244,000000	59,972300
1243,000000	59,803200
1242,000000	59,613900
1241,000000	59,428500
1240,000000	59,226100
1239,000000	59,011500
1238,000000	58,812000
1237,000000	58,593900
1236,000000	58,384100
1235,000000	58,156700
1234,000000	57,941700
1233,000000	57,705000
1232,000000	57,489000
1231,000000	57,240100
1230,000000	57,017400
1229,000000	56,779800
1228,000000	56,531200
1227,000000	56,280800
1226,000000	56,036000
1225,000000	55,804000
1224,000000	55,582000
1223,000000	55,347600
1222,000000	55,111600
1221,000000	54,897800
1220,000000	54,678000
1219,000000	54,475500
1218,000000	54,294300
1217,000000	54,101400
1216,000000	53,916100
1215,000000	53,739200
1214,000000	53,571000
1213,000000	53,429200
1212,000000	53,289700
1211,000000	53,129700
1210,000000	53,017000
1209,000000	52,899700
1208,000000	52,795500
1207,000000	52,698500
1206,000000	52,632000
1205,000000	52,576900
1204,000000	52,542400
1203,000000	52,498500
1202,000000	52,475800
1201,000000	52,418300
1200,000000	52,344200
1199,000000	52,225700
1198,000000	52,080000
1197,000000	51,870200
1196,000000	51,605300
1195,000000	51,268900
1194,000000	50,840900
1193,000000	50,319400
1192,000000	49,720300
1191,000000	49,160800
1190,000000	48,613000
1189,000000	48,156400
1188,000000	47,822600
1187,000000	47,653500
1186,000000	47,656500
1185,000000	47,830800
1184,000000	48,171900
1183,000000	48,673700
1182,000000	49,271100
1181,000000	49,936600
1180,000000	50,579100
1179,000000	51,244000
1178,000000	51,763800
1177,000000	52,247700
1176,000000	52,682100
1175,000000	53,068800
1174,000000	53,480300
1173,000000	53,882000
1172,000000	54,330400
1171,000000	54,766700
1170,000000	55,235200
1169,000000	55,666300
1168,000000	56,141300
1167,000000	56,591000
1166,000000	57,098800
1165,000000	57,534900
1164,000000	58,024500
1163,000000	58,513200
1162,000000	58,978500
1161,000000	59,440000
1160,000000	59,874500
1159,000000	60,284900
1158,000000	60,671900
1157,000000	61,051000
1156,000000	61,329400
1155,000000	61,547300
1154,000000	61,703300
1153,000000	61,795200
1152,000000	61,818100
1151,000000	61,849900
1150,000000	61,842400
1149,000000	61,836300
1148,000000	61,872000
1147,000000	61,956500
1146,000000	62,149700
1145,000000	62,400100
1144,000000	62,700800
1143,000000	63,095500
1142,000000	63,496700
1141,000000	63,909000
1140,000000	64,344500
1139,000000	64,788000
1138,000000	65,237200
1137,000000	65,723700
1136,000000	66,183000
1135,000000	66,651300
1134,000000	67,023300
1133,000000	67,333300
1132,000000	67,697500
1131,000000	67,964900
1130,000000	68,249400
1129,000000	68,458900
1128,000000	68,636700
1127,000000	68,763900
1126,000000	68,874100
1125,000000	68,960000
1124,000000	69,068400
1123,000000	69,125300
1122,000000	69,166800
1121,000000	69,207900
1120,000000	69,232100
1119,000000	69,259500
1118,000000	69,269700
1117,000000	69,249200
1116,000000	69,228600
1115,000000	69,209100
1114,000000	69,198900
1113,000000	69,185700
1112,000000	69,166300
1111,000000	69,138300
1110,000000	69,115600
1109,000000	69,098300
1108,000000	69,066600
1107,000000	69,055300
1106,000000	69,013100
1105,000000	68,994700
1104,000000	68,967700
1103,000000	68,939100
1102,000000	68,905800
1101,000000	68,858900
1100,000000	68,838600
1099,000000	68,801800
1098,000000	68,765900
1097,000000	68,714400
1096,000000	68,678500
1095,000000	68,625700
1094,000000	68,573600
1093,000000	68,525600
1092,000000	68,450600
1091,000000	68,410700
1090,000000	68,366100
1089,000000	68,286600
1088,000000	68,229100
1087,000000	68,170000
1086,000000	68,105700
1085,000000	68,050900
1084,000000	67,976700
1083,000000	67,901000
1082,000000	67,831600
1081,000000	67,769300
1080,000000	67,710500
1079,000000	67,652400
1078,000000	67,584600
1077,000000	67,521900
1076,000000	67,465600
1075,000000	67,402300
1074,000000	67,338300
1073,000000	67,271100
1072,000000	67,213000
1071,000000	67,150700
1070,000000	67,086200
1069,000000	67,029700
1068,000000	66,964200
1067,000000	66,891200
1066,000000	66,816600
1065,000000	66,739400
1064,000000	66,679100
1063,000000	66,605400
1062,000000	66,521300
1061,000000	66,439900
1060,000000	66,361700
1059,000000	66,290900
1058,000000	66,217600
1057,000000	66,121200
1056,000000	66,032600
1055,000000	65,941600
1054,000000	65,852300
1053,000000	65,788200
1052,000000	65,715400
1051,000000	65,631200
1050,000000	65,559800
1049,000000	65,496500
1048,000000	65,425200
1047,000000	65,360900
1046,000000	65,297000
1045,000000	65,234500
1044,000000	65,163200
1043,000000	65,087200
1042,000000	65,035900
1041,000000	64,970700
1040,000000	64,910400
1039,000000	64,857300
1038,000000	64,782500
1037,000000	64,704200
1036,000000	64,627200
1035,000000	64,550000
1034,000000	64,454800
1033,000000	64,380600
1032,000000	64,308000
1031,000000	64,209700
1030,000000	64,117400
1029,000000	64,034000
1028,000000	63,949200
1027,000000	63,854600
1026,000000	63,765700
1025,000000	63,671000
1024,000000	63,574500
1023,000000	63,485700
1022,000000	63,391300
1021,000000	63,310500
1020,000000	63,226500
1019,000000	63,140800
1018,000000	63,076700
1017,000000	62,993900
1016,000000	62,914400
1015,000000	62,857300
1014,000000	62,816200
1013,000000	62,769300
1012,000000	62,739300
1011,000000	62,703600
1010,000000	62,678500
1009,000000	62,675900
1008,000000	62,672600
1007,000000	62,664900
1006,000000	62,657600
1005,000000	62,653400
1004,000000	62,652300
1003,000000	62,639500
1002,000000	62,618600
1001,000000	62,602100
1000,000000	62,613600
999,000000	62,611000
998,000000	62,606200
997,000000	62,602600
996,000000	62,589000
995,000000	62,589800
994,000000	62,604800
993,000000	62,610500
992,000000	62,595700
991,000000	62,600700
990,000000	62,608300
989,000000	62,628500
988,000000	62,632800
987,000000	62,642900
986,000000	62,665000
985,000000	62,680700
984,000000	62,697000
983,000000	62,720600
982,000000	62,754900
981,000000	62,752200
980,000000	62,763500
979,000000	62,794800
978,000000	62,808900
977,000000	62,838600
976,000000	62,856100
975,000000	62,856800
974,000000	62,860800
973,000000	62,879400
972,000000	62,918400
971,000000	62,943000
970,000000	62,931200
969,000000	62,938300
968,000000	62,953500
967,000000	62,967900
966,000000	62,987200
965,000000	63,012200
964,000000	63,019500
963,000000	63,059200
962,000000	63,064400
961,000000	63,113400
960,000000	63,124400
959,000000	63,160300
958,000000	63,209000
957,000000	63,217800
956,000000	63,224100
955,000000	63,267400
954,000000	63,264300
953,000000	63,273600
952,000000	63,306000
951,000000	63,275400
950,000000	63,306600
949,000000	63,302500
948,000000	63,311100
947,000000	63,304000
946,000000	63,330900
945,000000	63,303900
944,000000	63,315100
943,000000	63,325100
942,000000	63,334000
941,000000	63,327500
940,000000	63,376300
939,000000	63,370200
938,000000	63,364500
937,000000	63,372100
936,000000	63,392500
935,000000	63,394500
934,000000	63,396000
933,000000	63,448500
932,000000	63,430500
931,000000	63,465600
930,000000	63,469200
929,000000	63,490100
928,000000	63,509500
927,000000	63,508700
926,000000	63,551300
925,000000	63,553500
924,000000	63,578400
923,000000	63,572700
922,000000	63,585800
921,000000	63,586700
920,000000	63,638200
919,000000	63,608900
918,000000	63,596000
917,000000	63,595900
916,000000	63,583100
915,000000	63,557900
914,000000	63,530600
913,000000	63,541800
912,000000	63,512600
911,000000	63,515900
910,000000	63,502900
909,000000	63,497100
908,000000	63,513500
907,000000	63,507900
906,000000	63,531600
905,000000	63,539500
904,000000	63,584100
903,000000	63,607100
902,000000	63,627600
901,000000	63,686900
900,000000	63,646500
899,000000	63,644200
898,000000	63,683800
897,000000	63,711100
896,000000	63,712600
895,000000	63,720700
894,000000	63,730100
893,000000	63,705900
892,000000	63,617800
891,000000	63,571200
890,000000	63,565100
889,000000	63,528900
888,000000	63,405100
887,000000	63,340100
886,000000	63,259600
885,000000	63,153100
884,000000	63,081400
883,000000	62,969800
882,000000	62,847400
881,000000	62,718600
880,000000	62,552600
879,000000	62,427700
878,000000	62,276200
877,000000	62,142700
876,000000	61,964900
875,000000	61,819000
874,000000	61,644500
873,000000	61,488700
872,000000	61,292600
871,000000	61,104100
870,000000	60,814500
869,000000	60,507000
868,000000	60,166600
867,000000	59,868100
866,000000	59,704200
865,000000	59,698000
864,000000	59,695800
863,000000	59,719000
862,000000	59,745900
861,000000	59,752800
860,000000	59,748200
859,000000	59,724200
858,000000	60,686000
857,000000	66,431800
856,000000	67,433300
855,000000	67,407400
854,000000	67,650300
853,000000	67,714100
852,000000	67,402600
851,000000	67,203900
850,000000	67,163900
849,000000	67,496500
848,000000	67,295500
847,000000	67,309600
846,000000	67,554900
845,000000	67,209600
844,000000	67,190400
843,000000	67,077100
842,000000	67,260400
841,000000	67,208000
840,000000	67,162000
839,000000	67,010100
838,000000	66,890500
837,000000	66,870100
836,000000	66,680300
835,000000	66,555300
834,000000	66,614500
833,000000	66,597000
832,000000	66,659800
831,000000	66,291100
830,000000	66,194000
829,000000	66,359000
828,000000	66,262000
827,000000	66,187400
826,000000	65,990400
825,000000	65,902700
824,000000	65,938100
823,000000	65,669300
822,000000	65,542000
821,000000	65,478800
820,000000	65,296000
819,000000	65,171500
818,000000	65,076200
817,000000	64,960500
816,000000	64,824700
815,000000	64,669600
814,000000	64,586000
813,000000	64,300500
812,000000	64,223600
811,000000	63,939200
810,000000	63,900800
809,000000	63,874100
808,000000	63,735900
807,000000	63,489700
806,000000	63,544400
805,000000	63,371100
804,000000	63,242300
803,000000	63,191200
802,000000	63,007800
801,000000	62,882700
800,000000	62,808400
799,000000	62,741400
798,000000	62,668200
797,000000	62,591400
796,000000	62,479300
795,000000	62,321000
794,000000	62,275400
793,000000	62,225400
792,000000	62,146400
791,000000	62,159500
790,000000	62,083500
789,000000	62,052600
788,000000	61,947100
787,000000	61,772600
786,000000	61,776300
785,000000	61,728900
784,000000	61,666200
783,000000	61,686800
782,000000	61,576900
781,000000	61,439700
780,000000	61,363100
779,000000	61,306500
778,000000	61,305200
777,000000	61,257500
776,000000	61,147500
775,000000	61,072500
774,000000	61,062800
773,000000	60,932000
772,000000	60,920700
771,000000	60,867700
770,000000	60,751600
769,000000	60,635700
768,000000	60,513200
767,000000	60,491500
766,000000	60,399300
765,000000	60,286500
764,000000	60,231400
763,000000	60,202600
762,000000	60,075100
761,000000	59,947100
760,000000	59,904300
759,000000	59,795700
758,000000	59,729400
757,000000	59,595900
756,000000	59,572800
755,000000	59,505800
754,000000	59,361100
753,000000	59,263400
752,000000	59,223800
751,000000	59,175600
750,000000	59,002900
749,000000	58,840800
748,000000	58,788400
747,000000	58,729600
746,000000	58,624500
745,000000	58,532600
744,000000	58,464500
743,000000	58,391200
742,000000	58,310300
741,000000	58,234500
740,000000	58,141100
739,000000	58,056500
738,000000	58,051200
737,000000	57,971600
736,000000	57,837700
735,000000	57,701000
734,000000	57,615100
733,000000	57,505400
732,000000	57,401600
731,000000	57,371000
730,000000	57,294100
729,000000	57,216300
728,000000	57,219700
727,000000	57,194000
726,000000	57,074400
725,000000	56,982300
724,000000	56,954500
723,000000	56,918000
722,000000	56,854800
721,000000	56,846500
720,000000	56,787100
719,000000	56,695900
718,000000	56,663600
717,000000	56,608800
716,000000	56,597200
715,000000	56,537600
714,000000	56,471200
713,000000	56,449900
712,000000	56,361900
711,000000	56,276300
710,000000	56,244000
709,000000	56,161600
708,000000	56,062000
707,000000	55,995000
706,000000	55,923200
705,000000	55,832000
704,000000	55,752100
703,000000	55,640900
702,000000	55,537500
701,000000	55,451300
700,000000	55,278600
699,000000	55,139600
698,000000	54,993800
697,000000	54,829400
696,000000	54,644500
695,000000	54,428200
694,000000	54,223600
693,000000	53,989500
692,000000	53,808500
691,000000	53,599400
690,000000	53,397400
689,000000	53,223800
688,000000	53,006800
687,000000	52,775200
686,000000	52,571400
685,000000	52,335300
684,000000	52,120600
683,000000	51,901100
682,000000	51,716600
681,000000	51,493300
680,000000	51,281600
679,000000	51,104400
678,000000	50,916400
677,000000	50,674100
676,000000	50,486100
675,000000	50,298600
674,000000	50,150800
673,000000	49,983400
672,000000	49,821400
671,000000	49,700500
670,000000	49,545400
669,000000	49,402900
668,000000	49,349200
667,000000	49,264800
666,000000	49,177000
665,000000	49,083700
664,000000	49,056000
663,000000	49,023200
662,000000	48,945400
661,000000	48,938100
660,000000	48,905800
659,000000	48,899200
658,000000	48,892200
657,000000	48,844000
656,000000	48,882900
655,000000	48,816900
654,000000	48,748800
653,000000	48,638700
652,000000	48,574600
651,000000	48,480500
650,000000	48,399300
649,000000	48,331200
648,000000	48,252200
647,000000	48,126300
646,000000	48,042700
645,000000	47,918800
644,000000	47,798700
643,000000	47,649100
642,000000	47,448900
641,000000	47,294500
640,000000	47,101200
639,000000	46,856700
638,000000	46,619700
637,000000	46,379900
636,000000	46,118100
635,000000	45,843400
634,000000	45,597500
633,000000	45,366700
632,000000	45,167100
631,000000	44,962600
630,000000	44,848500
629,000000	44,764000
628,000000	44,724400
627,000000	44,759200
626,000000	44,783700
625,000000	44,944300
624,000000	45,198000
623,000000	45,402400
622,000000	45,729800
621,000000	46,065800
620,000000	46,441100
619,000000	46,821300
618,000000	47,267700
617,000000	47,724500
616,000000	48,215000
615,000000	48,767000
614,000000	49,293500
613,000000	49,859800
612,000000	50,442800
611,000000	51,058900
610,000000	51,684000
609,000000	52,375900
608,000000	52,971200
607,000000	53,693800
606,000000	54,289000
605,000000	55,035600
604,000000	55,666600
603,000000	56,311300
602,000000	57,001200
601,000000	57,600300
600,000000	58,213600
599,000000	58,758300
598,000000	59,308000
597,000000	59,825000
596,000000	60,247000
595,000000	60,768500
594,000000	61,177100
593,000000	61,599300
592,000000	61,968200
591,000000	62,346200
590,000000	62,677600
589,000000	62,971000
588,000000	63,292300
587,000000	63,531500
586,000000	63,862200
585,000000	64,110700
584,000000	64,349800
583,000000	64,601500
582,000000	64,848700
581,000000	65,026500
580,000000	65,231000
579,000000	65,511500
578,000000	65,680500
577,000000	65,871400
576,000000	66,041800
575,000000	66,225700
574,000000	66,358400
573,000000	66,524200
572,000000	66,611000
571,000000	66,681300
570,000000	66,853300
569,000000	66,899000
568,000000	67,012600
567,000000	67,048200
566,000000	67,033400
565,000000	67,029600
564,000000	66,980800
563,000000	66,984100
562,000000	66,885900
561,000000	66,801600
560,000000	66,712000
559,000000	66,404700
558,000000	66,260500
557,000000	66,122500
556,000000	65,942000
555,000000	65,834300
554,000000	65,675200
553,000000	65,440900
552,000000	65,225800
551,000000	64,997300
550,000000	64,781200
549,000000	64,548200
548,000000	64,250500
547,000000	63,924800
546,000000	63,587400
545,000000	63,223500
544,000000	62,729300
543,000000	62,224600
542,000000	61,704200
541,000000	61,090800
540,000000	60,428800
539,000000	59,720700
538,000000	58,992200
537,000000	58,191500
536,000000	57,385600
535,000000	56,525100
534,000000	55,656400
533,000000	54,744700
532,000000	53,841200
531,000000	52,892200
530,000000	51,953700
529,000000	50,992000
528,000000	50,030000
527,000000	49,065200
526,000000	48,103300
525,000000	47,099800
524,000000	46,083700
523,000000	45,107100
522,000000	44,151400
521,000000	43,174300
520,000000	42,205300
519,000000	41,293600
518,000000	40,410000
517,000000	39,550100
516,000000	38,675900
515,000000	37,845200
514,000000	37,068700
513,000000	36,290900
512,000000	35,531700
511,000000	34,799800
510,000000	34,106400
509,000000	33,431100
508,000000	32,774300
507,000000	32,119400
506,000000	31,523900
505,000000	30,959300
504,000000	30,417000
503,000000	29,840800
502,000000	29,267900
501,000000	28,743400
500,000000	28,225400
499,000000	27,744500
498,000000	27,291500
497,000000	26,820500
496,000000	26,387800
495,000000	25,930500
494,000000	25,503500
493,000000	25,101000
492,000000	24,711300
491,000000	24,346000
490,000000	23,986900
489,000000	23,649700
488,000000	23,314900
487,000000	23,008900
486,000000	22,705000
485,000000	22,398500
484,000000	22,087600
483,000000	21,780200
482,000000	21,502900
481,000000	21,228100
480,000000	20,940900
479,000000	20,639900
478,000000	20,349100
477,000000	20,056700
476,000000	19,756200
475,000000	19,472500
474,000000	19,190000
473,000000	18,911400
472,000000	18,629500
471,000000	18,345500
470,000000	18,081700
469,000000	17,811600
468,000000	17,540900
467,000000	17,294200
466,000000	17,046900
465,000000	16,805300
464,000000	16,546500
463,000000	16,289600
462,000000	16,045000
461,000000	15,816600
460,000000	15,586300
459,000000	15,353900
458,000000	15,140900
457,000000	14,942900
456,000000	14,738200
455,000000	14,545200
454,000000	14,387600
453,000000	14,211600
452,000000	14,052800
451,000000	13,927300
450,000000	13,800200
449,000000	13,678300
448,000000	13,557600
447,000000	13,448600
446,000000	13,358500
445,000000	13,265900
444,000000	13,187600
443,000000	13,129700
442,000000	13,072400
441,000000	13,014200
440,000000	12,952900
439,000000	12,896100
438,000000	12,857800
437,000000	12,824800
436,000000	12,787300
435,000000	12,740800
434,000000	12,695200
433,000000	12,652200
432,000000	12,607500
431,000000	12,551900
430,000000	12,510300
429,000000	12,463300
428,000000	12,402000
427,000000	12,354800
426,000000	12,304300
425,000000	12,234400
424,000000	12,144400
423,000000	12,066400
422,000000	11,980300
421,000000	11,891800
420,000000	11,814400
419,000000	11,721000
418,000000	11,618200
417,000000	11,516000
416,000000	11,389600
415,000000	11,253300
414,000000	11,129100
413,000000	11,025600
412,000000	10,881200
411,000000	10,747500
410,000000	10,621000
409,000000	10,483300
408,000000	10,349200
407,000000	10,203900
406,000000	10,062800
405,000000	9,890300
404,000000	9,720500
403,000000	9,576100
402,000000	9,414500
401,000000	9,252300
400,000000	9,092500
399,000000	8,932100
398,000000	8,765600
397,000000	8,612800
396,000000	8,450900
395,000000	8,276800
394,000000	8,107200
393,000000	7,955900
392,000000	7,799900
391,000000	7,633300
390,000000	7,489300
389,000000	7,340300
388,000000	7,194100
387,000000	7,064500
386,000000	6,931100
385,000000	6,782200
384,000000	6,674300
383,000000	6,565500
382,000000	6,452800
381,000000	6,342100
380,000000	6,247400
379,000000	6,151400
378,000000	6,063100
377,000000	5,991000
376,000000	5,879800
375,000000	5,771100
374,000000	5,709800
373,000000	5,747300
372,000000	5,687600
371,000000	5,624900
370,000000	5,610300
369,000000	5,564700
368,000000	5,445300
367,000000	5,362300
366,000000	5,384200
365,000000	5,452400
364,000000	5,387000
363,000000	5,346600
362,000000	5,397400
361,000000	5,366400
360,000000	5,324400
359,000000	5,294100
358,000000	5,251200
357,000000	5,276100
356,000000	5,224800
355,000000	5,186400
354,000000	5,202900
353,000000	5,194100
352,000000	5,235300
351,000000	5,168100
350,000000	5,191700
349,000000	5,200400
348,000000	5,176300
347,000000	5,193100
346,000000	5,118500
345,000000	5,148100
344,000000	5,147600
343,000000	5,069700
342,000000	5,093700
341,000000	5,078200
340,000000	5,114000
339,000000	5,114700
338,000000	5,083900
337,000000	5,041300
336,000000	5,129700
335,000000	5,046300
334,000000	5,051200
333,000000	5,164900
332,000000	5,057900
331,000000	5,184400
330,000000	5,175200
329,000000	5,133800
328,000000	4,960200
327,000000	5,112400
326,000000	5,034100
325,000000	5,107200
324,000000	5,247200
323,000000	5,186500
322,000000	5,170400
321,000000	5,100200
320,000000	5,116200
319,000000	5,402100
318,000000	5,155300
317,000000	5,137300
316,000000	5,164600
315,000000	5,159700
314,000000	5,190800
313,000000	5,187000
312,000000	5,233500
311,000000	5,242200
310,000000	5,194600
309,000000	5,209400
308,000000	5,206500
307,000000	5,230900
306,000000	5,258500
305,000000	5,252900
304,000000	5,234000
303,000000	5,244700
302,000000	5,245200
301,000000	5,306400
300,000000	5,311400
299,000000	5,303600
298,000000	5,295300
297,000000	5,306200
296,000000	5,365000
295,000000	5,322600
294,000000	5,309600
293,000000	5,326100
292,000000	5,360200
291,000000	5,388900
290,000000	5,394400
289,000000	5,361800
288,000000	5,433700
287,000000	5,476500
286,000000	5,401300
285,000000	5,428300
284,000000	5,432100
283,000000	5,483400
282,000000	5,493800
281,000000	5,491200
280,000000	5,504800
279,000000	5,510000
278,000000	5,526800
277,000000	5,528000
276,000000	5,553900
275,000000	5,562100
274,000000	5,590300
273,000000	5,583600
272,000000	5,591500
271,000000	5,615000
270,000000	5,670600
269,000000	5,669300
268,000000	5,656100
267,000000	5,704200
266,000000	5,723000
265,000000	5,751900
264,000000	5,789700
263,000000	5,806700
262,000000	5,833900
261,000000	5,850100
260,000000	5,890600
259,000000	5,907300
258,000000	5,938400
257,000000	5,956000
256,000000	5,985400
255,000000	6,001100
254,000000	6,020900
253,000000	6,028500
252,000000	6,112300
251,000000	6,111200
250,000000	6,078200
