PE UV       SUBTECH     SPECTRUM    ASCII       PEDS        4.00        
   -1
CICIMAUCR0015-3.Sample.ASC
24/04/12
11:43:14.00
24/04/12
11:43:14.00
Vinicio Soto Monge
C. resplendens
250,000000
1
Lambda 1050
1050L1511233
PerkinElmer UV WinLab 6.3.2.0749 / 2.02.05 Lambda 900 UV/VIS/NIR, Aug  7 2015 09:38:08

0
0
3350/servo 860,8/2
0
0
UV/VIS
1
1
1
DoubleDePol,CommonBeamDepol,RBeamAtt,SBeamAtt,60mm sphere, WB InGaAs Detector
0
0
0
0
Program
Program
3350/servo 860,8/2
3350/0,2 860,8/0,2
3350/0,2 860,8/0,2
0
15.00
 
 
 
0
 
860,8
319,2
860,8
Front
100
on
S:100 R:100
0
0
0
0
 
0
 
 
 
0
 
 
0
0
0
0
0
 
 
 
 
0
0


0
0
#HDR
-1
-1
#GR
nm
%R
1.0
0.0
2500,000000
-1,000000
2251
8
93,394800
5,535300
#DATA
2500,000000	7,668900
2499,000000	7,634300
2498,000000	7,505900
2497,000000	7,525700
2496,000000	7,559600
2495,000000	7,535200
2494,000000	7,457500
2493,000000	7,455700
2492,000000	7,496200
2491,000000	7,391900
2490,000000	7,392100
2489,000000	7,381900
2488,000000	7,421400
2487,000000	7,373700
2486,000000	7,387800
2485,000000	7,298100
2484,000000	7,344900
2483,000000	7,379300
2482,000000	7,349900
2481,000000	7,358500
2480,000000	7,357600
2479,000000	7,324700
2478,000000	7,319700
2477,000000	7,352000
2476,000000	7,336400
2475,000000	7,335400
2474,000000	7,304200
2473,000000	7,322800
2472,000000	7,332700
2471,000000	7,305000
2470,000000	7,335800
2469,000000	7,346900
2468,000000	7,357100
2467,000000	7,344000
2466,000000	7,376500
2465,000000	7,381800
2464,000000	7,365900
2463,000000	7,429900
2462,000000	7,455800
2461,000000	7,492900
2460,000000	7,518000
2459,000000	7,563700
2458,000000	7,602400
2457,000000	7,646200
2456,000000	7,700900
2455,000000	7,722700
2454,000000	7,794100
2453,000000	7,862100
2452,000000	7,924000
2451,000000	8,006600
2450,000000	8,066200
2449,000000	8,132400
2448,000000	8,205800
2447,000000	8,280000
2446,000000	8,325700
2445,000000	8,388800
2444,000000	8,461000
2443,000000	8,517300
2442,000000	8,596500
2441,000000	8,665300
2440,000000	8,737900
2439,000000	8,794700
2438,000000	8,867300
2437,000000	8,925900
2436,000000	8,975900
2435,000000	9,036800
2434,000000	9,084600
2433,000000	9,155700
2432,000000	9,201300
2431,000000	9,261000
2430,000000	9,287200
2429,000000	9,334300
2428,000000	9,376600
2427,000000	9,443800
2426,000000	9,497500
2425,000000	9,565100
2424,000000	9,633500
2423,000000	9,666400
2422,000000	9,678000
2421,000000	9,704700
2420,000000	9,745300
2419,000000	9,788500
2418,000000	9,809900
2417,000000	9,844900
2416,000000	9,876100
2415,000000	9,910200
2414,000000	9,952000
2413,000000	9,981100
2412,000000	9,998000
2411,000000	10,032400
2410,000000	10,053600
2409,000000	10,087600
2408,000000	10,105800
2407,000000	10,140700
2406,000000	10,178700
2405,000000	10,215300
2404,000000	10,245400
2403,000000	10,271700
2402,000000	10,293700
2401,000000	10,329300
2400,000000	10,358800
2399,000000	10,392100
2398,000000	10,416100
2397,000000	10,429800
2396,000000	10,464700
2395,000000	10,510000
2394,000000	10,536200
2393,000000	10,560300
2392,000000	10,576700
2391,000000	10,591500
2390,000000	10,615100
2389,000000	10,652900
2388,000000	10,659300
2387,000000	10,673900
2386,000000	10,678600
2385,000000	10,688700
2384,000000	10,708800
2383,000000	10,702600
2382,000000	10,676300
2381,000000	10,673800
2380,000000	10,665900
2379,000000	10,635400
2378,000000	10,634500
2377,000000	10,634200
2376,000000	10,606500
2375,000000	10,587100
2374,000000	10,560100
2373,000000	10,522400
2372,000000	10,500000
2371,000000	10,472500
2370,000000	10,437100
2369,000000	10,399800
2368,000000	10,352200
2367,000000	10,295000
2366,000000	10,239100
2365,000000	10,189100
2364,000000	10,140900
2363,000000	10,085200
2362,000000	10,027600
2361,000000	9,956000
2360,000000	9,879800
2359,000000	9,832900
2358,000000	9,779900
2357,000000	9,731000
2356,000000	9,679000
2355,000000	9,654100
2354,000000	9,642500
2353,000000	9,619600
2352,000000	9,615600
2351,000000	9,635800
2350,000000	9,659500
2349,000000	9,680900
2348,000000	9,694100
2347,000000	9,749500
2346,000000	9,804100
2345,000000	9,831500
2344,000000	9,877500
2343,000000	9,924400
2342,000000	9,954900
2341,000000	9,994300
2340,000000	10,030400
2339,000000	10,036800
2338,000000	10,049500
2337,000000	10,042600
2336,000000	10,033500
2335,000000	10,023100
2334,000000	10,011900
2333,000000	9,990100
2332,000000	9,945500
2331,000000	9,917900
2330,000000	9,858500
2329,000000	9,818800
2328,000000	9,773000
2327,000000	9,714800
2326,000000	9,637200
2325,000000	9,570300
2324,000000	9,496200
2323,000000	9,430600
2322,000000	9,351500
2321,000000	9,258600
2320,000000	9,154100
2319,000000	9,043200
2318,000000	8,944600
2317,000000	8,863100
2316,000000	8,746300
2315,000000	8,619900
2314,000000	8,528300
2313,000000	8,426700
2312,000000	8,339900
2311,000000	8,261000
2310,000000	8,190700
2309,000000	8,144700
2308,000000	8,098100
2307,000000	8,086400
2306,000000	8,079700
2305,000000	8,100300
2304,000000	8,126900
2303,000000	8,178500
2302,000000	8,248500
2301,000000	8,308800
2300,000000	8,406000
2299,000000	8,494600
2298,000000	8,578800
2297,000000	8,668400
2296,000000	8,746400
2295,000000	8,819300
2294,000000	8,889600
2293,000000	8,961200
2292,000000	9,000300
2291,000000	9,034700
2290,000000	9,058900
2289,000000	9,091200
2288,000000	9,081900
2287,000000	9,078800
2286,000000	9,047100
2285,000000	9,023200
2284,000000	9,009700
2283,000000	8,969500
2282,000000	8,929900
2281,000000	8,914000
2280,000000	8,830700
2279,000000	8,796400
2278,000000	8,762000
2277,000000	8,727800
2276,000000	8,671000
2275,000000	8,661600
2274,000000	8,643800
2273,000000	8,644700
2272,000000	8,647200
2271,000000	8,643400
2270,000000	8,681300
2269,000000	8,726700
2268,000000	8,790200
2267,000000	8,869000
2266,000000	8,959500
2265,000000	9,089300
2264,000000	9,236000
2263,000000	9,394400
2262,000000	9,571500
2261,000000	9,782000
2260,000000	10,001500
2259,000000	10,227500
2258,000000	10,459800
2257,000000	10,721700
2256,000000	10,939800
2255,000000	11,206500
2254,000000	11,453400
2253,000000	11,696500
2252,000000	11,917800
2251,000000	12,142600
2250,000000	12,358300
2249,000000	12,551500
2248,000000	12,749000
2247,000000	12,908900
2246,000000	13,078300
2245,000000	13,230900
2244,000000	13,400400
2243,000000	13,513700
2242,000000	13,653800
2241,000000	13,796200
2240,000000	13,892100
2239,000000	13,988500
2238,000000	14,073000
2237,000000	14,158600
2236,000000	14,244400
2235,000000	14,308600
2234,000000	14,376600
2233,000000	14,447400
2232,000000	14,468000
2231,000000	14,515500
2230,000000	14,549700
2229,000000	14,578100
2228,000000	14,612600
2227,000000	14,610300
2226,000000	14,619200
2225,000000	14,620200
2224,000000	14,593100
2223,000000	14,596900
2222,000000	14,591000
2221,000000	14,580500
2220,000000	14,558700
2219,000000	14,520700
2218,000000	14,508600
2217,000000	14,471200
2216,000000	14,442300
2215,000000	14,417900
2214,000000	14,384400
2213,000000	14,369700
2212,000000	14,320500
2211,000000	14,287100
2210,000000	14,287400
2209,000000	14,242100
2208,000000	14,242100
2207,000000	14,234100
2206,000000	14,222300
2205,000000	14,203000
2204,000000	14,178200
2203,000000	14,180200
2202,000000	14,154800
2201,000000	14,136600
2200,000000	14,123500
2199,000000	14,119400
2198,000000	14,095100
2197,000000	14,091100
2196,000000	14,103400
2195,000000	14,087400
2194,000000	14,083500
2193,000000	14,057200
2192,000000	14,069000
2191,000000	14,049300
2190,000000	14,036000
2189,000000	14,039800
2188,000000	14,029600
2187,000000	14,030900
2186,000000	14,019600
2185,000000	14,008600
2184,000000	13,973100
2183,000000	13,963600
2182,000000	13,969400
2181,000000	13,940600
2180,000000	13,937500
2179,000000	13,922000
2178,000000	13,907300
2177,000000	13,903700
2176,000000	13,886500
2175,000000	13,878600
2174,000000	13,883600
2173,000000	13,880700
2172,000000	13,902300
2171,000000	13,917600
2170,000000	13,935800
2169,000000	13,949900
2168,000000	13,963600
2167,000000	13,975600
2166,000000	13,999700
2165,000000	14,021700
2164,000000	14,040500
2163,000000	14,074000
2162,000000	14,100000
2161,000000	14,132700
2160,000000	14,172600
2159,000000	14,213800
2158,000000	14,239000
2157,000000	14,267200
2156,000000	14,324600
2155,000000	14,382500
2154,000000	14,412100
2153,000000	14,451800
2152,000000	14,505700
2151,000000	14,551700
2150,000000	14,601000
2149,000000	14,647100
2148,000000	14,702400
2147,000000	14,741400
2146,000000	14,782800
2145,000000	14,830800
2144,000000	14,875300
2143,000000	14,918200
2142,000000	14,952900
2141,000000	14,990800
2140,000000	15,043000
2139,000000	15,071100
2138,000000	15,110100
2137,000000	15,140700
2136,000000	15,170900
2135,000000	15,210100
2134,000000	15,235600
2133,000000	15,265000
2132,000000	15,278800
2131,000000	15,298600
2130,000000	15,311200
2129,000000	15,323300
2128,000000	15,343500
2127,000000	15,341800
2126,000000	15,342200
2125,000000	15,348400
2124,000000	15,347200
2123,000000	15,341900
2122,000000	15,335000
2121,000000	15,314000
2120,000000	15,285700
2119,000000	15,270700
2118,000000	15,257700
2117,000000	15,238900
2116,000000	15,217700
2115,000000	15,205200
2114,000000	15,188100
2113,000000	15,165200
2112,000000	15,137300
2111,000000	15,125000
2110,000000	15,100100
2109,000000	15,067500
2108,000000	15,043800
2107,000000	15,017600
2106,000000	14,997500
2105,000000	14,971700
2104,000000	14,934900
2103,000000	14,912400
2102,000000	14,895200
2101,000000	14,857600
2100,000000	14,823300
2099,000000	14,806700
2098,000000	14,789000
2097,000000	14,778400
2096,000000	14,776400
2095,000000	14,749400
2094,000000	14,714000
2093,000000	14,699600
2092,000000	14,695900
2091,000000	14,684100
2090,000000	14,661400
2089,000000	14,649100
2088,000000	14,651000
2087,000000	14,646700
2086,000000	14,644800
2085,000000	14,626700
2084,000000	14,600200
2083,000000	14,590300
2082,000000	14,576700
2081,000000	14,559100
2080,000000	14,537200
2079,000000	14,505500
2078,000000	14,484000
2077,000000	14,468200
2076,000000	14,443300
2075,000000	14,399400
2074,000000	14,363700
2073,000000	14,338800
2072,000000	14,309400
2071,000000	14,282300
2070,000000	14,256600
2069,000000	14,218300
2068,000000	14,179800
2067,000000	14,155400
2066,000000	14,119800
2065,000000	14,082200
2064,000000	14,051600
2063,000000	14,023800
2062,000000	13,994600
2061,000000	13,981400
2060,000000	13,985800
2059,000000	13,973700
2058,000000	13,973300
2057,000000	13,987100
2056,000000	14,012000
2055,000000	14,045900
2054,000000	14,087200
2053,000000	14,141400
2052,000000	14,205900
2051,000000	14,286900
2050,000000	14,376400
2049,000000	14,474300
2048,000000	14,595400
2047,000000	14,725300
2046,000000	14,873400
2045,000000	15,001300
2044,000000	15,122100
2043,000000	15,272400
2042,000000	15,429600
2041,000000	15,581600
2040,000000	15,735000
2039,000000	15,865100
2038,000000	16,003400
2037,000000	16,156900
2036,000000	16,280800
2035,000000	16,399500
2034,000000	16,527400
2033,000000	16,643900
2032,000000	16,751600
2031,000000	16,861400
2030,000000	16,977300
2029,000000	17,066000
2028,000000	17,145300
2027,000000	17,236500
2026,000000	17,334700
2025,000000	17,419800
2024,000000	17,506600
2023,000000	17,586600
2022,000000	17,657400
2021,000000	17,744600
2020,000000	17,808100
2019,000000	17,895700
2018,000000	17,948800
2017,000000	17,993000
2016,000000	18,060200
2015,000000	18,120000
2014,000000	18,174100
2013,000000	18,211700
2012,000000	18,247300
2011,000000	18,287600
2010,000000	18,323100
2009,000000	18,345600
2008,000000	18,369500
2007,000000	18,379600
2006,000000	18,389400
2005,000000	18,399300
2004,000000	18,402500
2003,000000	18,397000
2002,000000	18,382500
2001,000000	18,386500
2000,000000	18,330500
1999,000000	18,325100
1998,000000	18,306500
1997,000000	18,291900
1996,000000	18,240100
1995,000000	18,207400
1994,000000	18,160200
1993,000000	18,121200
1992,000000	18,096500
1991,000000	18,031500
1990,000000	17,975200
1989,000000	17,913800
1988,000000	17,844700
1987,000000	17,785600
1986,000000	17,720200
1985,000000	17,647000
1984,000000	17,591600
1983,000000	17,529800
1982,000000	17,448200
1981,000000	17,368700
1980,000000	17,317800
1979,000000	17,231800
1978,000000	17,150400
1977,000000	17,074300
1976,000000	17,018800
1975,000000	16,927500
1974,000000	16,873400
1973,000000	16,802500
1972,000000	16,721200
1971,000000	16,667500
1970,000000	16,570400
1969,000000	16,530400
1968,000000	16,447600
1967,000000	16,389600
1966,000000	16,321200
1965,000000	16,255400
1964,000000	16,171300
1963,000000	16,134700
1962,000000	16,049700
1961,000000	15,974500
1960,000000	15,910600
1959,000000	15,853600
1958,000000	15,766300
1957,000000	15,712600
1956,000000	15,652800
1955,000000	15,581200
1954,000000	15,528200
1953,000000	15,452800
1952,000000	15,366000
1951,000000	15,327100
1950,000000	15,267400
1949,000000	15,191100
1948,000000	15,153200
1947,000000	15,112600
1946,000000	15,059900
1945,000000	15,005300
1944,000000	14,987200
1943,000000	14,960100
1942,000000	14,958300
1941,000000	14,925500
1940,000000	14,921000
1939,000000	14,926700
1938,000000	14,923800
1937,000000	14,908600
1936,000000	14,929500
1935,000000	14,964000
1934,000000	15,020000
1933,000000	15,055200
1932,000000	15,112000
1931,000000	15,172000
1930,000000	15,257800
1929,000000	15,322400
1928,000000	15,418800
1927,000000	15,522000
1926,000000	15,643000
1925,000000	15,748500
1924,000000	15,866200
1923,000000	16,007500
1922,000000	16,161100
1921,000000	16,316700
1920,000000	16,508300
1919,000000	16,664900
1918,000000	16,848300
1917,000000	17,018100
1916,000000	17,197900
1915,000000	17,396900
1914,000000	17,619700
1913,000000	17,875600
1912,000000	18,087600
1911,000000	18,320300
1910,000000	18,567300
1909,000000	18,765500
1908,000000	18,981400
1907,000000	19,239900
1906,000000	19,528100
1905,000000	19,834600
1904,000000	20,125200
1903,000000	20,368100
1902,000000	20,631000
1901,000000	20,892200
1900,000000	21,188600
1899,000000	21,494200
1898,000000	21,786600
1897,000000	22,093300
1896,000000	22,332900
1895,000000	22,583900
1894,000000	22,856300
1893,000000	23,138500
1892,000000	23,433300
1891,000000	23,739000
1890,000000	24,020300
1889,000000	24,287500
1888,000000	24,585600
1887,000000	24,859900
1886,000000	25,180700
1885,000000	25,553800
1884,000000	25,956100
1883,000000	26,369000
1882,000000	26,775600
1881,000000	27,203000
1880,000000	27,620600
1879,000000	28,007100
1878,000000	28,383300
1877,000000	28,731400
1876,000000	29,055800
1875,000000	29,371200
1874,000000	29,648900
1873,000000	29,900500
1872,000000	30,122500
1871,000000	30,335600
1870,000000	30,495700
1869,000000	30,637300
1868,000000	30,761000
1867,000000	30,830500
1866,000000	30,878600
1865,000000	30,917900
1864,000000	30,955300
1863,000000	30,996100
1862,000000	31,028900
1861,000000	31,074800
1860,000000	31,106200
1859,000000	31,097500
1858,000000	31,093700
1857,000000	31,064600
1856,000000	31,021300
1855,000000	31,000800
1854,000000	30,954100
1853,000000	30,861600
1852,000000	30,800000
1851,000000	30,754200
1850,000000	30,718700
1849,000000	30,694600
1848,000000	30,620300
1847,000000	30,542100
1846,000000	30,441300
1845,000000	30,353000
1844,000000	30,297500
1843,000000	30,275800
1842,000000	30,277800
1841,000000	30,249200
1840,000000	30,200500
1839,000000	30,127300
1838,000000	30,070300
1837,000000	30,032900
1836,000000	29,979900
1835,000000	29,890300
1834,000000	29,781400
1833,000000	29,700100
1832,000000	29,629400
1831,000000	29,559800
1830,000000	29,481000
1829,000000	29,398500
1828,000000	29,312900
1827,000000	29,233700
1826,000000	29,162200
1825,000000	29,083800
1824,000000	29,022700
1823,000000	29,006300
1822,000000	29,018100
1821,000000	29,012700
1820,000000	28,981100
1819,000000	28,922000
1818,000000	28,889500
1817,000000	28,890600
1816,000000	28,890100
1815,000000	28,864500
1814,000000	28,853000
1813,000000	28,853300
1812,000000	28,829600
1811,000000	28,791800
1810,000000	28,753100
1809,000000	28,708300
1808,000000	28,656900
1807,000000	28,629800
1806,000000	28,577400
1805,000000	28,526500
1804,000000	28,482600
1803,000000	28,430800
1802,000000	28,380600
1801,000000	28,339200
1800,000000	28,271100
1799,000000	28,210500
1798,000000	28,179600
1797,000000	28,144900
1796,000000	28,096400
1795,000000	28,052000
1794,000000	27,997100
1793,000000	27,945000
1792,000000	27,885800
1791,000000	27,837200
1790,000000	27,779100
1789,000000	27,718600
1788,000000	27,656100
1787,000000	27,599100
1786,000000	27,528900
1785,000000	27,447900
1784,000000	27,362700
1783,000000	27,273800
1782,000000	27,196000
1781,000000	27,125100
1780,000000	27,037900
1779,000000	26,954600
1778,000000	26,871100
1777,000000	26,775600
1776,000000	26,649200
1775,000000	26,517300
1774,000000	26,386100
1773,000000	26,258600
1772,000000	26,105400
1771,000000	25,968300
1770,000000	25,834300
1769,000000	25,720000
1768,000000	25,595300
1767,000000	25,476200
1766,000000	25,394000
1765,000000	25,312200
1764,000000	25,274500
1763,000000	25,252500
1762,000000	25,273600
1761,000000	25,311200
1760,000000	25,360800
1759,000000	25,421600
1758,000000	25,489300
1757,000000	25,545600
1756,000000	25,584400
1755,000000	25,622100
1754,000000	25,642900
1753,000000	25,626200
1752,000000	25,602700
1751,000000	25,555700
1750,000000	25,504600
1749,000000	25,448700
1748,000000	25,358000
1747,000000	25,259300
1746,000000	25,151000
1745,000000	25,002400
1744,000000	24,829600
1743,000000	24,623800
1742,000000	24,432400
1741,000000	24,218000
1740,000000	23,973200
1739,000000	23,724300
1738,000000	23,505200
1737,000000	23,329700
1736,000000	23,183800
1735,000000	23,096700
1734,000000	23,060400
1733,000000	23,045900
1732,000000	23,091500
1731,000000	23,178800
1730,000000	23,263300
1729,000000	23,380300
1728,000000	23,493900
1727,000000	23,590700
1726,000000	23,665600
1725,000000	23,733800
1724,000000	23,795800
1723,000000	23,814300
1722,000000	23,817400
1721,000000	23,861400
1720,000000	23,897600
1719,000000	23,915000
1718,000000	23,941400
1717,000000	24,017200
1716,000000	24,074600
1715,000000	24,150200
1714,000000	24,228500
1713,000000	24,286500
1712,000000	24,350900
1711,000000	24,371300
1710,000000	24,390800
1709,000000	24,405400
1708,000000	24,397100
1707,000000	24,383100
1706,000000	24,361600
1705,000000	24,306400
1704,000000	24,246100
1703,000000	24,168000
1702,000000	24,058100
1701,000000	23,929400
1700,000000	23,783900
1699,000000	23,635800
1698,000000	23,478600
1697,000000	23,371500
1696,000000	23,292400
1695,000000	23,291200
1694,000000	23,325100
1693,000000	23,404000
1692,000000	23,552400
1691,000000	23,714300
1690,000000	23,865600
1689,000000	23,980200
1688,000000	24,028100
1687,000000	24,055700
1686,000000	24,059900
1685,000000	24,068700
1684,000000	24,171300
1683,000000	24,389600
1682,000000	24,705900
1681,000000	25,138900
1680,000000	25,677700
1679,000000	26,218100
1678,000000	26,743700
1677,000000	27,247600
1676,000000	27,713500
1675,000000	28,118900
1674,000000	28,454500
1673,000000	28,741400
1672,000000	28,999200
1671,000000	29,229000
1670,000000	29,440900
1669,000000	29,616000
1668,000000	29,759600
1667,000000	29,880500
1666,000000	29,995500
1665,000000	30,094300
1664,000000	30,180700
1663,000000	30,248900
1662,000000	30,312600
1661,000000	30,381800
1660,000000	30,426000
1659,000000	30,466300
1658,000000	30,508300
1657,000000	30,515600
1656,000000	30,525900
1655,000000	30,533100
1654,000000	30,550800
1653,000000	30,517200
1652,000000	30,519200
1651,000000	30,489200
1650,000000	30,472100
1649,000000	30,451500
1648,000000	30,397800
1647,000000	30,371300
1646,000000	30,317300
1645,000000	30,278800
1644,000000	30,237300
1643,000000	30,186200
1642,000000	30,139200
1641,000000	30,077100
1640,000000	30,023100
1639,000000	29,973300
1638,000000	29,907800
1637,000000	29,848600
1636,000000	29,777000
1635,000000	29,735900
1634,000000	29,652500
1633,000000	29,580300
1632,000000	29,508300
1631,000000	29,426200
1630,000000	29,356600
1629,000000	29,303500
1628,000000	29,212300
1627,000000	29,141800
1626,000000	29,055500
1625,000000	28,966300
1624,000000	28,891200
1623,000000	28,820000
1622,000000	28,751700
1621,000000	28,667500
1620,000000	28,589900
1619,000000	28,509200
1618,000000	28,444300
1617,000000	28,377800
1616,000000	28,309400
1615,000000	28,230600
1614,000000	28,155100
1613,000000	28,102000
1612,000000	28,023900
1611,000000	27,960500
1610,000000	27,907500
1609,000000	27,836000
1608,000000	27,766100
1607,000000	27,698400
1606,000000	27,632900
1605,000000	27,562100
1604,000000	27,498700
1603,000000	27,418300
1602,000000	27,357200
1601,000000	27,294100
1600,000000	27,225500
1599,000000	27,161900
1598,000000	27,096200
1597,000000	27,045200
1596,000000	27,013600
1595,000000	26,958500
1594,000000	26,891000
1593,000000	26,842000
1592,000000	26,792500
1591,000000	26,747100
1590,000000	26,715000
1589,000000	26,683600
1588,000000	26,645900
1587,000000	26,596200
1586,000000	26,556600
1585,000000	26,533700
1584,000000	26,510400
1583,000000	26,485900
1582,000000	26,475400
1581,000000	26,447700
1580,000000	26,434300
1579,000000	26,434600
1578,000000	26,431900
1577,000000	26,430900
1576,000000	26,426900
1575,000000	26,432600
1574,000000	26,454400
1573,000000	26,474100
1572,000000	26,482800
1571,000000	26,503000
1570,000000	26,529000
1569,000000	26,547900
1568,000000	26,576700
1567,000000	26,609100
1566,000000	26,651000
1565,000000	26,691500
1564,000000	26,712200
1563,000000	26,726500
1562,000000	26,747800
1561,000000	26,781700
1560,000000	26,813500
1559,000000	26,833700
1558,000000	26,845700
1557,000000	26,855100
1556,000000	26,853800
1555,000000	26,861700
1554,000000	26,872700
1553,000000	26,874600
1552,000000	26,870600
1551,000000	26,865600
1550,000000	26,859500
1549,000000	26,847000
1548,000000	26,826300
1547,000000	26,824500
1546,000000	26,831500
1545,000000	26,816400
1544,000000	26,813700
1543,000000	26,808900
1542,000000	26,807500
1541,000000	26,811400
1540,000000	26,818900
1539,000000	26,821800
1538,000000	26,818400
1537,000000	26,838100
1536,000000	26,847200
1535,000000	26,845800
1534,000000	26,844000
1533,000000	26,830000
1532,000000	26,824400
1531,000000	26,829100
1530,000000	26,822900
1529,000000	26,813300
1528,000000	26,804600
1527,000000	26,797900
1526,000000	26,777200
1525,000000	26,749900
1524,000000	26,737400
1523,000000	26,732200
1522,000000	26,720400
1521,000000	26,700200
1520,000000	26,671800
1519,000000	26,661700
1518,000000	26,633900
1517,000000	26,618900
1516,000000	26,607300
1515,000000	26,580400
1514,000000	26,549300
1513,000000	26,530800
1512,000000	26,509600
1511,000000	26,493700
1510,000000	26,467800
1509,000000	26,437100
1508,000000	26,399300
1507,000000	26,378700
1506,000000	26,356700
1505,000000	26,333800
1504,000000	26,319800
1503,000000	26,297800
1502,000000	26,276400
1501,000000	26,257300
1500,000000	26,246100
1499,000000	26,235600
1498,000000	26,212800
1497,000000	26,214600
1496,000000	26,216300
1495,000000	26,212700
1494,000000	26,229000
1493,000000	26,237900
1492,000000	26,245100
1491,000000	26,256200
1490,000000	26,256300
1489,000000	26,275700
1488,000000	26,302400
1487,000000	26,321700
1486,000000	26,341000
1485,000000	26,355600
1484,000000	26,365900
1483,000000	26,406100
1482,000000	26,455000
1481,000000	26,478000
1480,000000	26,496200
1479,000000	26,538000
1478,000000	26,576400
1477,000000	26,606900
1476,000000	26,648500
1475,000000	26,691800
1474,000000	26,757900
1473,000000	26,808700
1472,000000	26,876500
1471,000000	26,919200
1470,000000	26,956600
1469,000000	27,006900
1468,000000	27,051900
1467,000000	27,119900
1466,000000	27,177600
1465,000000	27,230800
1464,000000	27,294400
1463,000000	27,370900
1462,000000	27,435500
1461,000000	27,509600
1460,000000	27,602400
1459,000000	27,670700
1458,000000	27,767100
1457,000000	27,883100
1456,000000	27,988800
1455,000000	28,099900
1454,000000	28,203800
1453,000000	28,313300
1452,000000	28,456800
1451,000000	28,564200
1450,000000	28,674000
1449,000000	28,769600
1448,000000	28,886200
1447,000000	29,032700
1446,000000	29,210800
1445,000000	29,297600
1444,000000	29,430400
1443,000000	29,553300
1442,000000	29,681500
1441,000000	29,829200
1440,000000	29,951800
1439,000000	30,075400
1438,000000	30,237100
1437,000000	30,337600
1436,000000	30,456000
1435,000000	30,582100
1434,000000	30,719700
1433,000000	30,847600
1432,000000	30,978500
1431,000000	31,114700
1430,000000	31,233800
1429,000000	31,410600
1428,000000	31,594000
1427,000000	31,775200
1426,000000	31,952100
1425,000000	32,156600
1424,000000	32,411400
1423,000000	32,569700
1422,000000	32,760800
1421,000000	32,993700
1420,000000	33,230400
1419,000000	33,449300
1418,000000	33,618700
1417,000000	33,778200
1416,000000	34,006400
1415,000000	34,237600
1414,000000	34,443300
1413,000000	34,591800
1412,000000	34,754100
1411,000000	35,011600
1410,000000	35,278200
1409,000000	35,557400
1408,000000	35,851500
1407,000000	36,173100
1406,000000	36,512400
1405,000000	36,857800
1404,000000	37,163300
1403,000000	37,534000
1402,000000	37,860400
1401,000000	38,249900
1400,000000	38,553400
1399,000000	38,725800
1398,000000	38,869100
1397,000000	39,115900
1396,000000	39,347200
1395,000000	39,491600
1394,000000	39,555800
1393,000000	39,645500
1392,000000	39,785500
1391,000000	39,894700
1390,000000	40,034300
1389,000000	40,231100
1388,000000	40,481700
1387,000000	40,673900
1386,000000	40,940600
1385,000000	41,263100
1384,000000	41,634800
1383,000000	41,922000
1382,000000	42,177700
1381,000000	42,344100
1380,000000	42,372400
1379,000000	42,480100
1378,000000	42,501200
1377,000000	42,578600
1376,000000	42,677300
1375,000000	42,843400
1374,000000	43,059800
1373,000000	43,359800
1372,000000	43,715400
1371,000000	44,034200
1370,000000	44,319700
1369,000000	44,610700
1368,000000	44,894700
1367,000000	45,085400
1366,000000	45,270700
1365,000000	45,483200
1364,000000	45,633200
1363,000000	45,764900
1362,000000	45,929800
1361,000000	46,027400
1360,000000	46,040000
1359,000000	46,067800
1358,000000	46,173500
1357,000000	46,311200
1356,000000	46,565400
1355,000000	46,916400
1354,000000	47,387800
1353,000000	47,903900
1352,000000	48,426000
1351,000000	48,941300
1350,000000	49,404300
1349,000000	49,820700
1348,000000	50,224500
1347,000000	50,573300
1346,000000	50,887500
1345,000000	51,239300
1344,000000	51,546600
1343,000000	51,799200
1342,000000	52,065500
1341,000000	52,333500
1340,000000	52,563200
1339,000000	52,802200
1338,000000	53,033800
1337,000000	53,232400
1336,000000	53,421500
1335,000000	53,602000
1334,000000	53,783100
1333,000000	53,948100
1332,000000	54,101400
1331,000000	54,260500
1330,000000	54,387700
1329,000000	54,508900
1328,000000	54,636400
1327,000000	54,749700
1326,000000	54,852600
1325,000000	54,947400
1324,000000	55,044700
1323,000000	55,130500
1322,000000	55,214600
1321,000000	55,286400
1320,000000	55,360100
1319,000000	55,437700
1318,000000	55,502200
1317,000000	55,561900
1316,000000	55,618300
1315,000000	55,674900
1314,000000	55,737200
1313,000000	55,786400
1312,000000	55,824600
1311,000000	55,863200
1310,000000	55,891700
1309,000000	55,916400
1308,000000	55,952800
1307,000000	55,995600
1306,000000	56,020600
1305,000000	56,018300
1304,000000	56,021100
1303,000000	56,028300
1302,000000	56,033900
1301,000000	56,019700
1300,000000	56,018000
1299,000000	56,013800
1298,000000	55,985100
1297,000000	55,968600
1296,000000	55,960800
1295,000000	55,945700
1294,000000	55,921100
1293,000000	55,890600
1292,000000	55,859800
1291,000000	55,827500
1290,000000	55,799100
1289,000000	55,760300
1288,000000	55,706800
1287,000000	55,647000
1286,000000	55,574900
1285,000000	55,516800
1284,000000	55,444400
1283,000000	55,372400
1282,000000	55,323100
1281,000000	55,263900
1280,000000	55,194100
1279,000000	55,120700
1278,000000	55,066800
1277,000000	55,010800
1276,000000	54,944700
1275,000000	54,885200
1274,000000	54,845900
1273,000000	54,806200
1272,000000	54,774300
1271,000000	54,737200
1270,000000	54,696600
1269,000000	54,651900
1268,000000	54,616500
1267,000000	54,576500
1266,000000	54,523300
1265,000000	54,470100
1264,000000	54,429700
1263,000000	54,373500
1262,000000	54,334000
1261,000000	54,298600
1260,000000	54,248100
1259,000000	54,211500
1258,000000	54,154000
1257,000000	54,110700
1256,000000	54,051700
1255,000000	54,003700
1254,000000	53,940000
1253,000000	53,881900
1252,000000	53,806500
1251,000000	53,743400
1250,000000	53,666400
1249,000000	53,575200
1248,000000	53,469800
1247,000000	53,383500
1246,000000	53,296900
1245,000000	53,168000
1244,000000	53,044000
1243,000000	52,917000
1242,000000	52,795000
1241,000000	52,656200
1240,000000	52,500900
1239,000000	52,360100
1238,000000	52,214600
1237,000000	52,065900
1236,000000	51,903200
1235,000000	51,754900
1234,000000	51,578500
1233,000000	51,412000
1232,000000	51,279500
1231,000000	51,104500
1230,000000	50,937700
1229,000000	50,772900
1228,000000	50,621000
1227,000000	50,458600
1226,000000	50,269500
1225,000000	50,120400
1224,000000	49,971900
1223,000000	49,810600
1222,000000	49,669300
1221,000000	49,526400
1220,000000	49,366400
1219,000000	49,238300
1218,000000	49,135400
1217,000000	49,014100
1216,000000	48,899700
1215,000000	48,781900
1214,000000	48,685500
1213,000000	48,575600
1212,000000	48,487500
1211,000000	48,405900
1210,000000	48,315100
1209,000000	48,236300
1208,000000	48,164900
1207,000000	48,098300
1206,000000	48,061800
1205,000000	48,040000
1204,000000	48,030300
1203,000000	48,001000
1202,000000	47,981400
1201,000000	47,955600
1200,000000	47,901000
1199,000000	47,833200
1198,000000	47,740300
1197,000000	47,590500
1196,000000	47,424000
1195,000000	47,187300
1194,000000	46,877200
1193,000000	46,526700
1192,000000	46,120500
1191,000000	45,676600
1190,000000	45,272100
1189,000000	44,900100
1188,000000	44,625800
1187,000000	44,486600
1186,000000	44,444500
1185,000000	44,528200
1184,000000	44,705300
1183,000000	45,038300
1182,000000	45,449200
1181,000000	45,911700
1180,000000	46,383300
1179,000000	46,828500
1178,000000	47,204200
1177,000000	47,550700
1176,000000	47,815400
1175,000000	48,077200
1174,000000	48,354400
1173,000000	48,650100
1172,000000	48,946500
1171,000000	49,232100
1170,000000	49,559000
1169,000000	49,877900
1168,000000	50,205200
1167,000000	50,536700
1166,000000	50,868300
1165,000000	51,210500
1164,000000	51,567600
1163,000000	51,887900
1162,000000	52,244500
1161,000000	52,581600
1160,000000	52,874200
1159,000000	53,181700
1158,000000	53,470500
1157,000000	53,723100
1156,000000	53,941500
1155,000000	54,102700
1154,000000	54,237300
1153,000000	54,303500
1152,000000	54,332700
1151,000000	54,314700
1150,000000	54,300000
1149,000000	54,272900
1148,000000	54,261400
1147,000000	54,297300
1146,000000	54,391200
1145,000000	54,560200
1144,000000	54,781900
1143,000000	55,025900
1142,000000	55,306500
1141,000000	55,615400
1140,000000	55,897800
1139,000000	56,196100
1138,000000	56,522900
1137,000000	56,849700
1136,000000	57,202200
1135,000000	57,519300
1134,000000	57,806200
1133,000000	58,013600
1132,000000	58,245200
1131,000000	58,483200
1130,000000	58,682700
1129,000000	58,867400
1128,000000	58,981200
1127,000000	59,066400
1126,000000	59,158000
1125,000000	59,222300
1124,000000	59,280200
1123,000000	59,326600
1122,000000	59,371800
1121,000000	59,381500
1120,000000	59,402000
1119,000000	59,417200
1118,000000	59,404400
1117,000000	59,385500
1116,000000	59,361800
1115,000000	59,343100
1114,000000	59,313300
1113,000000	59,308100
1112,000000	59,279000
1111,000000	59,273700
1110,000000	59,230300
1109,000000	59,200800
1108,000000	59,168700
1107,000000	59,167400
1106,000000	59,135700
1105,000000	59,111800
1104,000000	59,070400
1103,000000	59,040000
1102,000000	59,010100
1101,000000	58,974500
1100,000000	58,934600
1099,000000	58,891200
1098,000000	58,868000
1097,000000	58,829000
1096,000000	58,793200
1095,000000	58,765400
1094,000000	58,721100
1093,000000	58,673000
1092,000000	58,635100
1091,000000	58,584100
1090,000000	58,548100
1089,000000	58,505100
1088,000000	58,452300
1087,000000	58,408200
1086,000000	58,341000
1085,000000	58,300200
1084,000000	58,258500
1083,000000	58,205400
1082,000000	58,160000
1081,000000	58,115500
1080,000000	58,067800
1079,000000	58,032600
1078,000000	57,986400
1077,000000	57,941500
1076,000000	57,901700
1075,000000	57,856800
1074,000000	57,811900
1073,000000	57,755300
1072,000000	57,697000
1071,000000	57,655200
1070,000000	57,592500
1069,000000	57,550500
1068,000000	57,492500
1067,000000	57,427000
1066,000000	57,376700
1065,000000	57,317800
1064,000000	57,257000
1063,000000	57,195800
1062,000000	57,115800
1061,000000	57,046400
1060,000000	56,987300
1059,000000	56,914100
1058,000000	56,844600
1057,000000	56,770400
1056,000000	56,697300
1055,000000	56,615600
1054,000000	56,545900
1053,000000	56,480900
1052,000000	56,406400
1051,000000	56,343900
1050,000000	56,287000
1049,000000	56,218800
1048,000000	56,163800
1047,000000	56,116000
1046,000000	56,062500
1045,000000	56,006500
1044,000000	55,949400
1043,000000	55,906400
1042,000000	55,854300
1041,000000	55,806500
1040,000000	55,756500
1039,000000	55,701100
1038,000000	55,660100
1037,000000	55,611400
1036,000000	55,557900
1035,000000	55,500200
1034,000000	55,440100
1033,000000	55,384300
1032,000000	55,325800
1031,000000	55,285500
1030,000000	55,226500
1029,000000	55,154700
1028,000000	55,110600
1027,000000	55,066800
1026,000000	54,999700
1025,000000	54,950700
1024,000000	54,891400
1023,000000	54,818700
1022,000000	54,776900
1021,000000	54,728200
1020,000000	54,670400
1019,000000	54,614400
1018,000000	54,560500
1017,000000	54,520800
1016,000000	54,478000
1015,000000	54,442100
1014,000000	54,421900
1013,000000	54,399500
1012,000000	54,388000
1011,000000	54,391900
1010,000000	54,390400
1009,000000	54,398400
1008,000000	54,404000
1007,000000	54,405800
1006,000000	54,418800
1005,000000	54,428700
1004,000000	54,430600
1003,000000	54,444000
1002,000000	54,456900
1001,000000	54,469500
1000,000000	54,496700
999,000000	54,509300
998,000000	54,516100
997,000000	54,526700
996,000000	54,542700
995,000000	54,559900
994,000000	54,587200
993,000000	54,610800
992,000000	54,605500
991,000000	54,623000
990,000000	54,650500
989,000000	54,663900
988,000000	54,691100
987,000000	54,702300
986,000000	54,716200
985,000000	54,752900
984,000000	54,760600
983,000000	54,778400
982,000000	54,820400
981,000000	54,848500
980,000000	54,861200
979,000000	54,891600
978,000000	54,915400
977,000000	54,931500
976,000000	54,933300
975,000000	54,963400
974,000000	54,978600
973,000000	55,014100
972,000000	55,028800
971,000000	55,060500
970,000000	55,076500
969,000000	55,113500
968,000000	55,137100
967,000000	55,170100
966,000000	55,204500
965,000000	55,250000
964,000000	55,281500
963,000000	55,331100
962,000000	55,387000
961,000000	55,454400
960,000000	55,519300
959,000000	55,588300
958,000000	55,663000
957,000000	55,735900
956,000000	55,825000
955,000000	55,911200
954,000000	55,995900
953,000000	56,062900
952,000000	56,157200
951,000000	56,244200
950,000000	56,352000
949,000000	56,428200
948,000000	56,530200
947,000000	56,628500
946,000000	56,744200
945,000000	56,863900
944,000000	56,959100
943,000000	57,075900
942,000000	57,189800
941,000000	57,325700
940,000000	57,445900
939,000000	57,560300
938,000000	57,710200
937,000000	57,840300
936,000000	57,974300
935,000000	58,116000
934,000000	58,248500
933,000000	58,399100
932,000000	58,496300
931,000000	58,630500
930,000000	58,779300
929,000000	58,878800
928,000000	59,025100
927,000000	59,158000
926,000000	59,268600
925,000000	59,405000
924,000000	59,530800
923,000000	59,661100
922,000000	59,799400
921,000000	59,959900
920,000000	60,075600
919,000000	60,215400
918,000000	60,353700
917,000000	60,510900
916,000000	60,675000
915,000000	60,822400
914,000000	60,986500
913,000000	61,170400
912,000000	61,323500
911,000000	61,503000
910,000000	61,662000
909,000000	61,884900
908,000000	62,141900
907,000000	62,350300
906,000000	62,600200
905,000000	62,842700
904,000000	63,103700
903,000000	63,440800
902,000000	63,696400
901,000000	64,002000
900,000000	64,292900
899,000000	64,570200
898,000000	64,876400
897,000000	65,241500
896,000000	65,534500
895,000000	65,852500
894,000000	66,144800
893,000000	66,428200
892,000000	66,725800
891,000000	67,012400
890,000000	67,283000
889,000000	67,582800
888,000000	67,858200
887,000000	68,085900
886,000000	68,347500
885,000000	68,583900
884,000000	68,825100
883,000000	69,028500
882,000000	69,234800
881,000000	69,449100
880,000000	69,651500
879,000000	69,821500
878,000000	69,922000
877,000000	70,110800
876,000000	70,229700
875,000000	70,324600
874,000000	70,463000
873,000000	70,574100
872,000000	70,616300
871,000000	70,699700
870,000000	70,738200
869,000000	70,787300
868,000000	70,791100
867,000000	70,879100
866,000000	70,902100
865,000000	70,841300
864,000000	70,846200
863,000000	70,754800
862,000000	70,711300
861,000000	70,574000
860,000000	70,470300
859,000000	70,167200
858,000000	71,098100
857,000000	78,144900
856,000000	78,014200
855,000000	79,057600
854,000000	79,146100
853,000000	79,996700
852,000000	80,684200
851,000000	81,275400
850,000000	81,723800
849,000000	81,992100
848,000000	82,819800
847,000000	83,437000
846,000000	83,956200
845,000000	84,785100
844,000000	85,115700
843,000000	85,710800
842,000000	86,334500
841,000000	86,734100
840,000000	87,180500
839,000000	87,834000
838,000000	87,884800
837,000000	88,103100
836,000000	88,523600
835,000000	88,725700
834,000000	89,097600
833,000000	89,424300
832,000000	89,609700
831,000000	89,622800
830,000000	89,906500
829,000000	89,987800
828,000000	90,003800
827,000000	90,099600
826,000000	90,111500
825,000000	90,197200
824,000000	90,225200
823,000000	90,296600
822,000000	90,096500
821,000000	90,296700
820,000000	90,387200
819,000000	90,453700
818,000000	90,549600
817,000000	90,500100
816,000000	90,433700
815,000000	90,758100
814,000000	90,862400
813,000000	90,928600
812,000000	91,128400
811,000000	91,417200
810,000000	91,598900
809,000000	91,893300
808,000000	91,916400
807,000000	92,189700
806,000000	92,477900
805,000000	92,621600
804,000000	92,709900
803,000000	92,934400
802,000000	93,063300
801,000000	93,087200
800,000000	93,208100
799,000000	93,394800
798,000000	93,375800
797,000000	93,206300
796,000000	93,152600
795,000000	93,123400
794,000000	93,070300
793,000000	92,856600
792,000000	92,676200
791,000000	92,626600
790,000000	92,508900
789,000000	92,426000
788,000000	92,286600
787,000000	92,139200
786,000000	91,957000
785,000000	91,877700
784,000000	91,835900
783,000000	91,657100
782,000000	91,392200
781,000000	91,310000
780,000000	91,226700
779,000000	91,139300
778,000000	91,022100
777,000000	90,939100
776,000000	90,982200
775,000000	91,065800
774,000000	91,027900
773,000000	91,112600
772,000000	91,345700
771,000000	91,441100
770,000000	91,483300
769,000000	91,646900
768,000000	91,797900
767,000000	91,813000
766,000000	91,845500
765,000000	92,051000
764,000000	92,115500
763,000000	92,138000
762,000000	92,172900
761,000000	92,134700
760,000000	92,108000
759,000000	92,023700
758,000000	91,956400
757,000000	91,854900
756,000000	91,744100
755,000000	91,697800
754,000000	91,552500
753,000000	91,320000
752,000000	91,191100
751,000000	90,999200
750,000000	90,696600
749,000000	90,418500
748,000000	90,068300
747,000000	89,666300
746,000000	89,299500
745,000000	88,936200
744,000000	88,513200
743,000000	88,006500
742,000000	87,419600
741,000000	86,915000
740,000000	86,415400
739,000000	85,900900
738,000000	85,428000
737,000000	84,873700
736,000000	84,278400
735,000000	83,757400
734,000000	83,266300
733,000000	82,696000
732,000000	82,049700
731,000000	81,469200
730,000000	80,884600
729,000000	80,251700
728,000000	79,685900
727,000000	79,130000
726,000000	78,596000
725,000000	78,051200
724,000000	77,471100
723,000000	76,930000
722,000000	76,475400
721,000000	76,062000
720,000000	75,696400
719,000000	75,280100
718,000000	74,952500
717,000000	74,730700
716,000000	74,434100
715,000000	74,198700
714,000000	74,030100
713,000000	73,875300
712,000000	73,742300
711,000000	73,686900
710,000000	73,626200
709,000000	73,591600
708,000000	73,636800
707,000000	73,649600
706,000000	73,678800
705,000000	73,784700
704,000000	73,889800
703,000000	74,034900
702,000000	74,137800
701,000000	74,246300
700,000000	74,400600
699,000000	74,566000
698,000000	74,707100
697,000000	74,840500
696,000000	74,965300
695,000000	75,081000
694,000000	75,124900
693,000000	75,176700
692,000000	75,300400
691,000000	75,335600
690,000000	75,312700
689,000000	75,347300
688,000000	75,353700
687,000000	75,351000
686,000000	75,359200
685,000000	75,378100
684,000000	75,328200
683,000000	75,291600
682,000000	75,228900
681,000000	75,127900
680,000000	75,056500
679,000000	74,970200
678,000000	74,851200
677,000000	74,677400
676,000000	74,481300
675,000000	74,254300
674,000000	74,004800
673,000000	73,722900
672,000000	73,469800
671,000000	73,100600
670,000000	72,724000
669,000000	72,303200
668,000000	71,848200
667,000000	71,427000
666,000000	71,006700
665,000000	70,493000
664,000000	69,917700
663,000000	69,327200
662,000000	68,685900
661,000000	67,979700
660,000000	67,251900
659,000000	66,454000
658,000000	65,579400
657,000000	64,734700
656,000000	63,870500
655,000000	62,984500
654,000000	62,055500
653,000000	61,145000
652,000000	60,235600
651,000000	59,374000
650,000000	58,547900
649,000000	57,770700
648,000000	57,091100
647,000000	56,537200
646,000000	56,042000
645,000000	55,601900
644,000000	55,266500
643,000000	55,059900
642,000000	55,016100
641,000000	55,022400
640,000000	55,185200
639,000000	55,423500
638,000000	55,766700
637,000000	56,244800
636,000000	56,800200
635,000000	57,499900
634,000000	58,288500
633,000000	59,107500
632,000000	60,116200
631,000000	61,113000
630,000000	62,233400
629,000000	63,386600
628,000000	64,571100
627,000000	65,808800
626,000000	67,064900
625,000000	68,334400
624,000000	69,591200
623,000000	70,850800
622,000000	72,038900
621,000000	73,250800
620,000000	74,388900
619,000000	75,518900
618,000000	76,567500
617,000000	77,496900
616,000000	78,463300
615,000000	79,340500
614,000000	80,221500
613,000000	81,015900
612,000000	81,830900
611,000000	82,572200
610,000000	83,314700
609,000000	84,043800
608,000000	84,700400
607,000000	85,409800
606,000000	86,028000
605,000000	86,670400
604,000000	87,236000
603,000000	87,793200
602,000000	88,270000
601,000000	88,830400
600,000000	89,242000
599,000000	89,635900
598,000000	90,000600
597,000000	90,321100
596,000000	90,569400
595,000000	90,864400
594,000000	91,153900
593,000000	91,355300
592,000000	91,506200
591,000000	91,674300
590,000000	91,817000
589,000000	91,988900
588,000000	92,101200
587,000000	92,163000
586,000000	92,170500
585,000000	92,246400
584,000000	92,251400
583,000000	92,248000
582,000000	92,228800
581,000000	92,156100
580,000000	92,116100
579,000000	92,126200
578,000000	91,997600
577,000000	91,885500
576,000000	91,791100
575,000000	91,665000
574,000000	91,559600
573,000000	91,349900
572,000000	91,240800
571,000000	91,064600
570,000000	90,895000
569,000000	90,665000
568,000000	90,529000
567,000000	90,309100
566,000000	90,033800
565,000000	89,814500
564,000000	89,522400
563,000000	89,235000
562,000000	88,910600
561,000000	88,584900
560,000000	88,258400
559,000000	87,858700
558,000000	87,478000
557,000000	87,102200
556,000000	86,647300
555,000000	86,200500
554,000000	85,750100
553,000000	85,277400
552,000000	84,738100
551,000000	84,174100
550,000000	83,575800
549,000000	82,945800
548,000000	82,334400
547,000000	81,662400
546,000000	80,968700
545,000000	80,221500
544,000000	79,476800
543,000000	78,729400
542,000000	77,930700
541,000000	77,135600
540,000000	76,309100
539,000000	75,444700
538,000000	74,622600
537,000000	73,759100
536,000000	72,859100
535,000000	71,952800
534,000000	70,988900
533,000000	70,003000
532,000000	68,978700
531,000000	67,933200
530,000000	66,843600
529,000000	65,712500
528,000000	64,554200
527,000000	63,375800
526,000000	62,118800
525,000000	60,817300
524,000000	59,462100
523,000000	58,029200
522,000000	56,578200
521,000000	55,103600
520,000000	53,579600
519,000000	52,021600
518,000000	50,477200
517,000000	48,951800
516,000000	47,422400
515,000000	45,892700
514,000000	44,392800
513,000000	42,944700
512,000000	41,560700
511,000000	40,247800
510,000000	39,000300
509,000000	37,823400
508,000000	36,739500
507,000000	35,765500
506,000000	34,883700
505,000000	34,085500
504,000000	33,405700
503,000000	32,814100
502,000000	32,321100
501,000000	31,929200
500,000000	31,660400
499,000000	31,471900
498,000000	31,345700
497,000000	31,291200
496,000000	31,304400
495,000000	31,335700
494,000000	31,400000
493,000000	31,518700
492,000000	31,637200
491,000000	31,741600
490,000000	31,836300
489,000000	31,924500
488,000000	32,017100
487,000000	32,073300
486,000000	32,114300
485,000000	32,149600
484,000000	32,118000
483,000000	32,030100
482,000000	31,874600
481,000000	31,682400
480,000000	31,441900
479,000000	31,131600
478,000000	30,811800
477,000000	30,441500
476,000000	30,004800
475,000000	29,549500
474,000000	29,042900
473,000000	28,496000
472,000000	27,925500
471,000000	27,344400
470,000000	26,734700
469,000000	26,127600
468,000000	25,546300
467,000000	24,970700
466,000000	24,389100
465,000000	23,852800
464,000000	23,366100
463,000000	22,920500
462,000000	22,504400
461,000000	22,172800
460,000000	21,876800
459,000000	21,633500
458,000000	21,460100
457,000000	21,331400
456,000000	21,255600
455,000000	21,244500
454,000000	21,251800
453,000000	21,318100
452,000000	21,426900
451,000000	21,561100
450,000000	21,735800
449,000000	21,901100
448,000000	22,077100
447,000000	22,272200
446,000000	22,484600
445,000000	22,699500
444,000000	22,926600
443,000000	23,111900
442,000000	23,271500
441,000000	23,434100
440,000000	23,577100
439,000000	23,702200
438,000000	23,818000
437,000000	23,916600
436,000000	23,982700
435,000000	24,026000
434,000000	24,070700
433,000000	24,101300
432,000000	24,086000
431,000000	24,050200
430,000000	24,016700
429,000000	23,956900
428,000000	23,868000
427,000000	23,761800
426,000000	23,653800
425,000000	23,521400
424,000000	23,353600
423,000000	23,186200
422,000000	23,001700
421,000000	22,795100
420,000000	22,573600
419,000000	22,340900
418,000000	22,100400
417,000000	21,840500
416,000000	21,556200
415,000000	21,261400
414,000000	20,944600
413,000000	20,626800
412,000000	20,315900
411,000000	19,974300
410,000000	19,607900
409,000000	19,237900
408,000000	18,876500
407,000000	18,495900
406,000000	18,113200
405,000000	17,711800
404,000000	17,297000
403,000000	16,888000
402,000000	16,456000
401,000000	16,049700
400,000000	15,634200
399,000000	15,199000
398,000000	14,749500
397,000000	14,343800
396,000000	13,947500
395,000000	13,534400
394,000000	13,111800
393,000000	12,707800
392,000000	12,319600
391,000000	11,932800
390,000000	11,572300
389,000000	11,214000
388,000000	10,888900
387,000000	10,562700
386,000000	10,235700
385,000000	9,937500
384,000000	9,656800
383,000000	9,394600
382,000000	9,147700
381,000000	8,901100
380,000000	8,671900
379,000000	8,465800
378,000000	8,261500
377,000000	8,074500
376,000000	7,923300
375,000000	7,446600
374,000000	7,410600
373,000000	7,295700
372,000000	7,166400
371,000000	7,094200
370,000000	7,082800
369,000000	6,967400
368,000000	6,913500
367,000000	6,822800
366,000000	6,722900
365,000000	6,702000
364,000000	6,587100
363,000000	6,525300
362,000000	6,591100
361,000000	6,474500
360,000000	6,481500
359,000000	6,378500
358,000000	6,327200
357,000000	6,314500
356,000000	6,157800
355,000000	6,082200
354,000000	5,948400
353,000000	5,887400
352,000000	5,960700
351,000000	5,879300
350,000000	5,862100
349,000000	5,872200
348,000000	5,896000
347,000000	5,833000
346,000000	5,836700
345,000000	5,800400
344,000000	5,838300
343,000000	5,792000
342,000000	6,041700
341,000000	5,809600
340,000000	5,535300
339,000000	5,653000
338,000000	5,742100
337,000000	5,599100
336,000000	5,669800
335,000000	5,749400
334,000000	5,651300
333,000000	5,588000
332,000000	5,684900
331,000000	5,775400
330,000000	5,817300
329,000000	5,704400
328,000000	6,058200
327,000000	5,854800
326,000000	5,824200
325,000000	5,776900
324,000000	6,010800
323,000000	6,011000
322,000000	5,715700
321,000000	5,669800
320,000000	5,673400
319,000000	5,717100
318,000000	5,730300
317,000000	6,195600
316,000000	5,693700
315,000000	5,615000
314,000000	5,549900
313,000000	5,653600
312,000000	5,595700
311,000000	5,582900
310,000000	5,645300
309,000000	5,638700
308,000000	5,693300
307,000000	5,657700
306,000000	5,599900
305,000000	5,676400
304,000000	5,654500
303,000000	5,743900
302,000000	5,673100
301,000000	5,660300
300,000000	5,749400
299,000000	5,697500
298,000000	5,664100
297,000000	5,727600
296,000000	5,720200
295,000000	5,817000
294,000000	5,767400
293,000000	5,761200
292,000000	5,790800
291,000000	5,752700
290,000000	5,787800
289,000000	5,789000
288,000000	5,806300
287,000000	5,836900
286,000000	5,887200
285,000000	5,871900
284,000000	5,882600
283,000000	5,908200
282,000000	5,901200
281,000000	5,833800
280,000000	5,948300
279,000000	5,911200
278,000000	5,950100
277,000000	5,899300
276,000000	6,017000
275,000000	5,952000
274,000000	6,006100
273,000000	5,933000
272,000000	5,963600
271,000000	5,991800
270,000000	6,058700
269,000000	6,023000
268,000000	6,032200
267,000000	6,017500
266,000000	6,108000
265,000000	6,154400
264,000000	6,192700
263,000000	6,188700
262,000000	6,137500
261,000000	6,208900
260,000000	6,231700
259,000000	6,306700
258,000000	6,262800
257,000000	6,285000
256,000000	6,263600
255,000000	6,310900
254,000000	6,329700
253,000000	6,358700
252,000000	6,344200
251,000000	6,371800
250,000000	6,379900
