PE UV       SUBTECH     SPECTRUM    ASCII       PEDS        4.00        
   -1
CICIMAUCR0101-3.Sample.ASC
24/04/11
14:27:02.00
24/04/11
14:27:02.00
Vinicio Soto Monge
C. resplendens
250,000000
1
Lambda 1050
1050L1511233
PerkinElmer UV WinLab 6.3.2.0749 / 2.02.05 Lambda 900 UV/VIS/NIR, Aug  7 2015 09:38:08

0
0
3350/2 860,8/2
0
0
UV/VIS
1
1
1
DoubleDePol,CommonBeamDepol,RBeamAtt,SBeamAtt,60mm sphere, WB InGaAs Detector
0
0
0
0
Program
Program
3350/2 860,8/2
3350/0,2 860,8/0,2
3350/0,2 860,8/0,2
0
15.00
 
 
 
0
 
860,8
319,2
860,8
Front
100
on
S:100 R:100
0
0
0
0
 
0
 
 
 
0
 
 
0
0
0
0
0
 
 
 
 
0
0


0
0
#HDR
-1
-1
#GR
nm
%R
1.0
0.0
2400,000000
-1,000000
2151
8
92,537900
5,932000
#DATA
2400,000000	10,075700
2399,000000	9,756500
2398,000000	11,148800
2397,000000	9,853300
2396,000000	9,904700
2395,000000	10,286900
2394,000000	10,457700
2393,000000	10,486500
2392,000000	10,454100
2391,000000	10,135000
2390,000000	10,663000
2389,000000	9,876300
2388,000000	11,136100
2387,000000	11,486700
2386,000000	9,629700
2385,000000	11,026200
2384,000000	10,106700
2383,000000	10,924600
2382,000000	11,404600
2381,000000	10,678900
2380,000000	10,050600
2379,000000	10,220000
2378,000000	9,615200
2377,000000	10,240100
2376,000000	9,894300
2375,000000	9,458500
2374,000000	10,168300
2373,000000	10,203200
2372,000000	9,729200
2371,000000	10,259900
2370,000000	10,390300
2369,000000	9,744200
2368,000000	9,394100
2367,000000	8,838800
2366,000000	9,796700
2365,000000	9,091700
2364,000000	9,413700
2363,000000	9,585400
2362,000000	9,494100
2361,000000	9,452200
2360,000000	9,391800
2359,000000	9,706600
2358,000000	9,254500
2357,000000	9,255900
2356,000000	9,479000
2355,000000	8,796300
2354,000000	8,811900
2353,000000	9,104500
2352,000000	8,751900
2351,000000	8,467700
2350,000000	9,414400
2349,000000	8,395100
2348,000000	8,586900
2347,000000	9,435200
2346,000000	9,079500
2345,000000	8,844500
2344,000000	9,702900
2343,000000	9,195000
2342,000000	9,124700
2341,000000	8,844500
2340,000000	9,308900
2339,000000	9,476000
2338,000000	8,797800
2337,000000	9,029300
2336,000000	9,152700
2335,000000	8,860700
2334,000000	9,071800
2333,000000	8,714500
2332,000000	9,114500
2331,000000	9,128900
2330,000000	8,779700
2329,000000	8,842400
2328,000000	9,250400
2327,000000	8,966000
2326,000000	8,747100
2325,000000	8,818900
2324,000000	8,654600
2323,000000	8,383300
2322,000000	8,244300
2321,000000	8,736700
2320,000000	8,687900
2319,000000	7,917400
2318,000000	7,884700
2317,000000	8,345000
2316,000000	7,781300
2315,000000	7,742300
2314,000000	7,827800
2313,000000	8,158100
2312,000000	7,587900
2311,000000	7,389800
2310,000000	7,377000
2309,000000	7,094000
2308,000000	7,293100
2307,000000	7,905800
2306,000000	7,406000
2305,000000	7,376600
2304,000000	7,445600
2303,000000	7,519100
2302,000000	7,402900
2301,000000	7,068500
2300,000000	7,862600
2299,000000	7,731900
2298,000000	7,513800
2297,000000	7,705900
2296,000000	7,631400
2295,000000	7,746200
2294,000000	7,859000
2293,000000	8,078100
2292,000000	8,220400
2291,000000	7,940200
2290,000000	7,897900
2289,000000	8,186900
2288,000000	8,256600
2287,000000	8,125600
2286,000000	7,906900
2285,000000	7,738700
2284,000000	7,595100
2283,000000	7,998200
2282,000000	7,936600
2281,000000	7,752700
2280,000000	7,446500
2279,000000	7,530000
2278,000000	8,001800
2277,000000	7,559700
2276,000000	7,123900
2275,000000	7,347400
2274,000000	7,520400
2273,000000	7,456100
2272,000000	7,373900
2271,000000	7,501300
2270,000000	7,628600
2269,000000	7,724300
2268,000000	7,558400
2267,000000	7,579900
2266,000000	7,652600
2265,000000	7,568300
2264,000000	7,465000
2263,000000	7,566400
2262,000000	7,800000
2261,000000	7,944200
2260,000000	8,152200
2259,000000	8,169000
2258,000000	8,165300
2257,000000	8,259100
2256,000000	8,448800
2255,000000	8,867900
2254,000000	8,861400
2253,000000	8,854000
2252,000000	9,078900
2251,000000	9,080400
2250,000000	9,135500
2249,000000	9,198900
2248,000000	9,564300
2247,000000	9,757700
2246,000000	9,889500
2245,000000	10,295400
2244,000000	10,044100
2243,000000	10,022300
2242,000000	10,135700
2241,000000	10,274500
2240,000000	10,262700
2239,000000	10,346300
2238,000000	10,279300
2237,000000	10,271000
2236,000000	10,688400
2235,000000	10,641000
2234,000000	10,588100
2233,000000	10,725300
2232,000000	10,702200
2231,000000	10,511800
2230,000000	10,689100
2229,000000	10,505600
2228,000000	10,553000
2227,000000	10,972500
2226,000000	10,793200
2225,000000	10,954800
2224,000000	10,975100
2223,000000	10,784300
2222,000000	10,528600
2221,000000	10,290500
2220,000000	10,563200
2219,000000	10,389900
2218,000000	10,449500
2217,000000	10,773800
2216,000000	10,744700
2215,000000	10,609200
2214,000000	10,827400
2213,000000	10,705600
2212,000000	10,482600
2211,000000	10,657700
2210,000000	10,555000
2209,000000	10,669600
2208,000000	10,625100
2207,000000	10,642600
2206,000000	10,542700
2205,000000	10,402400
2204,000000	10,643700
2203,000000	10,606100
2202,000000	10,764200
2201,000000	10,703900
2200,000000	10,495700
2199,000000	10,263600
2198,000000	10,009700
2197,000000	10,255300
2196,000000	10,447300
2195,000000	10,292900
2194,000000	10,523200
2193,000000	10,609800
2192,000000	10,529200
2191,000000	10,788100
2190,000000	10,164700
2189,000000	10,219000
2188,000000	10,385400
2187,000000	10,380100
2186,000000	10,543200
2185,000000	10,332400
2184,000000	10,268900
2183,000000	10,027200
2182,000000	9,822300
2181,000000	10,406400
2180,000000	10,461300
2179,000000	10,289600
2178,000000	9,832500
2177,000000	10,038300
2176,000000	10,048200
2175,000000	10,194200
2174,000000	10,442300
2173,000000	10,351100
2172,000000	10,214000
2171,000000	10,886800
2170,000000	10,133100
2169,000000	10,368100
2168,000000	10,498800
2167,000000	10,293600
2166,000000	10,578000
2165,000000	10,706200
2164,000000	10,197300
2163,000000	10,639000
2162,000000	10,783400
2161,000000	10,530400
2160,000000	10,543600
2159,000000	10,436500
2158,000000	9,985000
2157,000000	10,578100
2156,000000	10,953800
2155,000000	11,005700
2154,000000	10,617300
2153,000000	11,286000
2152,000000	10,726000
2151,000000	10,877800
2150,000000	10,669900
2149,000000	10,712000
2148,000000	10,622000
2147,000000	10,732000
2146,000000	10,972900
2145,000000	10,831900
2144,000000	11,451000
2143,000000	11,279000
2142,000000	10,960900
2141,000000	11,018900
2140,000000	11,322200
2139,000000	11,064000
2138,000000	11,416100
2137,000000	11,365600
2136,000000	11,050400
2135,000000	11,462400
2134,000000	11,054700
2133,000000	11,445500
2132,000000	10,973600
2131,000000	10,950200
2130,000000	11,804000
2129,000000	11,204400
2128,000000	11,036700
2127,000000	11,470000
2126,000000	11,003800
2125,000000	11,294600
2124,000000	11,642800
2123,000000	11,095100
2122,000000	11,099300
2121,000000	11,267900
2120,000000	11,217900
2119,000000	11,154100
2118,000000	11,301300
2117,000000	10,573600
2116,000000	10,900300
2115,000000	11,255500
2114,000000	11,103800
2113,000000	10,775100
2112,000000	11,136100
2111,000000	10,783300
2110,000000	10,812200
2109,000000	10,823600
2108,000000	10,734600
2107,000000	10,737800
2106,000000	10,916800
2105,000000	10,916700
2104,000000	10,865100
2103,000000	10,672600
2102,000000	10,825800
2101,000000	10,692900
2100,000000	10,433600
2099,000000	10,526000
2098,000000	10,809500
2097,000000	10,513300
2096,000000	10,332200
2095,000000	10,619200
2094,000000	10,517600
2093,000000	10,170200
2092,000000	10,274600
2091,000000	10,556000
2090,000000	10,491400
2089,000000	10,457100
2088,000000	10,466700
2087,000000	10,672900
2086,000000	10,308100
2085,000000	10,553900
2084,000000	10,341200
2083,000000	10,375200
2082,000000	10,319900
2081,000000	10,192600
2080,000000	10,366300
2079,000000	10,334300
2078,000000	10,185200
2077,000000	10,110600
2076,000000	10,190200
2075,000000	10,285600
2074,000000	10,000100
2073,000000	10,027000
2072,000000	9,955600
2071,000000	10,098000
2070,000000	10,155300
2069,000000	10,112100
2068,000000	10,002000
2067,000000	10,135500
2066,000000	10,078800
2065,000000	10,055200
2064,000000	10,010000
2063,000000	9,965200
2062,000000	9,843500
2061,000000	9,782100
2060,000000	9,865600
2059,000000	9,837600
2058,000000	9,885200
2057,000000	9,849200
2056,000000	9,928000
2055,000000	9,715000
2054,000000	9,858300
2053,000000	10,139800
2052,000000	10,191000
2051,000000	10,083500
2050,000000	10,176900
2049,000000	10,124600
2048,000000	10,235400
2047,000000	10,232600
2046,000000	10,216900
2045,000000	10,387000
2044,000000	10,477100
2043,000000	10,696300
2042,000000	10,761500
2041,000000	10,761800
2040,000000	10,979000
2039,000000	11,019900
2038,000000	11,018700
2037,000000	11,221600
2036,000000	11,301700
2035,000000	11,458000
2034,000000	11,568700
2033,000000	11,692500
2032,000000	11,805800
2031,000000	11,843900
2030,000000	11,786100
2029,000000	11,851900
2028,000000	11,975600
2027,000000	12,014800
2026,000000	12,100000
2025,000000	12,154400
2024,000000	12,334100
2023,000000	12,321400
2022,000000	12,316500
2021,000000	12,460000
2020,000000	12,559100
2019,000000	12,673100
2018,000000	12,711500
2017,000000	12,770500
2016,000000	12,865800
2015,000000	12,770300
2014,000000	12,769100
2013,000000	12,882400
2012,000000	12,960700
2011,000000	12,986100
2010,000000	13,003500
2009,000000	13,060300
2008,000000	13,139800
2007,000000	13,122400
2006,000000	13,092700
2005,000000	13,127500
2004,000000	13,095900
2003,000000	13,105400
2002,000000	13,120600
2001,000000	13,149800
2000,000000	13,113000
1999,000000	13,077900
1998,000000	13,133800
1997,000000	13,070400
1996,000000	13,061000
1995,000000	13,117800
1994,000000	13,085300
1993,000000	13,044400
1992,000000	13,003100
1991,000000	12,960900
1990,000000	12,912000
1989,000000	12,938000
1988,000000	12,897200
1987,000000	12,828800
1986,000000	12,802400
1985,000000	12,712700
1984,000000	12,677100
1983,000000	12,679400
1982,000000	12,626800
1981,000000	12,524700
1980,000000	12,467700
1979,000000	12,445400
1978,000000	12,395800
1977,000000	12,353000
1976,000000	12,289900
1975,000000	12,199200
1974,000000	12,165000
1973,000000	12,212800
1972,000000	12,145800
1971,000000	12,072700
1970,000000	12,084100
1969,000000	12,045100
1968,000000	11,980400
1967,000000	11,958800
1966,000000	12,007800
1965,000000	11,896100
1964,000000	11,784800
1963,000000	11,719600
1962,000000	11,706500
1961,000000	11,744100
1960,000000	11,659900
1959,000000	11,585900
1958,000000	11,567000
1957,000000	11,543000
1956,000000	11,538800
1955,000000	11,530900
1954,000000	11,456100
1953,000000	11,401700
1952,000000	11,344200
1951,000000	11,265400
1950,000000	11,315800
1949,000000	11,273400
1948,000000	11,152000
1947,000000	11,243800
1946,000000	11,260400
1945,000000	11,172800
1944,000000	11,110600
1943,000000	11,071200
1942,000000	11,088600
1941,000000	11,144300
1940,000000	11,167600
1939,000000	11,197100
1938,000000	11,127600
1937,000000	11,159800
1936,000000	11,124200
1935,000000	11,154400
1934,000000	11,196600
1933,000000	11,221700
1932,000000	11,281800
1931,000000	11,373800
1930,000000	11,379400
1929,000000	11,520200
1928,000000	11,713800
1927,000000	11,717500
1926,000000	11,731400
1925,000000	11,882700
1924,000000	12,039000
1923,000000	12,075700
1922,000000	12,082400
1921,000000	12,411700
1920,000000	12,446100
1919,000000	12,437800
1918,000000	12,538100
1917,000000	12,681500
1916,000000	12,934300
1915,000000	12,932900
1914,000000	13,183800
1913,000000	13,361400
1912,000000	13,485100
1911,000000	13,658000
1910,000000	13,767000
1909,000000	13,895400
1908,000000	14,104700
1907,000000	14,281500
1906,000000	14,528300
1905,000000	14,902500
1904,000000	14,925100
1903,000000	15,082200
1902,000000	15,188500
1901,000000	15,383300
1900,000000	15,757500
1899,000000	15,919500
1898,000000	16,019000
1897,000000	16,175200
1896,000000	16,351900
1895,000000	16,555200
1894,000000	16,797500
1893,000000	17,037400
1892,000000	17,223800
1891,000000	17,428700
1890,000000	17,655500
1889,000000	17,755800
1888,000000	17,803000
1887,000000	18,143200
1886,000000	18,375100
1885,000000	18,723700
1884,000000	19,154500
1883,000000	19,301900
1882,000000	19,519200
1881,000000	20,007000
1880,000000	20,412100
1879,000000	20,670400
1878,000000	21,125700
1877,000000	21,449800
1876,000000	21,731800
1875,000000	21,937900
1874,000000	22,247500
1873,000000	22,532700
1872,000000	22,661800
1871,000000	22,961700
1870,000000	22,990300
1869,000000	23,139200
1868,000000	23,293900
1867,000000	23,231900
1866,000000	23,042000
1865,000000	23,167300
1864,000000	23,256300
1863,000000	23,224700
1862,000000	23,085500
1861,000000	23,298400
1860,000000	23,386600
1859,000000	23,220900
1858,000000	23,161200
1857,000000	23,219800
1856,000000	23,123400
1855,000000	23,003600
1854,000000	23,056200
1853,000000	22,978500
1852,000000	22,711100
1851,000000	22,701800
1850,000000	22,677400
1849,000000	22,706200
1848,000000	22,756400
1847,000000	22,558500
1846,000000	22,233700
1845,000000	22,136300
1844,000000	22,141200
1843,000000	22,208100
1842,000000	22,258900
1841,000000	22,222700
1840,000000	22,072300
1839,000000	21,923600
1838,000000	21,952000
1837,000000	22,000400
1836,000000	21,892900
1835,000000	21,776500
1834,000000	21,563300
1833,000000	21,510700
1832,000000	21,471800
1831,000000	21,487000
1830,000000	21,342700
1829,000000	21,232400
1828,000000	21,169800
1827,000000	21,087800
1826,000000	21,103500
1825,000000	20,901500
1824,000000	20,819000
1823,000000	20,884900
1822,000000	20,911300
1821,000000	20,959800
1820,000000	20,887600
1819,000000	20,724300
1818,000000	20,743500
1817,000000	20,732000
1816,000000	20,765700
1815,000000	20,770500
1814,000000	20,714200
1813,000000	20,699600
1812,000000	20,758600
1811,000000	20,700500
1810,000000	20,652400
1809,000000	20,585700
1808,000000	20,545600
1807,000000	20,532200
1806,000000	20,497100
1805,000000	20,399200
1804,000000	20,325800
1803,000000	20,349800
1802,000000	20,317700
1801,000000	20,218100
1800,000000	20,169200
1799,000000	20,141500
1798,000000	20,096400
1797,000000	20,058200
1796,000000	19,995300
1795,000000	19,949000
1794,000000	19,883700
1793,000000	19,863700
1792,000000	19,793900
1791,000000	19,715200
1790,000000	19,672000
1789,000000	19,571800
1788,000000	19,527800
1787,000000	19,457300
1786,000000	19,405100
1785,000000	19,354000
1784,000000	19,271900
1783,000000	19,139800
1782,000000	19,039300
1781,000000	18,965800
1780,000000	18,872400
1779,000000	18,784800
1778,000000	18,700100
1777,000000	18,596300
1776,000000	18,501800
1775,000000	18,365400
1774,000000	18,220600
1773,000000	18,083800
1772,000000	17,944500
1771,000000	17,841100
1770,000000	17,720900
1769,000000	17,584900
1768,000000	17,444400
1767,000000	17,331300
1766,000000	17,210200
1765,000000	17,169900
1764,000000	17,117300
1763,000000	17,074600
1762,000000	17,098800
1761,000000	17,153800
1760,000000	17,193000
1759,000000	17,230800
1758,000000	17,294500
1757,000000	17,334800
1756,000000	17,366300
1755,000000	17,384900
1754,000000	17,356000
1753,000000	17,350300
1752,000000	17,362200
1751,000000	17,367000
1750,000000	17,293300
1749,000000	17,198500
1748,000000	17,141000
1747,000000	17,059700
1746,000000	16,918700
1745,000000	16,779400
1744,000000	16,630800
1743,000000	16,425700
1742,000000	16,221700
1741,000000	15,996600
1740,000000	15,746200
1739,000000	15,512000
1738,000000	15,327700
1737,000000	15,176400
1736,000000	15,035500
1735,000000	14,906400
1734,000000	14,879600
1733,000000	14,914100
1732,000000	14,958000
1731,000000	15,024000
1730,000000	15,092400
1729,000000	15,170100
1728,000000	15,270900
1727,000000	15,413800
1726,000000	15,502200
1725,000000	15,541100
1724,000000	15,594700
1723,000000	15,610500
1722,000000	15,601900
1721,000000	15,625200
1720,000000	15,645800
1719,000000	15,637500
1718,000000	15,650900
1717,000000	15,723500
1716,000000	15,780700
1715,000000	15,855100
1714,000000	15,931000
1713,000000	16,012000
1712,000000	16,069700
1711,000000	16,106000
1710,000000	16,107900
1709,000000	16,103800
1708,000000	16,100000
1707,000000	16,081700
1706,000000	16,044400
1705,000000	16,011200
1704,000000	15,984900
1703,000000	15,915800
1702,000000	15,825300
1701,000000	15,710700
1700,000000	15,593900
1699,000000	15,489900
1698,000000	15,312100
1697,000000	15,197700
1696,000000	15,131500
1695,000000	15,120800
1694,000000	15,179800
1693,000000	15,225100
1692,000000	15,384400
1691,000000	15,525900
1690,000000	15,669600
1689,000000	15,769300
1688,000000	15,801200
1687,000000	15,800900
1686,000000	15,792100
1685,000000	15,796400
1684,000000	15,883700
1683,000000	15,990300
1682,000000	16,243700
1681,000000	16,701500
1680,000000	17,186500
1679,000000	17,699500
1678,000000	18,169000
1677,000000	18,670400
1676,000000	19,112900
1675,000000	19,477200
1674,000000	19,818800
1673,000000	20,066300
1672,000000	20,323400
1671,000000	20,555200
1670,000000	20,712400
1669,000000	20,851300
1668,000000	20,968100
1667,000000	21,081800
1666,000000	21,207300
1665,000000	21,293700
1664,000000	21,373100
1663,000000	21,459700
1662,000000	21,514000
1661,000000	21,571800
1660,000000	21,612200
1659,000000	21,619700
1658,000000	21,685300
1657,000000	21,686800
1656,000000	21,702600
1655,000000	21,678500
1654,000000	21,668600
1653,000000	21,679300
1652,000000	21,684800
1651,000000	21,662200
1650,000000	21,664600
1649,000000	21,624300
1648,000000	21,571100
1647,000000	21,485000
1646,000000	21,478500
1645,000000	21,410100
1644,000000	21,353100
1643,000000	21,301000
1642,000000	21,265400
1641,000000	21,210000
1640,000000	21,123400
1639,000000	21,084600
1638,000000	20,998000
1637,000000	20,914200
1636,000000	20,863200
1635,000000	20,800700
1634,000000	20,719900
1633,000000	20,688800
1632,000000	20,596200
1631,000000	20,490600
1630,000000	20,414900
1629,000000	20,368400
1628,000000	20,299000
1627,000000	20,201600
1626,000000	20,127400
1625,000000	20,079200
1624,000000	19,947600
1623,000000	19,889900
1622,000000	19,841500
1621,000000	19,781600
1620,000000	19,713300
1619,000000	19,608100
1618,000000	19,531000
1617,000000	19,445000
1616,000000	19,413600
1615,000000	19,348200
1614,000000	19,286400
1613,000000	19,202500
1612,000000	19,152800
1611,000000	19,098600
1610,000000	19,051300
1609,000000	18,939900
1608,000000	18,925300
1607,000000	18,848500
1606,000000	18,823300
1605,000000	18,739800
1604,000000	18,671000
1603,000000	18,638800
1602,000000	18,550300
1601,000000	18,524900
1600,000000	18,459200
1599,000000	18,437000
1598,000000	18,391200
1597,000000	18,307700
1596,000000	18,291700
1595,000000	18,237900
1594,000000	18,223300
1593,000000	18,176600
1592,000000	18,132900
1591,000000	18,125800
1590,000000	18,074600
1589,000000	18,055700
1588,000000	18,038300
1587,000000	18,009700
1586,000000	17,986000
1585,000000	17,980400
1584,000000	17,950600
1583,000000	17,949500
1582,000000	17,927900
1581,000000	17,910300
1580,000000	17,926100
1579,000000	17,892100
1578,000000	17,910200
1577,000000	17,932100
1576,000000	17,938000
1575,000000	17,964200
1574,000000	17,966700
1573,000000	18,013600
1572,000000	18,008400
1571,000000	18,041100
1570,000000	18,053100
1569,000000	18,084400
1568,000000	18,124400
1567,000000	18,154600
1566,000000	18,208100
1565,000000	18,220000
1564,000000	18,218000
1563,000000	18,284100
1562,000000	18,322700
1561,000000	18,348100
1560,000000	18,368500
1559,000000	18,361600
1558,000000	18,401800
1557,000000	18,405500
1556,000000	18,440100
1555,000000	18,426300
1554,000000	18,434300
1553,000000	18,433100
1552,000000	18,436200
1551,000000	18,446000
1550,000000	18,462900
1549,000000	18,408900
1548,000000	18,430400
1547,000000	18,425400
1546,000000	18,430800
1545,000000	18,396600
1544,000000	18,379300
1543,000000	18,397900
1542,000000	18,411500
1541,000000	18,404300
1540,000000	18,389700
1539,000000	18,397500
1538,000000	18,423800
1537,000000	18,420400
1536,000000	18,385700
1535,000000	18,418000
1534,000000	18,404200
1533,000000	18,408000
1532,000000	18,417100
1531,000000	18,423600
1530,000000	18,406000
1529,000000	18,390800
1528,000000	18,406000
1527,000000	18,390800
1526,000000	18,352400
1525,000000	18,319500
1524,000000	18,345300
1523,000000	18,340200
1522,000000	18,321300
1521,000000	18,309700
1520,000000	18,294200
1519,000000	18,284600
1518,000000	18,235000
1517,000000	18,231900
1516,000000	18,227100
1515,000000	18,207900
1514,000000	18,195000
1513,000000	18,199200
1512,000000	18,172500
1511,000000	18,142100
1510,000000	18,152900
1509,000000	18,141700
1508,000000	18,121000
1507,000000	18,087400
1506,000000	18,079400
1505,000000	18,095700
1504,000000	18,076500
1503,000000	18,058900
1502,000000	18,033200
1501,000000	18,042600
1500,000000	18,054300
1499,000000	18,046700
1498,000000	18,038300
1497,000000	18,052400
1496,000000	18,069000
1495,000000	18,063300
1494,000000	18,074900
1493,000000	18,105000
1492,000000	18,120700
1491,000000	18,154200
1490,000000	18,188000
1489,000000	18,219800
1488,000000	18,260200
1487,000000	18,265600
1486,000000	18,291200
1485,000000	18,310700
1484,000000	18,342000
1483,000000	18,385700
1482,000000	18,406400
1481,000000	18,453300
1480,000000	18,482200
1479,000000	18,527800
1478,000000	18,601300
1477,000000	18,631500
1476,000000	18,658400
1475,000000	18,740900
1474,000000	18,804500
1473,000000	18,847700
1472,000000	18,904400
1471,000000	18,945800
1470,000000	19,004800
1469,000000	19,055700
1468,000000	19,086500
1467,000000	19,146000
1466,000000	19,211300
1465,000000	19,265700
1464,000000	19,325300
1463,000000	19,398000
1462,000000	19,486200
1461,000000	19,548100
1460,000000	19,624100
1459,000000	19,711700
1458,000000	19,796500
1457,000000	19,894400
1456,000000	19,995900
1455,000000	20,083100
1454,000000	20,177200
1453,000000	20,263900
1452,000000	20,376100
1451,000000	20,509900
1450,000000	20,606300
1449,000000	20,699300
1448,000000	20,812800
1447,000000	20,958200
1446,000000	21,120200
1445,000000	21,226100
1444,000000	21,307600
1443,000000	21,460400
1442,000000	21,593800
1441,000000	21,707500
1440,000000	21,840700
1439,000000	21,958500
1438,000000	22,065200
1437,000000	22,183200
1436,000000	22,302100
1435,000000	22,439900
1434,000000	22,560300
1433,000000	22,683300
1432,000000	22,814900
1431,000000	22,955500
1430,000000	23,096200
1429,000000	23,257000
1428,000000	23,421200
1427,000000	23,592400
1426,000000	23,773600
1425,000000	23,984100
1424,000000	24,216900
1423,000000	24,432500
1422,000000	24,616200
1421,000000	24,809800
1420,000000	25,052000
1419,000000	25,277200
1418,000000	25,480300
1417,000000	25,638400
1416,000000	25,842100
1415,000000	26,095800
1414,000000	26,275400
1413,000000	26,395100
1412,000000	26,577700
1411,000000	26,790600
1410,000000	27,089600
1409,000000	27,362600
1408,000000	27,624000
1407,000000	27,984400
1406,000000	28,331000
1405,000000	28,728200
1404,000000	29,077800
1403,000000	29,377600
1402,000000	29,781600
1401,000000	30,226000
1400,000000	30,531400
1399,000000	30,680900
1398,000000	30,883300
1397,000000	31,187800
1396,000000	31,416600
1395,000000	31,474400
1394,000000	31,511800
1393,000000	31,649000
1392,000000	31,821700
1391,000000	31,865800
1390,000000	31,982000
1389,000000	32,221100
1388,000000	32,468400
1387,000000	32,652600
1386,000000	32,906100
1385,000000	33,296200
1384,000000	33,672800
1383,000000	34,068700
1382,000000	34,329500
1381,000000	34,491400
1380,000000	34,583200
1379,000000	34,598400
1378,000000	34,618700
1377,000000	34,685000
1376,000000	34,768700
1375,000000	34,947400
1374,000000	35,237300
1373,000000	35,602000
1372,000000	36,085300
1371,000000	36,511200
1370,000000	36,858000
1369,000000	37,223200
1368,000000	37,643400
1367,000000	37,891200
1366,000000	38,144700
1365,000000	38,458200
1364,000000	38,590100
1363,000000	38,747300
1362,000000	39,097100
1361,000000	39,142300
1360,000000	39,109400
1359,000000	39,130100
1358,000000	39,236400
1357,000000	39,452700
1356,000000	39,766500
1355,000000	40,311600
1354,000000	41,003600
1353,000000	41,750500
1352,000000	42,561800
1351,000000	43,351100
1350,000000	44,131300
1349,000000	44,822900
1348,000000	45,442800
1347,000000	46,015100
1346,000000	46,510300
1345,000000	47,038800
1344,000000	47,549200
1343,000000	48,017800
1342,000000	48,440700
1341,000000	48,858000
1340,000000	49,276800
1339,000000	49,651100
1338,000000	50,018200
1337,000000	50,368200
1336,000000	50,693600
1335,000000	51,003100
1334,000000	51,321600
1333,000000	51,597500
1332,000000	51,888300
1331,000000	52,138000
1330,000000	52,379400
1329,000000	52,601300
1328,000000	52,795500
1327,000000	53,025000
1326,000000	53,190100
1325,000000	53,400200
1324,000000	53,545900
1323,000000	53,723100
1322,000000	53,872100
1321,000000	53,995000
1320,000000	54,152400
1319,000000	54,260800
1318,000000	54,374700
1317,000000	54,496500
1316,000000	54,608600
1315,000000	54,702300
1314,000000	54,813800
1313,000000	54,891700
1312,000000	54,967600
1311,000000	55,053300
1310,000000	55,103400
1309,000000	55,171800
1308,000000	55,220800
1307,000000	55,250400
1306,000000	55,266400
1305,000000	55,310200
1304,000000	55,298700
1303,000000	55,301700
1302,000000	55,288500
1301,000000	55,290400
1300,000000	55,242400
1299,000000	55,233900
1298,000000	55,216000
1297,000000	55,192700
1296,000000	55,164000
1295,000000	55,090700
1294,000000	55,074100
1293,000000	55,030300
1292,000000	54,990500
1291,000000	54,920400
1290,000000	54,845100
1289,000000	54,773200
1288,000000	54,688000
1287,000000	54,605000
1286,000000	54,488600
1285,000000	54,358000
1284,000000	54,253500
1283,000000	54,121000
1282,000000	54,009800
1281,000000	53,897400
1280,000000	53,742300
1279,000000	53,639700
1278,000000	53,539500
1277,000000	53,421000
1276,000000	53,316200
1275,000000	53,225200
1274,000000	53,137300
1273,000000	53,034600
1272,000000	52,942000
1271,000000	52,863100
1270,000000	52,759100
1269,000000	52,664300
1268,000000	52,585000
1267,000000	52,494300
1266,000000	52,404800
1265,000000	52,318400
1264,000000	52,209800
1263,000000	52,133300
1262,000000	52,042400
1261,000000	51,961200
1260,000000	51,894900
1259,000000	51,806600
1258,000000	51,692100
1257,000000	51,620400
1256,000000	51,527200
1255,000000	51,424700
1254,000000	51,322300
1253,000000	51,212500
1252,000000	51,115100
1251,000000	51,008500
1250,000000	50,883700
1249,000000	50,742200
1248,000000	50,586500
1247,000000	50,440600
1246,000000	50,254200
1245,000000	50,065700
1244,000000	49,852300
1243,000000	49,642000
1242,000000	49,401000
1241,000000	49,166000
1240,000000	48,923800
1239,000000	48,679400
1238,000000	48,415900
1237,000000	48,141800
1236,000000	47,877400
1235,000000	47,615400
1234,000000	47,350900
1233,000000	47,072500
1232,000000	46,811700
1231,000000	46,537400
1230,000000	46,255000
1229,000000	45,982200
1228,000000	45,713900
1227,000000	45,437700
1226,000000	45,178700
1225,000000	44,921900
1224,000000	44,678400
1223,000000	44,438900
1222,000000	44,191700
1221,000000	43,967300
1220,000000	43,755500
1219,000000	43,553400
1218,000000	43,386500
1217,000000	43,210800
1216,000000	43,041500
1215,000000	42,906200
1214,000000	42,758600
1213,000000	42,611900
1212,000000	42,502700
1211,000000	42,393200
1210,000000	42,272600
1209,000000	42,177700
1208,000000	42,108800
1207,000000	42,057300
1206,000000	42,026200
1205,000000	42,011700
1204,000000	42,006200
1203,000000	42,012200
1202,000000	42,025000
1201,000000	42,026900
1200,000000	41,989000
1199,000000	41,903200
1198,000000	41,789400
1197,000000	41,617100
1196,000000	41,376900
1195,000000	41,073000
1194,000000	40,670100
1193,000000	40,155300
1192,000000	39,566500
1191,000000	38,936800
1190,000000	38,344200
1189,000000	37,844700
1188,000000	37,457900
1187,000000	37,224300
1186,000000	37,166200
1185,000000	37,281800
1184,000000	37,546900
1183,000000	37,957400
1182,000000	38,524700
1181,000000	39,172300
1180,000000	39,862500
1179,000000	40,518500
1178,000000	41,087900
1177,000000	41,567500
1176,000000	41,995500
1175,000000	42,422800
1174,000000	42,824900
1173,000000	43,242300
1172,000000	43,688400
1171,000000	44,166300
1170,000000	44,675900
1169,000000	45,176600
1168,000000	45,672800
1167,000000	46,189700
1166,000000	46,729800
1165,000000	47,291300
1164,000000	47,822000
1163,000000	48,394700
1162,000000	48,953200
1161,000000	49,501000
1160,000000	50,049600
1159,000000	50,584900
1158,000000	51,093800
1157,000000	51,558600
1156,000000	51,940500
1155,000000	52,244600
1154,000000	52,457800
1153,000000	52,569300
1152,000000	52,605100
1151,000000	52,573500
1150,000000	52,503800
1149,000000	52,433200
1148,000000	52,395700
1147,000000	52,404700
1146,000000	52,551000
1145,000000	52,828000
1144,000000	53,244900
1143,000000	53,739100
1142,000000	54,283300
1141,000000	54,830400
1140,000000	55,414100
1139,000000	55,990100
1138,000000	56,594300
1137,000000	57,227800
1136,000000	57,886400
1135,000000	58,559800
1134,000000	59,111400
1133,000000	59,590300
1132,000000	60,079800
1131,000000	60,560100
1130,000000	60,964100
1129,000000	61,316600
1128,000000	61,601000
1127,000000	61,848400
1126,000000	61,999700
1125,000000	62,138200
1124,000000	62,289700
1123,000000	62,438300
1122,000000	62,528300
1121,000000	62,581100
1120,000000	62,695000
1119,000000	62,762100
1118,000000	62,813100
1117,000000	62,835700
1116,000000	62,813600
1115,000000	62,796900
1114,000000	62,796600
1113,000000	62,788800
1112,000000	62,779700
1111,000000	62,769600
1110,000000	62,750200
1109,000000	62,749400
1108,000000	62,707600
1107,000000	62,688800
1106,000000	62,665300
1105,000000	62,622700
1104,000000	62,617900
1103,000000	62,631500
1102,000000	62,579500
1101,000000	62,541200
1100,000000	62,499100
1099,000000	62,398800
1098,000000	62,404000
1097,000000	62,333200
1096,000000	62,261600
1095,000000	62,182800
1094,000000	62,130600
1093,000000	62,029400
1092,000000	61,997500
1091,000000	61,931800
1090,000000	61,832500
1089,000000	61,750700
1088,000000	61,667400
1087,000000	61,593100
1086,000000	61,485200
1085,000000	61,404800
1084,000000	61,304700
1083,000000	61,254300
1082,000000	61,161200
1081,000000	61,090200
1080,000000	60,971100
1079,000000	60,951700
1078,000000	60,869600
1077,000000	60,821500
1076,000000	60,777100
1075,000000	60,672500
1074,000000	60,604100
1073,000000	60,570600
1072,000000	60,489400
1071,000000	60,422900
1070,000000	60,400300
1069,000000	60,339300
1068,000000	60,317500
1067,000000	60,263100
1066,000000	60,151800
1065,000000	60,130600
1064,000000	60,078600
1063,000000	60,039000
1062,000000	59,969900
1061,000000	59,895100
1060,000000	59,834900
1059,000000	59,773200
1058,000000	59,723500
1057,000000	59,663300
1056,000000	59,597600
1055,000000	59,496400
1054,000000	59,409600
1053,000000	59,290400
1052,000000	59,286300
1051,000000	59,189300
1050,000000	59,170800
1049,000000	59,105200
1048,000000	58,985300
1047,000000	59,006700
1046,000000	58,930200
1045,000000	58,869500
1044,000000	58,813500
1043,000000	58,741400
1042,000000	58,679700
1041,000000	58,694100
1040,000000	58,633200
1039,000000	58,556500
1038,000000	58,482500
1037,000000	58,420600
1036,000000	58,345700
1035,000000	58,235600
1034,000000	58,212700
1033,000000	58,114200
1032,000000	58,049700
1031,000000	57,998200
1030,000000	57,884000
1029,000000	57,784300
1028,000000	57,649100
1027,000000	57,591700
1026,000000	57,542500
1025,000000	57,517300
1024,000000	57,362100
1023,000000	57,297700
1022,000000	57,228700
1021,000000	57,128800
1020,000000	57,020300
1019,000000	56,976000
1018,000000	56,932800
1017,000000	56,934700
1016,000000	56,844000
1015,000000	56,839300
1014,000000	56,811400
1013,000000	56,796500
1012,000000	56,845200
1011,000000	56,878200
1010,000000	56,897100
1009,000000	57,056500
1008,000000	57,111800
1007,000000	57,182500
1006,000000	57,244400
1005,000000	57,286700
1004,000000	57,339400
1003,000000	57,370000
1002,000000	57,452200
1001,000000	57,440100
1000,000000	57,584700
999,000000	57,597900
998,000000	57,687100
997,000000	57,725300
996,000000	57,776600
995,000000	57,873800
994,000000	57,911300
993,000000	57,905700
992,000000	57,994900
991,000000	58,011100
990,000000	58,098300
989,000000	58,244100
988,000000	58,332600
987,000000	58,360600
986,000000	58,401200
985,000000	58,508800
984,000000	58,558700
983,000000	58,658800
982,000000	58,684700
981,000000	58,819000
980,000000	58,849500
979,000000	58,888300
978,000000	59,026100
977,000000	59,147300
976,000000	59,220600
975,000000	59,292200
974,000000	59,362400
973,000000	59,404400
972,000000	59,453500
971,000000	59,575000
970,000000	59,682300
969,000000	59,761800
968,000000	59,748600
967,000000	59,777700
966,000000	59,869100
965,000000	59,919400
964,000000	60,018700
963,000000	60,098900
962,000000	60,104000
961,000000	60,207800
960,000000	60,409400
959,000000	60,498500
958,000000	60,573300
957,000000	60,705400
956,000000	60,785400
955,000000	60,810100
954,000000	60,962500
953,000000	61,106400
952,000000	61,125700
951,000000	61,158500
950,000000	61,283500
949,000000	61,393100
948,000000	61,499000
947,000000	61,556100
946,000000	61,549900
945,000000	61,707000
944,000000	61,916000
943,000000	61,935300
942,000000	62,028700
941,000000	62,191900
940,000000	62,272000
939,000000	62,469300
938,000000	62,656600
937,000000	62,709300
936,000000	62,790100
935,000000	62,903400
934,000000	63,041800
933,000000	63,231300
932,000000	63,519400
931,000000	63,619400
930,000000	63,650700
929,000000	63,764300
928,000000	63,802100
927,000000	63,973000
926,000000	64,105300
925,000000	64,264800
924,000000	64,528500
923,000000	64,534300
922,000000	64,631100
921,000000	64,761900
920,000000	64,893700
919,000000	64,983000
918,000000	65,018300
917,000000	65,172900
916,000000	65,148800
915,000000	65,195600
914,000000	65,178400
913,000000	65,137500
912,000000	65,246700
911,000000	65,521000
910,000000	65,721900
909,000000	65,649400
908,000000	65,703100
907,000000	65,839400
906,000000	66,128400
905,000000	66,114800
904,000000	66,444600
903,000000	66,800700
902,000000	67,263400
901,000000	67,668800
900,000000	67,853600
899,000000	68,013200
898,000000	68,183700
897,000000	68,439600
896,000000	68,400300
895,000000	68,615300
894,000000	69,420300
893,000000	69,581900
892,000000	69,446600
891,000000	69,743900
890,000000	70,211800
889,000000	70,399000
888,000000	70,583900
887,000000	70,623800
886,000000	70,718200
885,000000	71,017900
884,000000	70,985700
883,000000	71,265600
882,000000	71,904500
881,000000	71,894800
880,000000	72,122200
879,000000	71,710800
878,000000	72,422000
877,000000	72,180400
876,000000	72,176900
875,000000	72,371900
874,000000	72,771200
873,000000	72,738800
872,000000	72,959200
871,000000	73,348600
870,000000	72,940400
869,000000	72,795600
868,000000	72,757100
867,000000	73,587400
866,000000	73,552600
865,000000	74,221000
864,000000	74,651600
863,000000	74,118000
862,000000	74,053900
861,000000	74,299900
860,000000	74,863100
859,000000	75,554400
858,000000	73,911800
857,000000	74,191700
856,000000	74,311100
855,000000	74,553100
854,000000	74,239200
853,000000	74,334300
852,000000	74,642800
851,000000	74,978900
850,000000	75,244500
849,000000	74,780700
848,000000	75,175100
847,000000	75,377900
846,000000	75,531500
845,000000	75,576900
844,000000	76,074700
843,000000	76,122500
842,000000	76,074700
841,000000	76,228900
840,000000	76,346200
839,000000	76,636200
838,000000	76,595300
837,000000	76,648200
836,000000	76,910400
835,000000	76,923000
834,000000	76,817400
833,000000	77,040100
832,000000	77,047400
831,000000	77,184100
830,000000	77,140000
829,000000	77,055200
828,000000	77,102500
827,000000	76,953200
826,000000	77,185900
825,000000	77,150900
824,000000	76,974200
823,000000	76,970100
822,000000	77,053100
821,000000	77,054800
820,000000	77,122800
819,000000	77,170500
818,000000	76,997700
817,000000	77,213900
816,000000	77,250000
815,000000	77,330300
814,000000	77,254100
813,000000	77,285400
812,000000	77,393100
811,000000	77,326700
810,000000	77,245900
809,000000	77,601600
808,000000	77,684300
807,000000	77,687600
806,000000	77,744700
805,000000	78,076100
804,000000	78,047400
803,000000	78,223800
802,000000	78,268200
801,000000	78,541000
800,000000	78,640000
799,000000	78,961600
798,000000	79,095000
797,000000	79,426800
796,000000	79,693400
795,000000	79,991700
794,000000	80,190500
793,000000	80,643100
792,000000	80,709800
791,000000	80,932600
790,000000	81,223900
789,000000	81,597200
788,000000	81,741400
787,000000	82,168100
786,000000	82,516900
785,000000	82,724400
784,000000	82,757700
783,000000	83,071200
782,000000	83,290600
781,000000	83,347200
780,000000	83,437800
779,000000	83,654900
778,000000	83,715000
777,000000	83,750600
776,000000	83,876800
775,000000	83,959000
774,000000	83,875300
773,000000	83,913300
772,000000	84,023700
771,000000	83,908300
770,000000	83,900800
769,000000	83,941800
768,000000	83,834300
767,000000	83,955000
766,000000	84,072700
765,000000	84,131700
764,000000	84,280700
763,000000	84,290400
762,000000	84,506400
761,000000	84,771100
760,000000	84,820600
759,000000	85,033300
758,000000	85,246700
757,000000	85,380300
756,000000	85,587200
755,000000	85,886300
754,000000	86,110000
753,000000	86,452200
752,000000	86,589300
751,000000	86,874500
750,000000	87,050400
749,000000	87,303000
748,000000	87,408400
747,000000	87,622600
746,000000	87,687600
745,000000	87,789600
744,000000	87,878900
743,000000	88,028600
742,000000	87,995800
741,000000	88,017800
740,000000	88,015000
739,000000	88,052000
738,000000	87,894100
737,000000	87,911000
736,000000	87,910900
735,000000	87,968500
734,000000	87,916900
733,000000	87,831500
732,000000	87,846600
731,000000	87,787200
730,000000	87,756200
729,000000	87,713500
728,000000	87,559400
727,000000	87,433200
726,000000	87,500300
725,000000	87,397100
724,000000	87,295800
723,000000	87,094200
722,000000	87,032200
721,000000	86,864600
720,000000	86,695000
719,000000	86,528000
718,000000	86,326900
717,000000	86,081400
716,000000	85,848300
715,000000	85,573200
714,000000	85,356800
713,000000	85,103200
712,000000	84,691900
711,000000	84,387200
710,000000	84,038800
709,000000	83,714500
708,000000	83,370300
707,000000	83,017600
706,000000	82,727800
705,000000	82,366500
704,000000	82,058300
703,000000	81,837700
702,000000	81,655200
701,000000	81,460700
700,000000	81,302600
699,000000	81,135400
698,000000	81,016300
697,000000	80,983500
696,000000	80,895100
695,000000	80,711700
694,000000	80,696500
693,000000	80,636500
692,000000	80,574900
691,000000	80,523800
690,000000	80,451300
689,000000	80,417400
688,000000	80,378200
687,000000	80,283200
686,000000	80,214000
685,000000	80,186600
684,000000	80,159800
683,000000	80,100500
682,000000	80,061400
681,000000	80,038600
680,000000	80,059400
679,000000	80,007600
678,000000	79,942000
677,000000	79,902400
676,000000	79,819200
675,000000	79,686700
674,000000	79,556700
673,000000	79,382000
672,000000	79,158400
671,000000	78,956000
670,000000	78,761400
669,000000	78,480100
668,000000	78,231900
667,000000	77,997400
666,000000	77,787600
665,000000	77,482700
664,000000	77,120900
663,000000	76,812300
662,000000	76,402100
661,000000	75,987200
660,000000	75,486900
659,000000	74,905900
658,000000	74,288300
657,000000	73,610700
656,000000	72,887200
655,000000	72,153200
654,000000	71,346000
653,000000	70,477500
652,000000	69,634300
651,000000	68,816400
650,000000	67,950200
649,000000	67,108500
648,000000	66,352800
647,000000	65,635500
646,000000	64,983800
645,000000	64,368500
644,000000	63,851600
643,000000	63,434300
642,000000	63,055500
641,000000	62,793100
640,000000	62,690000
639,000000	62,709700
638,000000	62,852800
637,000000	63,093100
636,000000	63,475000
635,000000	63,982800
634,000000	64,562200
633,000000	65,268300
632,000000	66,009500
631,000000	66,833200
630,000000	67,753900
629,000000	68,635000
628,000000	69,551800
627,000000	70,525700
626,000000	71,483800
625,000000	72,455600
624,000000	73,415400
623,000000	74,373100
622,000000	75,309800
621,000000	76,244400
620,000000	77,130800
619,000000	77,961500
618,000000	78,834900
617,000000	79,718800
616,000000	80,563900
615,000000	81,370400
614,000000	82,191100
613,000000	82,992600
612,000000	83,766700
611,000000	84,514200
610,000000	85,198000
609,000000	85,820600
608,000000	86,451600
607,000000	87,100500
606,000000	87,641800
605,000000	88,133900
604,000000	88,623200
603,000000	89,085100
602,000000	89,529400
601,000000	89,873100
600,000000	90,248000
599,000000	90,588500
598,000000	90,879300
597,000000	91,169000
596,000000	91,387600
595,000000	91,611200
594,000000	91,820100
593,000000	91,986100
592,000000	92,144500
591,000000	92,267600
590,000000	92,349600
589,000000	92,446900
588,000000	92,471600
587,000000	92,514400
586,000000	92,537900
585,000000	92,518900
584,000000	92,487000
583,000000	92,423800
582,000000	92,378700
581,000000	92,283800
580,000000	92,138200
579,000000	91,999200
578,000000	91,873000
577,000000	91,693800
576,000000	91,528900
575,000000	91,337300
574,000000	91,156800
573,000000	90,956300
572,000000	90,733500
571,000000	90,486900
570,000000	90,256200
569,000000	90,005600
568,000000	89,733700
567,000000	89,440300
566,000000	89,133000
565,000000	88,778400
564,000000	88,409800
563,000000	88,014800
562,000000	87,592400
561,000000	87,160000
560,000000	86,646000
559,000000	86,045200
558,000000	85,466900
557,000000	84,942300
556,000000	84,316000
555,000000	83,718700
554,000000	83,080900
553,000000	82,374100
552,000000	81,649100
551,000000	80,896600
550,000000	80,129000
549,000000	79,348100
548,000000	78,535000
547,000000	77,727000
546,000000	76,870200
545,000000	76,009700
544,000000	75,089500
543,000000	74,140700
542,000000	73,181300
541,000000	72,152200
540,000000	71,087200
539,000000	69,986200
538,000000	68,858900
537,000000	67,744200
536,000000	66,581900
535,000000	65,365200
534,000000	64,129100
533,000000	62,871200
532,000000	61,571300
531,000000	60,259500
530,000000	58,927000
529,000000	57,578700
528,000000	56,238500
527,000000	54,891600
526,000000	53,582800
525,000000	52,263600
524,000000	50,931800
523,000000	49,664200
522,000000	48,407900
521,000000	47,221600
520,000000	46,122600
519,000000	45,070900
518,000000	44,098400
517,000000	43,202900
516,000000	42,384800
515,000000	41,624500
514,000000	40,921600
513,000000	40,259900
512,000000	39,684400
511,000000	39,193000
510,000000	38,688700
509,000000	38,274800
508,000000	37,894200
507,000000	37,503200
506,000000	37,154100
505,000000	36,807500
504,000000	36,452600
503,000000	36,140100
502,000000	35,809300
501,000000	35,444400
500,000000	35,082500
499,000000	34,711900
498,000000	34,353800
497,000000	33,978000
496,000000	33,572400
495,000000	33,175100
494,000000	32,760100
493,000000	32,310600
492,000000	31,843900
491,000000	31,350800
490,000000	30,898400
489,000000	30,406500
488,000000	29,949300
487,000000	29,484500
486,000000	29,060300
485,000000	28,626800
484,000000	28,225300
483,000000	27,838300
482,000000	27,533000
481,000000	27,235100
480,000000	26,987500
479,000000	26,753600
478,000000	26,560800
477,000000	26,387900
476,000000	26,243800
475,000000	26,120000
474,000000	26,041400
473,000000	25,974500
472,000000	25,907100
471,000000	25,900700
470,000000	25,885800
469,000000	25,889100
468,000000	25,888600
467,000000	25,905200
466,000000	25,901800
465,000000	25,922700
464,000000	25,920200
463,000000	25,902000
462,000000	25,866000
461,000000	25,860400
460,000000	25,798700
459,000000	25,732300
458,000000	25,695200
457,000000	25,620800
456,000000	25,516200
455,000000	25,439600
454,000000	25,338400
453,000000	25,210400
452,000000	25,085400
451,000000	24,929300
450,000000	24,761100
449,000000	24,605100
448,000000	24,421600
447,000000	24,249100
446,000000	24,028400
445,000000	23,794400
444,000000	23,547600
443,000000	23,336900
442,000000	23,035600
441,000000	22,746800
440,000000	22,464100
439,000000	22,192500
438,000000	21,882500
437,000000	21,552200
436,000000	21,236400
435,000000	20,923600
434,000000	20,568200
433,000000	20,201200
432,000000	19,813400
431,000000	19,467400
430,000000	19,076700
429,000000	18,732100
428,000000	18,330000
427,000000	17,925600
426,000000	17,550400
425,000000	17,155500
424,000000	16,742100
423,000000	16,339600
422,000000	15,924300
421,000000	15,519900
420,000000	15,116700
419,000000	14,683300
418,000000	14,296700
417,000000	13,943800
416,000000	13,546800
415,000000	13,157500
414,000000	12,783000
413,000000	12,437400
412,000000	12,076800
411,000000	11,751200
410,000000	11,427100
409,000000	11,103600
408,000000	10,811900
407,000000	10,528400
406,000000	10,260300
405,000000	10,001300
404,000000	9,771300
403,000000	9,519600
402,000000	9,305000
401,000000	9,091600
400,000000	8,892000
399,000000	8,720500
398,000000	8,561600
397,000000	8,389800
396,000000	8,233500
395,000000	8,086400
394,000000	7,958100
393,000000	7,830000
392,000000	7,713000
391,000000	7,605400
390,000000	7,483100
389,000000	7,392700
388,000000	7,318900
387,000000	7,239400
386,000000	7,146500
385,000000	7,061400
384,000000	7,003400
383,000000	6,935000
382,000000	6,874400
381,000000	6,830900
380,000000	6,769300
379,000000	6,730200
378,000000	6,685600
377,000000	6,637800
376,000000	6,549300
375,000000	6,419800
374,000000	6,440700
373,000000	6,428700
372,000000	6,395500
371,000000	6,395600
370,000000	6,426500
369,000000	6,362400
368,000000	6,327900
367,000000	6,330500
366,000000	6,323100
365,000000	6,277600
364,000000	6,280500
363,000000	6,259900
362,000000	6,199700
361,000000	6,170000
360,000000	6,235500
359,000000	6,154600
358,000000	6,108400
357,000000	6,108300
356,000000	6,082600
355,000000	6,081400
354,000000	6,059500
353,000000	6,029800
352,000000	6,031100
351,000000	5,959000
350,000000	5,932000
349,000000	5,945700
348,000000	5,941000
347,000000	5,977400
346,000000	6,046900
345,000000	6,019800
344,000000	5,980600
343,000000	5,973200
342,000000	5,997800
341,000000	5,979300
340,000000	6,019300
339,000000	6,019400
338,000000	6,006600
337,000000	5,974700
336,000000	5,935400
335,000000	5,937800
334,000000	5,960600
333,000000	5,993500
332,000000	5,990200
331,000000	5,995800
330,000000	5,984800
329,000000	5,972100
328,000000	5,962800
327,000000	6,002600
326,000000	6,033600
325,000000	6,046100
324,000000	6,013700
323,000000	6,019000
322,000000	6,044300
321,000000	6,030800
320,000000	6,084300
319,000000	6,144700
318,000000	6,141800
317,000000	6,043200
316,000000	6,062200
315,000000	6,104900
314,000000	6,101400
313,000000	6,105900
312,000000	6,096800
311,000000	6,099300
310,000000	6,109100
309,000000	6,125000
308,000000	6,141400
307,000000	6,139400
306,000000	6,148200
305,000000	6,164000
304,000000	6,185400
303,000000	6,196600
302,000000	6,195900
301,000000	6,181700
300,000000	6,164000
299,000000	6,167600
298,000000	6,166500
297,000000	6,176000
296,000000	6,207000
295,000000	6,239300
294,000000	6,235100
293,000000	6,220000
292,000000	6,228300
291,000000	6,245700
290,000000	6,231300
289,000000	6,234600
288,000000	6,245500
287,000000	6,258500
286,000000	6,271100
285,000000	6,261900
284,000000	6,275500
283,000000	6,251800
282,000000	6,272400
281,000000	6,305700
280,000000	6,289200
279,000000	6,301800
278,000000	6,329000
277,000000	6,347200
276,000000	6,353300
275,000000	6,357500
274,000000	6,372400
273,000000	6,376400
272,000000	6,404400
271,000000	6,434100
270,000000	6,453100
269,000000	6,504400
268,000000	6,517400
267,000000	6,514900
266,000000	6,540900
265,000000	6,590200
264,000000	6,613000
263,000000	6,653200
262,000000	6,679300
261,000000	6,706700
260,000000	6,734100
259,000000	6,739700
258,000000	6,767800
257,000000	6,802800
256,000000	6,838600
255,000000	6,861300
254,000000	6,848200
253,000000	6,912700
252,000000	6,910700
251,000000	6,901000
250,000000	6,923500
