PE UV       SUBTECH     SPECTRUM    ASCII       PEDS        4.00        
   -1
CICIMAUCR0101-1.Sample.ASC
24/04/19
09:59:09.00
24/04/19
09:59:09.00
Vinicio Soto Monge
C. resplendens
250,000000
1
Lambda 1050
1050L1511233
PerkinElmer UV WinLab 6.3.2.0749 / 2.02.05 Lambda 900 UV/VIS/NIR, Aug  7 2015 09:38:08

0
0
3350/servo 860,8/2
0
0
UV/VIS
1
1
1
DoubleDePol,CommonBeamDepol,RBeamAtt,SBeamAtt,60mm sphere, WB InGaAs Detector
0
0
0
0
Program
Program
3350/servo 860,8/2
3350/0,2 860,8/0,2
3350/0,2 860,8/0,2
0
15.00
 
 
 
0
 
860,8
319,2
860,8
Front
100
on
S:100 R:100
0
0
0
0
 
0
 
 
 
0
 
 
0
0
0
0
0
 
 
 
 
0
0


0
0
#HDR
-1
-1
#GR
nm
%R
1.0
0.0
2500,000000
-1,000000
2251
8
92,662600
5,537600
#DATA
2500,000000	6,748300
2499,000000	6,734000
2498,000000	6,720800
2497,000000	6,649800
2496,000000	6,704400
2495,000000	6,699400
2494,000000	6,604800
2493,000000	6,614400
2492,000000	6,584500
2491,000000	6,616000
2490,000000	6,530200
2489,000000	6,541800
2488,000000	6,525400
2487,000000	6,450100
2486,000000	6,497700
2485,000000	6,481900
2484,000000	6,470200
2483,000000	6,531000
2482,000000	6,513100
2481,000000	6,497500
2480,000000	6,433000
2479,000000	6,415900
2478,000000	6,441500
2477,000000	6,397100
2476,000000	6,441900
2475,000000	6,424700
2474,000000	6,444300
2473,000000	6,435500
2472,000000	6,406900
2471,000000	6,453700
2470,000000	6,422200
2469,000000	6,411000
2468,000000	6,411100
2467,000000	6,420100
2466,000000	6,407700
2465,000000	6,416300
2464,000000	6,411200
2463,000000	6,431800
2462,000000	6,457100
2461,000000	6,489600
2460,000000	6,522400
2459,000000	6,535400
2458,000000	6,553200
2457,000000	6,596700
2456,000000	6,640400
2455,000000	6,673700
2454,000000	6,701200
2453,000000	6,748000
2452,000000	6,783500
2451,000000	6,821700
2450,000000	6,874600
2449,000000	6,926700
2448,000000	6,974300
2447,000000	6,991600
2446,000000	7,026800
2445,000000	7,083200
2444,000000	7,140200
2443,000000	7,178900
2442,000000	7,228000
2441,000000	7,282100
2440,000000	7,336800
2439,000000	7,352600
2438,000000	7,390800
2437,000000	7,442100
2436,000000	7,479000
2435,000000	7,497500
2434,000000	7,531100
2433,000000	7,565900
2432,000000	7,599600
2431,000000	7,621600
2430,000000	7,651600
2429,000000	7,676500
2428,000000	7,709300
2427,000000	7,733400
2426,000000	7,764000
2425,000000	7,778000
2424,000000	7,798600
2423,000000	7,806600
2422,000000	7,802200
2421,000000	7,812400
2420,000000	7,821900
2419,000000	7,829200
2418,000000	7,847600
2417,000000	7,858100
2416,000000	7,841600
2415,000000	7,853900
2414,000000	7,865100
2413,000000	7,869000
2412,000000	7,885100
2411,000000	7,905200
2410,000000	7,894500
2409,000000	7,875900
2408,000000	7,901800
2407,000000	7,919200
2406,000000	7,937400
2405,000000	7,932700
2404,000000	7,941400
2403,000000	7,958700
2402,000000	7,966400
2401,000000	7,978000
2400,000000	7,979600
2399,000000	7,987800
2398,000000	8,012100
2397,000000	8,033500
2396,000000	8,042500
2395,000000	8,051900
2394,000000	8,065900
2393,000000	8,075100
2392,000000	8,090300
2391,000000	8,087600
2390,000000	8,105500
2389,000000	8,123700
2388,000000	8,118000
2387,000000	8,119700
2386,000000	8,119900
2385,000000	8,105400
2384,000000	8,103800
2383,000000	8,096600
2382,000000	8,083600
2381,000000	8,072600
2380,000000	8,064100
2379,000000	8,049300
2378,000000	8,026000
2377,000000	8,006300
2376,000000	7,986000
2375,000000	7,978700
2374,000000	7,965600
2373,000000	7,933200
2372,000000	7,913400
2371,000000	7,885200
2370,000000	7,843200
2369,000000	7,812400
2368,000000	7,783300
2367,000000	7,739900
2366,000000	7,697600
2365,000000	7,657700
2364,000000	7,601800
2363,000000	7,551100
2362,000000	7,516700
2361,000000	7,460100
2360,000000	7,399800
2359,000000	7,354400
2358,000000	7,319000
2357,000000	7,287200
2356,000000	7,253400
2355,000000	7,233600
2354,000000	7,232700
2353,000000	7,231800
2352,000000	7,214200
2351,000000	7,220200
2350,000000	7,241000
2349,000000	7,255500
2348,000000	7,286600
2347,000000	7,332600
2346,000000	7,339600
2345,000000	7,353600
2344,000000	7,402100
2343,000000	7,425700
2342,000000	7,445700
2341,000000	7,460600
2340,000000	7,477800
2339,000000	7,499000
2338,000000	7,499600
2337,000000	7,487100
2336,000000	7,470000
2335,000000	7,432800
2334,000000	7,421200
2333,000000	7,404000
2332,000000	7,383100
2331,000000	7,343300
2330,000000	7,290900
2329,000000	7,252400
2328,000000	7,215700
2327,000000	7,157600
2326,000000	7,107300
2325,000000	7,055200
2324,000000	7,004400
2323,000000	6,934000
2322,000000	6,864700
2321,000000	6,800000
2320,000000	6,735100
2319,000000	6,670000
2318,000000	6,606200
2317,000000	6,533700
2316,000000	6,465100
2315,000000	6,407400
2314,000000	6,342400
2313,000000	6,278300
2312,000000	6,249400
2311,000000	6,195900
2310,000000	6,146100
2309,000000	6,116900
2308,000000	6,111500
2307,000000	6,108300
2306,000000	6,110200
2305,000000	6,100700
2304,000000	6,125700
2303,000000	6,158900
2302,000000	6,196500
2301,000000	6,245400
2300,000000	6,294800
2299,000000	6,334000
2298,000000	6,383200
2297,000000	6,432300
2296,000000	6,487900
2295,000000	6,525300
2294,000000	6,547900
2293,000000	6,584700
2292,000000	6,599100
2291,000000	6,619300
2290,000000	6,639300
2289,000000	6,633200
2288,000000	6,621600
2287,000000	6,601000
2286,000000	6,574900
2285,000000	6,575000
2284,000000	6,552600
2283,000000	6,514800
2282,000000	6,491900
2281,000000	6,467200
2280,000000	6,421700
2279,000000	6,407200
2278,000000	6,390000
2277,000000	6,345800
2276,000000	6,342000
2275,000000	6,335300
2274,000000	6,319600
2273,000000	6,316000
2272,000000	6,310800
2271,000000	6,313000
2270,000000	6,324100
2269,000000	6,360900
2268,000000	6,396300
2267,000000	6,446500
2266,000000	6,517000
2265,000000	6,600600
2264,000000	6,690200
2263,000000	6,788100
2262,000000	6,893400
2261,000000	7,039900
2260,000000	7,179700
2259,000000	7,313200
2258,000000	7,471700
2257,000000	7,625000
2256,000000	7,800800
2255,000000	7,989300
2254,000000	8,133900
2253,000000	8,285700
2252,000000	8,434800
2251,000000	8,575900
2250,000000	8,756900
2249,000000	8,868700
2248,000000	9,012400
2247,000000	9,121900
2246,000000	9,257600
2245,000000	9,370400
2244,000000	9,479200
2243,000000	9,555300
2242,000000	9,643200
2241,000000	9,737200
2240,000000	9,812000
2239,000000	9,880400
2238,000000	9,960100
2237,000000	10,034900
2236,000000	10,090600
2235,000000	10,141700
2234,000000	10,208800
2233,000000	10,238800
2232,000000	10,289600
2231,000000	10,319900
2230,000000	10,351200
2229,000000	10,373600
2228,000000	10,373800
2227,000000	10,399400
2226,000000	10,395400
2225,000000	10,414000
2224,000000	10,426400
2223,000000	10,420200
2222,000000	10,428300
2221,000000	10,412100
2220,000000	10,389200
2219,000000	10,389500
2218,000000	10,376700
2217,000000	10,375300
2216,000000	10,355700
2215,000000	10,313300
2214,000000	10,325300
2213,000000	10,301000
2212,000000	10,297600
2211,000000	10,293800
2210,000000	10,280300
2209,000000	10,273900
2208,000000	10,250400
2207,000000	10,245600
2206,000000	10,223400
2205,000000	10,220100
2204,000000	10,213100
2203,000000	10,210000
2202,000000	10,214500
2201,000000	10,201900
2200,000000	10,201300
2199,000000	10,202100
2198,000000	10,169300
2197,000000	10,179500
2196,000000	10,160600
2195,000000	10,166100
2194,000000	10,181000
2193,000000	10,170800
2192,000000	10,155200
2191,000000	10,161400
2190,000000	10,165900
2189,000000	10,165000
2188,000000	10,144200
2187,000000	10,142000
2186,000000	10,139900
2185,000000	10,117600
2184,000000	10,132800
2183,000000	10,110000
2182,000000	10,116500
2181,000000	10,089700
2180,000000	10,090800
2179,000000	10,102600
2178,000000	10,091100
2177,000000	10,104400
2176,000000	10,109600
2175,000000	10,112700
2174,000000	10,110100
2173,000000	10,126300
2172,000000	10,162700
2171,000000	10,158300
2170,000000	10,160400
2169,000000	10,179400
2168,000000	10,198600
2167,000000	10,219100
2166,000000	10,231300
2165,000000	10,269200
2164,000000	10,290400
2163,000000	10,300800
2162,000000	10,314600
2161,000000	10,354400
2160,000000	10,386500
2159,000000	10,396900
2158,000000	10,430600
2157,000000	10,467700
2156,000000	10,490000
2155,000000	10,518500
2154,000000	10,559500
2153,000000	10,584300
2152,000000	10,615400
2151,000000	10,647500
2150,000000	10,694200
2149,000000	10,704300
2148,000000	10,732200
2147,000000	10,774900
2146,000000	10,805400
2145,000000	10,819600
2144,000000	10,852800
2143,000000	10,870600
2142,000000	10,909900
2141,000000	10,936700
2140,000000	10,945100
2139,000000	10,970100
2138,000000	10,971800
2137,000000	10,989400
2136,000000	11,016100
2135,000000	11,013500
2134,000000	11,027700
2133,000000	11,041400
2132,000000	11,033800
2131,000000	11,039100
2130,000000	11,047900
2129,000000	11,052300
2128,000000	11,035300
2127,000000	11,019300
2126,000000	11,023400
2125,000000	11,010500
2124,000000	10,990000
2123,000000	10,978200
2122,000000	10,968200
2121,000000	10,945500
2120,000000	10,932400
2119,000000	10,915400
2118,000000	10,890000
2117,000000	10,864700
2116,000000	10,826100
2115,000000	10,806200
2114,000000	10,783700
2113,000000	10,758900
2112,000000	10,726900
2111,000000	10,700300
2110,000000	10,687700
2109,000000	10,655900
2108,000000	10,631600
2107,000000	10,609200
2106,000000	10,588400
2105,000000	10,558800
2104,000000	10,524400
2103,000000	10,509700
2102,000000	10,488000
2101,000000	10,464800
2100,000000	10,425900
2099,000000	10,395100
2098,000000	10,382600
2097,000000	10,371100
2096,000000	10,353400
2095,000000	10,338200
2094,000000	10,332500
2093,000000	10,310100
2092,000000	10,294000
2091,000000	10,284800
2090,000000	10,263700
2089,000000	10,245400
2088,000000	10,237700
2087,000000	10,229700
2086,000000	10,210800
2085,000000	10,207000
2084,000000	10,205700
2083,000000	10,205700
2082,000000	10,188300
2081,000000	10,160900
2080,000000	10,130500
2079,000000	10,112600
2078,000000	10,109800
2077,000000	10,095300
2076,000000	10,063100
2075,000000	10,046200
2074,000000	10,038000
2073,000000	10,019400
2072,000000	10,007800
2071,000000	9,991000
2070,000000	9,963500
2069,000000	9,950300
2068,000000	9,943000
2067,000000	9,936200
2066,000000	9,913800
2065,000000	9,895600
2064,000000	9,879600
2063,000000	9,885700
2062,000000	9,889200
2061,000000	9,882000
2060,000000	9,874200
2059,000000	9,880100
2058,000000	9,883500
2057,000000	9,899500
2056,000000	9,945200
2055,000000	9,979800
2054,000000	10,014500
2053,000000	10,055700
2052,000000	10,094800
2051,000000	10,150900
2050,000000	10,238900
2049,000000	10,320700
2048,000000	10,413900
2047,000000	10,509400
2046,000000	10,605300
2045,000000	10,702600
2044,000000	10,816300
2043,000000	10,933700
2042,000000	11,047800
2041,000000	11,168500
2040,000000	11,275900
2039,000000	11,386800
2038,000000	11,517900
2037,000000	11,620600
2036,000000	11,713400
2035,000000	11,817600
2034,000000	11,925900
2033,000000	12,013900
2032,000000	12,111100
2031,000000	12,215000
2030,000000	12,289500
2029,000000	12,373000
2028,000000	12,470200
2027,000000	12,546200
2026,000000	12,619200
2025,000000	12,690900
2024,000000	12,775600
2023,000000	12,859300
2022,000000	12,925000
2021,000000	13,003100
2020,000000	13,065400
2019,000000	13,146700
2018,000000	13,209200
2017,000000	13,258500
2016,000000	13,337100
2015,000000	13,387600
2014,000000	13,432800
2013,000000	13,463800
2012,000000	13,504700
2011,000000	13,558600
2010,000000	13,579100
2009,000000	13,644500
2008,000000	13,663800
2007,000000	13,679600
2006,000000	13,705200
2005,000000	13,729300
2004,000000	13,735500
2003,000000	13,732900
2002,000000	13,737800
2001,000000	13,754100
2000,000000	13,747100
1999,000000	13,736300
1998,000000	13,724900
1997,000000	13,710900
1996,000000	13,695800
1995,000000	13,672700
1994,000000	13,652500
1993,000000	13,615500
1992,000000	13,608000
1991,000000	13,570200
1990,000000	13,555500
1989,000000	13,498300
1988,000000	13,465500
1987,000000	13,426300
1986,000000	13,381100
1985,000000	13,324700
1984,000000	13,287000
1983,000000	13,249900
1982,000000	13,186600
1981,000000	13,152600
1980,000000	13,096400
1979,000000	13,049500
1978,000000	13,001600
1977,000000	12,942600
1976,000000	12,909700
1975,000000	12,838700
1974,000000	12,800300
1973,000000	12,763300
1972,000000	12,707600
1971,000000	12,653500
1970,000000	12,628900
1969,000000	12,560700
1968,000000	12,544800
1967,000000	12,474200
1966,000000	12,426600
1965,000000	12,396300
1964,000000	12,357300
1963,000000	12,310100
1962,000000	12,236300
1961,000000	12,216500
1960,000000	12,158900
1959,000000	12,127900
1958,000000	12,079300
1957,000000	12,040500
1956,000000	11,986600
1955,000000	11,950700
1954,000000	11,886700
1953,000000	11,840900
1952,000000	11,816900
1951,000000	11,771400
1950,000000	11,730500
1949,000000	11,714200
1948,000000	11,687700
1947,000000	11,658700
1946,000000	11,622100
1945,000000	11,590700
1944,000000	11,579300
1943,000000	11,573900
1942,000000	11,575100
1941,000000	11,565200
1940,000000	11,580600
1939,000000	11,583600
1938,000000	11,579300
1937,000000	11,608700
1936,000000	11,629700
1935,000000	11,651600
1934,000000	11,700400
1933,000000	11,728300
1932,000000	11,798300
1931,000000	11,869800
1930,000000	11,919500
1929,000000	11,996600
1928,000000	12,065600
1927,000000	12,156700
1926,000000	12,225800
1925,000000	12,341900
1924,000000	12,436000
1923,000000	12,542400
1922,000000	12,668300
1921,000000	12,807200
1920,000000	12,935100
1919,000000	13,078100
1918,000000	13,195200
1917,000000	13,313400
1916,000000	13,462200
1915,000000	13,641300
1914,000000	13,835400
1913,000000	14,016800
1912,000000	14,183800
1911,000000	14,353100
1910,000000	14,493000
1909,000000	14,668300
1908,000000	14,850000
1907,000000	15,067200
1906,000000	15,297800
1905,000000	15,521900
1904,000000	15,702800
1903,000000	15,903400
1902,000000	16,107200
1901,000000	16,313200
1900,000000	16,562100
1899,000000	16,788400
1898,000000	17,001400
1897,000000	17,176200
1896,000000	17,344600
1895,000000	17,550000
1894,000000	17,751300
1893,000000	17,963200
1892,000000	18,200400
1891,000000	18,411600
1890,000000	18,590300
1889,000000	18,800800
1888,000000	19,031600
1887,000000	19,276300
1886,000000	19,560800
1885,000000	19,883300
1884,000000	20,240000
1883,000000	20,610100
1882,000000	20,995700
1881,000000	21,358200
1880,000000	21,704100
1879,000000	22,062900
1878,000000	22,409900
1877,000000	22,729900
1876,000000	23,007500
1875,000000	23,284500
1874,000000	23,558400
1873,000000	23,786000
1872,000000	23,986300
1871,000000	24,166600
1870,000000	24,325800
1869,000000	24,439300
1868,000000	24,498400
1867,000000	24,528800
1866,000000	24,548800
1865,000000	24,570300
1864,000000	24,579100
1863,000000	24,597200
1862,000000	24,614000
1861,000000	24,624300
1860,000000	24,633400
1859,000000	24,616300
1858,000000	24,577000
1857,000000	24,511700
1856,000000	24,441200
1855,000000	24,394300
1854,000000	24,324000
1853,000000	24,230100
1852,000000	24,149500
1851,000000	24,074400
1850,000000	24,013600
1849,000000	23,958700
1848,000000	23,888100
1847,000000	23,785100
1846,000000	23,682900
1845,000000	23,614200
1844,000000	23,552500
1843,000000	23,562800
1842,000000	23,545500
1841,000000	23,482100
1840,000000	23,440100
1839,000000	23,389700
1838,000000	23,335200
1837,000000	23,252800
1836,000000	23,175900
1835,000000	23,095800
1834,000000	22,989400
1833,000000	22,901800
1832,000000	22,828500
1831,000000	22,739800
1830,000000	22,660300
1829,000000	22,578300
1828,000000	22,492400
1827,000000	22,424200
1826,000000	22,351200
1825,000000	22,284100
1824,000000	22,241200
1823,000000	22,245900
1822,000000	22,251400
1821,000000	22,227300
1820,000000	22,190900
1819,000000	22,152800
1818,000000	22,135200
1817,000000	22,135300
1816,000000	22,129000
1815,000000	22,120100
1814,000000	22,118900
1813,000000	22,101800
1812,000000	22,084600
1811,000000	22,053600
1810,000000	22,006800
1809,000000	21,960000
1808,000000	21,915000
1807,000000	21,875100
1806,000000	21,814100
1805,000000	21,743400
1804,000000	21,692400
1803,000000	21,653000
1802,000000	21,613900
1801,000000	21,556100
1800,000000	21,488300
1799,000000	21,443500
1798,000000	21,395600
1797,000000	21,344100
1796,000000	21,294900
1795,000000	21,234700
1794,000000	21,188000
1793,000000	21,127400
1792,000000	21,067800
1791,000000	20,994400
1790,000000	20,926600
1789,000000	20,859800
1788,000000	20,796400
1787,000000	20,722200
1786,000000	20,622100
1785,000000	20,526300
1784,000000	20,459300
1783,000000	20,371700
1782,000000	20,268500
1781,000000	20,177000
1780,000000	20,078400
1779,000000	19,973700
1778,000000	19,884400
1777,000000	19,763200
1776,000000	19,632400
1775,000000	19,484800
1774,000000	19,350900
1773,000000	19,211500
1772,000000	19,048100
1771,000000	18,921400
1770,000000	18,774200
1769,000000	18,652000
1768,000000	18,548900
1767,000000	18,443600
1766,000000	18,337700
1765,000000	18,283100
1764,000000	18,270800
1763,000000	18,261900
1762,000000	18,281400
1761,000000	18,327000
1760,000000	18,397300
1759,000000	18,464200
1758,000000	18,522100
1757,000000	18,585100
1756,000000	18,607900
1755,000000	18,639000
1754,000000	18,623600
1753,000000	18,627000
1752,000000	18,575800
1751,000000	18,521000
1750,000000	18,449500
1749,000000	18,377900
1748,000000	18,270500
1747,000000	18,152400
1746,000000	18,027300
1745,000000	17,858500
1744,000000	17,667300
1743,000000	17,451600
1742,000000	17,233800
1741,000000	16,990900
1740,000000	16,755800
1739,000000	16,539300
1738,000000	16,350700
1737,000000	16,177600
1736,000000	16,097500
1735,000000	16,038900
1734,000000	16,039800
1733,000000	16,051100
1732,000000	16,115000
1731,000000	16,220600
1730,000000	16,325700
1729,000000	16,434400
1728,000000	16,544300
1727,000000	16,634700
1726,000000	16,707900
1725,000000	16,743700
1724,000000	16,795100
1723,000000	16,814100
1722,000000	16,847300
1721,000000	16,842600
1720,000000	16,863300
1719,000000	16,892800
1718,000000	16,961600
1717,000000	17,005800
1716,000000	17,057000
1715,000000	17,111400
1714,000000	17,195400
1713,000000	17,237300
1712,000000	17,266500
1711,000000	17,310100
1710,000000	17,314000
1709,000000	17,314200
1708,000000	17,311500
1707,000000	17,285300
1706,000000	17,252800
1705,000000	17,201200
1704,000000	17,165300
1703,000000	17,059700
1702,000000	16,949300
1701,000000	16,839900
1700,000000	16,683900
1699,000000	16,556400
1698,000000	16,442300
1697,000000	16,359000
1696,000000	16,344400
1695,000000	16,348800
1694,000000	16,422100
1693,000000	16,580600
1692,000000	16,722100
1691,000000	16,859100
1690,000000	16,988900
1689,000000	17,066000
1688,000000	17,073900
1687,000000	17,058600
1686,000000	17,067800
1685,000000	17,123100
1684,000000	17,264400
1683,000000	17,531000
1682,000000	17,897200
1681,000000	18,379700
1680,000000	18,960000
1679,000000	19,451800
1678,000000	19,980200
1677,000000	20,454500
1676,000000	20,860400
1675,000000	21,305000
1674,000000	21,630900
1673,000000	21,899200
1672,000000	22,140800
1671,000000	22,332000
1670,000000	22,501700
1669,000000	22,652500
1668,000000	22,783300
1667,000000	22,921400
1666,000000	23,004400
1665,000000	23,078100
1664,000000	23,153900
1663,000000	23,206900
1662,000000	23,260100
1661,000000	23,295300
1660,000000	23,325800
1659,000000	23,356800
1658,000000	23,371700
1657,000000	23,367700
1656,000000	23,377700
1655,000000	23,369500
1654,000000	23,341600
1653,000000	23,337500
1652,000000	23,310000
1651,000000	23,262300
1650,000000	23,248800
1649,000000	23,195100
1648,000000	23,154900
1647,000000	23,101000
1646,000000	23,037400
1645,000000	22,981300
1644,000000	22,931900
1643,000000	22,886000
1642,000000	22,806300
1641,000000	22,739200
1640,000000	22,676700
1639,000000	22,605400
1638,000000	22,530700
1637,000000	22,459300
1636,000000	22,395000
1635,000000	22,324200
1634,000000	22,239500
1633,000000	22,170900
1632,000000	22,091600
1631,000000	22,010200
1630,000000	21,931600
1629,000000	21,851200
1628,000000	21,781900
1627,000000	21,697700
1626,000000	21,618000
1625,000000	21,522000
1624,000000	21,454700
1623,000000	21,374200
1622,000000	21,291900
1621,000000	21,217200
1620,000000	21,134700
1619,000000	21,061900
1618,000000	20,993600
1617,000000	20,939100
1616,000000	20,865700
1615,000000	20,777400
1614,000000	20,725600
1613,000000	20,665800
1612,000000	20,608200
1611,000000	20,548900
1610,000000	20,489700
1609,000000	20,433800
1608,000000	20,368200
1607,000000	20,315700
1606,000000	20,260600
1605,000000	20,200000
1604,000000	20,135100
1603,000000	20,071400
1602,000000	20,015400
1601,000000	19,983500
1600,000000	19,925100
1599,000000	19,870700
1598,000000	19,827800
1597,000000	19,784200
1596,000000	19,738200
1595,000000	19,693500
1594,000000	19,658400
1593,000000	19,627600
1592,000000	19,612400
1591,000000	19,591200
1590,000000	19,556200
1589,000000	19,537700
1588,000000	19,519500
1587,000000	19,489200
1586,000000	19,470400
1585,000000	19,470900
1584,000000	19,456300
1583,000000	19,438700
1582,000000	19,435100
1581,000000	19,426600
1580,000000	19,423800
1579,000000	19,429000
1578,000000	19,440700
1577,000000	19,450800
1576,000000	19,460500
1575,000000	19,473000
1574,000000	19,483200
1573,000000	19,519700
1572,000000	19,553500
1571,000000	19,570000
1570,000000	19,590100
1569,000000	19,621200
1568,000000	19,659200
1567,000000	19,684800
1566,000000	19,727300
1565,000000	19,759600
1564,000000	19,772300
1563,000000	19,794300
1562,000000	19,830000
1561,000000	19,864100
1560,000000	19,882900
1559,000000	19,907400
1558,000000	19,923600
1557,000000	19,924000
1556,000000	19,923400
1555,000000	19,925100
1554,000000	19,934300
1553,000000	19,939400
1552,000000	19,944800
1551,000000	19,950200
1550,000000	19,944600
1549,000000	19,937600
1548,000000	19,936500
1547,000000	19,937300
1546,000000	19,927500
1545,000000	19,919300
1544,000000	19,916000
1543,000000	19,922200
1542,000000	19,920500
1541,000000	19,918500
1540,000000	19,920300
1539,000000	19,932900
1538,000000	19,941300
1537,000000	19,937300
1536,000000	19,924500
1535,000000	19,926300
1534,000000	19,937000
1533,000000	19,931900
1532,000000	19,923500
1531,000000	19,921500
1530,000000	19,908300
1529,000000	19,905300
1528,000000	19,903500
1527,000000	19,882200
1526,000000	19,863900
1525,000000	19,849500
1524,000000	19,841500
1523,000000	19,846100
1522,000000	19,829400
1521,000000	19,806200
1520,000000	19,803800
1519,000000	19,778400
1518,000000	19,767000
1517,000000	19,770700
1516,000000	19,752800
1515,000000	19,743300
1514,000000	19,739200
1513,000000	19,704800
1512,000000	19,714300
1511,000000	19,696600
1510,000000	19,670700
1509,000000	19,649000
1508,000000	19,651100
1507,000000	19,630400
1506,000000	19,615300
1505,000000	19,603400
1504,000000	19,612500
1503,000000	19,603000
1502,000000	19,596600
1501,000000	19,599100
1500,000000	19,591200
1499,000000	19,589800
1498,000000	19,602600
1497,000000	19,616400
1496,000000	19,632600
1495,000000	19,657800
1494,000000	19,667000
1493,000000	19,689600
1492,000000	19,712700
1491,000000	19,726000
1490,000000	19,748600
1489,000000	19,770400
1488,000000	19,803200
1487,000000	19,833200
1486,000000	19,854500
1485,000000	19,882800
1484,000000	19,914500
1483,000000	19,966300
1482,000000	20,003100
1481,000000	20,041000
1480,000000	20,092400
1479,000000	20,145600
1478,000000	20,179700
1477,000000	20,225000
1476,000000	20,284800
1475,000000	20,327000
1474,000000	20,375800
1473,000000	20,452200
1472,000000	20,502000
1471,000000	20,547100
1470,000000	20,604300
1469,000000	20,634000
1468,000000	20,708700
1467,000000	20,750500
1466,000000	20,800900
1465,000000	20,852100
1464,000000	20,935400
1463,000000	21,003000
1462,000000	21,083300
1461,000000	21,177000
1460,000000	21,235100
1459,000000	21,345100
1458,000000	21,437100
1457,000000	21,533700
1456,000000	21,621700
1455,000000	21,726400
1454,000000	21,823600
1453,000000	21,938000
1452,000000	22,070300
1451,000000	22,172600
1450,000000	22,294700
1449,000000	22,381300
1448,000000	22,533100
1447,000000	22,674300
1446,000000	22,808000
1445,000000	22,930500
1444,000000	23,035600
1443,000000	23,182800
1442,000000	23,300100
1441,000000	23,462500
1440,000000	23,583600
1439,000000	23,722900
1438,000000	23,868800
1437,000000	23,970800
1436,000000	24,083800
1435,000000	24,218500
1434,000000	24,343400
1433,000000	24,514600
1432,000000	24,634600
1431,000000	24,774500
1430,000000	24,927600
1429,000000	25,119400
1428,000000	25,323600
1427,000000	25,492900
1426,000000	25,713400
1425,000000	25,952000
1424,000000	26,149700
1423,000000	26,356000
1422,000000	26,590100
1421,000000	26,840000
1420,000000	27,083500
1419,000000	27,287900
1418,000000	27,475900
1417,000000	27,653000
1416,000000	27,872800
1415,000000	28,140300
1414,000000	28,289200
1413,000000	28,461400
1412,000000	28,649600
1411,000000	28,889200
1410,000000	29,231100
1409,000000	29,496700
1408,000000	29,839000
1407,000000	30,172000
1406,000000	30,568300
1405,000000	30,912500
1404,000000	31,263000
1403,000000	31,618200
1402,000000	32,030900
1401,000000	32,393900
1400,000000	32,691600
1399,000000	32,851900
1398,000000	33,021000
1397,000000	33,250700
1396,000000	33,444200
1395,000000	33,529200
1394,000000	33,614800
1393,000000	33,734400
1392,000000	33,857800
1391,000000	33,966800
1390,000000	34,110700
1389,000000	34,356300
1388,000000	34,584100
1387,000000	34,861100
1386,000000	35,171400
1385,000000	35,573000
1384,000000	35,919500
1383,000000	36,263800
1382,000000	36,501700
1381,000000	36,613500
1380,000000	36,631700
1379,000000	36,661000
1378,000000	36,678700
1377,000000	36,771400
1376,000000	36,931400
1375,000000	37,173100
1374,000000	37,497600
1373,000000	37,883600
1372,000000	38,298100
1371,000000	38,718900
1370,000000	39,072200
1369,000000	39,412500
1368,000000	39,721500
1367,000000	39,966900
1366,000000	40,200600
1365,000000	40,409800
1364,000000	40,569600
1363,000000	40,764400
1362,000000	40,908000
1361,000000	40,966200
1360,000000	40,947700
1359,000000	41,054800
1358,000000	41,215900
1357,000000	41,495400
1356,000000	41,964200
1355,000000	42,592900
1354,000000	43,260000
1353,000000	43,936500
1352,000000	44,713700
1351,000000	45,411600
1350,000000	46,039400
1349,000000	46,631600
1348,000000	47,191700
1347,000000	47,647500
1346,000000	48,079700
1345,000000	48,546300
1344,000000	48,954800
1343,000000	49,334000
1342,000000	49,719200
1341,000000	50,085000
1340,000000	50,431400
1339,000000	50,761000
1338,000000	51,081300
1337,000000	51,401800
1336,000000	51,681900
1335,000000	51,956500
1334,000000	52,220000
1333,000000	52,464900
1332,000000	52,707300
1331,000000	52,931000
1330,000000	53,142300
1329,000000	53,341200
1328,000000	53,521900
1327,000000	53,699000
1326,000000	53,862700
1325,000000	54,017300
1324,000000	54,172000
1323,000000	54,309900
1322,000000	54,444300
1321,000000	54,583800
1320,000000	54,702800
1319,000000	54,795800
1318,000000	54,907000
1317,000000	55,015300
1316,000000	55,117200
1315,000000	55,203100
1314,000000	55,285700
1313,000000	55,360600
1312,000000	55,428600
1311,000000	55,494800
1310,000000	55,549800
1309,000000	55,602000
1308,000000	55,644300
1307,000000	55,669800
1306,000000	55,698500
1305,000000	55,699500
1304,000000	55,699300
1303,000000	55,710800
1302,000000	55,699500
1301,000000	55,677100
1300,000000	55,665500
1299,000000	55,639500
1298,000000	55,601800
1297,000000	55,579900
1296,000000	55,554100
1295,000000	55,513500
1294,000000	55,480900
1293,000000	55,438600
1292,000000	55,379000
1291,000000	55,315400
1290,000000	55,252500
1289,000000	55,170900
1288,000000	55,078900
1287,000000	54,983200
1286,000000	54,872900
1285,000000	54,762000
1284,000000	54,666500
1283,000000	54,562300
1282,000000	54,447500
1281,000000	54,349000
1280,000000	54,233200
1279,000000	54,117900
1278,000000	54,020200
1277,000000	53,921100
1276,000000	53,825200
1275,000000	53,740200
1274,000000	53,658700
1273,000000	53,584300
1272,000000	53,504300
1271,000000	53,425100
1270,000000	53,339800
1269,000000	53,253700
1268,000000	53,176100
1267,000000	53,099500
1266,000000	53,015900
1265,000000	52,939600
1264,000000	52,868100
1263,000000	52,801300
1262,000000	52,721200
1261,000000	52,648000
1260,000000	52,584500
1259,000000	52,518400
1258,000000	52,442600
1257,000000	52,348400
1256,000000	52,279900
1255,000000	52,203600
1254,000000	52,123000
1253,000000	52,025100
1252,000000	51,921600
1251,000000	51,828900
1250,000000	51,702600
1249,000000	51,582400
1248,000000	51,454900
1247,000000	51,302000
1246,000000	51,160300
1245,000000	50,992100
1244,000000	50,805100
1243,000000	50,593400
1242,000000	50,405200
1241,000000	50,206200
1240,000000	49,993000
1239,000000	49,765400
1238,000000	49,540500
1237,000000	49,311100
1236,000000	49,064200
1235,000000	48,841800
1234,000000	48,601700
1233,000000	48,361000
1232,000000	48,119700
1231,000000	47,865500
1230,000000	47,603200
1229,000000	47,362700
1228,000000	47,128900
1227,000000	46,883700
1226,000000	46,647300
1225,000000	46,421400
1224,000000	46,187100
1223,000000	45,955800
1222,000000	45,745100
1221,000000	45,547600
1220,000000	45,348800
1219,000000	45,169300
1218,000000	44,988300
1217,000000	44,827900
1216,000000	44,675300
1215,000000	44,545800
1214,000000	44,427100
1213,000000	44,286600
1212,000000	44,159700
1211,000000	44,044800
1210,000000	43,948400
1209,000000	43,875700
1208,000000	43,796700
1207,000000	43,751100
1206,000000	43,719500
1205,000000	43,706600
1204,000000	43,700100
1203,000000	43,702700
1202,000000	43,698200
1201,000000	43,647000
1200,000000	43,609000
1199,000000	43,500400
1198,000000	43,347800
1197,000000	43,143500
1196,000000	42,859100
1195,000000	42,501500
1194,000000	42,048200
1193,000000	41,504300
1192,000000	40,927900
1191,000000	40,337200
1190,000000	39,820300
1189,000000	39,409400
1188,000000	39,163500
1187,000000	39,055200
1186,000000	39,113000
1185,000000	39,331800
1184,000000	39,708300
1183,000000	40,224700
1182,000000	40,825400
1181,000000	41,481100
1180,000000	42,116200
1179,000000	42,654000
1178,000000	43,143800
1177,000000	43,563600
1176,000000	43,943700
1175,000000	44,328200
1174,000000	44,714000
1173,000000	45,131400
1172,000000	45,552000
1171,000000	46,006500
1170,000000	46,445300
1169,000000	46,920300
1168,000000	47,366300
1167,000000	47,903000
1166,000000	48,355400
1165,000000	48,841900
1164,000000	49,332300
1163,000000	49,840200
1162,000000	50,348200
1161,000000	50,818400
1160,000000	51,283400
1159,000000	51,747100
1158,000000	52,146300
1157,000000	52,502700
1156,000000	52,818500
1155,000000	53,000700
1154,000000	53,113300
1153,000000	53,169900
1152,000000	53,138500
1151,000000	53,107700
1150,000000	53,063500
1149,000000	53,026400
1148,000000	53,036000
1147,000000	53,114100
1146,000000	53,343700
1145,000000	53,672700
1144,000000	54,065700
1143,000000	54,527300
1142,000000	54,986200
1141,000000	55,484200
1140,000000	55,974300
1139,000000	56,493800
1138,000000	57,039100
1137,000000	57,599200
1136,000000	58,139600
1135,000000	58,670500
1134,000000	59,087200
1133,000000	59,495300
1132,000000	59,896300
1131,000000	60,252700
1130,000000	60,561300
1129,000000	60,824400
1128,000000	61,010600
1127,000000	61,172100
1126,000000	61,312100
1125,000000	61,422500
1124,000000	61,531400
1123,000000	61,623500
1122,000000	61,705100
1121,000000	61,757000
1120,000000	61,802600
1119,000000	61,845200
1118,000000	61,860900
1117,000000	61,859300
1116,000000	61,843900
1115,000000	61,822000
1114,000000	61,810200
1113,000000	61,784900
1112,000000	61,770200
1111,000000	61,723100
1110,000000	61,703600
1109,000000	61,687100
1108,000000	61,655400
1107,000000	61,618200
1106,000000	61,597400
1105,000000	61,556700
1104,000000	61,523200
1103,000000	61,492500
1102,000000	61,433100
1101,000000	61,383100
1100,000000	61,326800
1099,000000	61,274900
1098,000000	61,224300
1097,000000	61,170900
1096,000000	61,102400
1095,000000	61,035600
1094,000000	60,969200
1093,000000	60,900400
1092,000000	60,830700
1091,000000	60,774700
1090,000000	60,715900
1089,000000	60,650300
1088,000000	60,576900
1087,000000	60,497400
1086,000000	60,416300
1085,000000	60,348500
1084,000000	60,290000
1083,000000	60,226200
1082,000000	60,156300
1081,000000	60,101900
1080,000000	60,065700
1079,000000	60,011400
1078,000000	59,980300
1077,000000	59,932700
1076,000000	59,875600
1075,000000	59,840200
1074,000000	59,797400
1073,000000	59,745000
1072,000000	59,708600
1071,000000	59,675600
1070,000000	59,630200
1069,000000	59,584200
1068,000000	59,538200
1067,000000	59,484500
1066,000000	59,445700
1065,000000	59,412700
1064,000000	59,362500
1063,000000	59,300400
1062,000000	59,249900
1061,000000	59,194600
1060,000000	59,136900
1059,000000	59,064800
1058,000000	58,977700
1057,000000	58,911800
1056,000000	58,837800
1055,000000	58,768400
1054,000000	58,696700
1053,000000	58,632600
1052,000000	58,558800
1051,000000	58,486900
1050,000000	58,408100
1049,000000	58,338400
1048,000000	58,284000
1047,000000	58,215200
1046,000000	58,158500
1045,000000	58,086200
1044,000000	58,018100
1043,000000	57,965200
1042,000000	57,909500
1041,000000	57,855400
1040,000000	57,799900
1039,000000	57,730900
1038,000000	57,654500
1037,000000	57,590400
1036,000000	57,531300
1035,000000	57,461000
1034,000000	57,388000
1033,000000	57,323800
1032,000000	57,258600
1031,000000	57,185400
1030,000000	57,125900
1029,000000	57,062300
1028,000000	56,990200
1027,000000	56,911900
1026,000000	56,831000
1025,000000	56,753600
1024,000000	56,687900
1023,000000	56,625200
1022,000000	56,562600
1021,000000	56,513600
1020,000000	56,464500
1019,000000	56,417500
1018,000000	56,388800
1017,000000	56,371400
1016,000000	56,343300
1015,000000	56,340000
1014,000000	56,340700
1013,000000	56,355900
1012,000000	56,397100
1011,000000	56,430100
1010,000000	56,481200
1009,000000	56,537300
1008,000000	56,590000
1007,000000	56,642500
1006,000000	56,704000
1005,000000	56,761100
1004,000000	56,811800
1003,000000	56,848100
1002,000000	56,881500
1001,000000	56,932700
1000,000000	56,985900
999,000000	57,039000
998,000000	57,078600
997,000000	57,124800
996,000000	57,179100
995,000000	57,231500
994,000000	57,282700
993,000000	57,346200
992,000000	57,394300
991,000000	57,456900
990,000000	57,521500
989,000000	57,583200
988,000000	57,660100
987,000000	57,718800
986,000000	57,792700
985,000000	57,863200
984,000000	57,921200
983,000000	57,981800
982,000000	58,051700
981,000000	58,116800
980,000000	58,178700
979,000000	58,222700
978,000000	58,278800
977,000000	58,338800
976,000000	58,404700
975,000000	58,453500
974,000000	58,513300
973,000000	58,568400
972,000000	58,632300
971,000000	58,671700
970,000000	58,721500
969,000000	58,756700
968,000000	58,823300
967,000000	58,865600
966,000000	58,905200
965,000000	58,978000
964,000000	59,052400
963,000000	59,131100
962,000000	59,217900
961,000000	59,314100
960,000000	59,410900
959,000000	59,524000
958,000000	59,624900
957,000000	59,728200
956,000000	59,849200
955,000000	59,957400
954,000000	60,048300
953,000000	60,163300
952,000000	60,258700
951,000000	60,370500
950,000000	60,502900
949,000000	60,601800
948,000000	60,721900
947,000000	60,833100
946,000000	60,951500
945,000000	61,086600
944,000000	61,222200
943,000000	61,357900
942,000000	61,496400
941,000000	61,635100
940,000000	61,759900
939,000000	61,905200
938,000000	62,055600
937,000000	62,236500
936,000000	62,360800
935,000000	62,510100
934,000000	62,669100
933,000000	62,799700
932,000000	62,951000
931,000000	63,078100
930,000000	63,179700
929,000000	63,279300
928,000000	63,397900
927,000000	63,513200
926,000000	63,648400
925,000000	63,738900
924,000000	63,806300
923,000000	63,909000
922,000000	64,023400
921,000000	64,125700
920,000000	64,232000
919,000000	64,312300
918,000000	64,382900
917,000000	64,488200
916,000000	64,544800
915,000000	64,636300
914,000000	64,705300
913,000000	64,797200
912,000000	64,887900
911,000000	64,998100
910,000000	65,110200
909,000000	65,223100
908,000000	65,427700
907,000000	65,566100
906,000000	65,727300
905,000000	65,910200
904,000000	66,119400
903,000000	66,316200
902,000000	66,537700
901,000000	66,755100
900,000000	66,976500
899,000000	67,193700
898,000000	67,423100
897,000000	67,626500
896,000000	67,844700
895,000000	68,048200
894,000000	68,249800
893,000000	68,423300
892,000000	68,620800
891,000000	68,820000
890,000000	68,976200
889,000000	69,162200
888,000000	69,316100
887,000000	69,440200
886,000000	69,585800
885,000000	69,743300
884,000000	69,868300
883,000000	69,958200
882,000000	70,072700
881,000000	70,221100
880,000000	70,317200
879,000000	70,397300
878,000000	70,462700
877,000000	70,534700
876,000000	70,652800
875,000000	70,752400
874,000000	70,841100
873,000000	70,886800
872,000000	70,958300
871,000000	71,002200
870,000000	71,079600
869,000000	71,095900
868,000000	71,169600
867,000000	71,210300
866,000000	71,258900
865,000000	71,213300
864,000000	71,171600
863,000000	71,163500
862,000000	71,130100
861,000000	71,063000
860,000000	70,993300
859,000000	71,035100
858,000000	71,693600
857,000000	74,564400
856,000000	74,057300
855,000000	74,109700
854,000000	74,264000
853,000000	74,721700
852,000000	74,922400
851,000000	75,220700
850,000000	75,450700
849,000000	75,697700
848,000000	75,881500
847,000000	75,897800
846,000000	76,314700
845,000000	76,487400
844,000000	76,537700
843,000000	76,948700
842,000000	77,077600
841,000000	77,187800
840,000000	77,280400
839,000000	77,299000
838,000000	77,595700
837,000000	77,844100
836,000000	77,889800
835,000000	78,168200
834,000000	78,092400
833,000000	78,137900
832,000000	78,166000
831,000000	78,254200
830,000000	78,464000
829,000000	78,449500
828,000000	78,280600
827,000000	78,256100
826,000000	78,395700
825,000000	78,510300
824,000000	78,543900
823,000000	78,480500
822,000000	78,423000
821,000000	78,521400
820,000000	78,483900
819,000000	78,495400
818,000000	78,406200
817,000000	78,394900
816,000000	78,519600
815,000000	78,736000
814,000000	78,776600
813,000000	78,754600
812,000000	78,855900
811,000000	78,997200
810,000000	78,984400
809,000000	78,916200
808,000000	79,030400
807,000000	79,091400
806,000000	79,260700
805,000000	79,460900
804,000000	79,656400
803,000000	79,666000
802,000000	79,805300
801,000000	80,115200
800,000000	80,425000
799,000000	80,669700
798,000000	80,864100
797,000000	81,101900
796,000000	81,397100
795,000000	81,580100
794,000000	81,891600
793,000000	82,235800
792,000000	82,450100
791,000000	82,750100
790,000000	83,045100
789,000000	83,345700
788,000000	83,572000
787,000000	83,857900
786,000000	84,166100
785,000000	84,365700
784,000000	84,498800
783,000000	84,806600
782,000000	85,007000
781,000000	85,117700
780,000000	85,167100
779,000000	85,383500
778,000000	85,541500
777,000000	85,559100
776,000000	85,606600
775,000000	85,650400
774,000000	85,599900
773,000000	85,601500
772,000000	85,595500
771,000000	85,589100
770,000000	85,619500
769,000000	85,591100
768,000000	85,624700
767,000000	85,678800
766,000000	85,849600
765,000000	85,927400
764,000000	85,930200
763,000000	86,076100
762,000000	86,244700
761,000000	86,375100
760,000000	86,510400
759,000000	86,744300
758,000000	86,992300
757,000000	87,175400
756,000000	87,422400
755,000000	87,591600
754,000000	87,714100
753,000000	87,921500
752,000000	88,112700
751,000000	88,316700
750,000000	88,524900
749,000000	88,730900
748,000000	88,853100
747,000000	88,998900
746,000000	89,153200
745,000000	89,214300
744,000000	89,283200
743,000000	89,277700
742,000000	89,356300
741,000000	89,416900
740,000000	89,334200
739,000000	89,334300
738,000000	89,298400
737,000000	89,291300
736,000000	89,350300
735,000000	89,368400
734,000000	89,349500
733,000000	89,323000
732,000000	89,307900
731,000000	89,262100
730,000000	89,281300
729,000000	89,320400
728,000000	89,241400
727,000000	89,109300
726,000000	89,074100
725,000000	89,021800
724,000000	88,920600
723,000000	88,793900
722,000000	88,612300
721,000000	88,484400
720,000000	88,441700
719,000000	88,260900
718,000000	88,048700
717,000000	87,828600
716,000000	87,575400
715,000000	87,367500
714,000000	87,087700
713,000000	86,790000
712,000000	86,510700
711,000000	86,226000
710,000000	85,932300
709,000000	85,559200
708,000000	85,234300
707,000000	84,992300
706,000000	84,679400
705,000000	84,381300
704,000000	84,118000
703,000000	83,808400
702,000000	83,607900
701,000000	83,436200
700,000000	83,265200
699,000000	83,115600
698,000000	82,928100
697,000000	82,758400
696,000000	82,613200
695,000000	82,462500
694,000000	82,333200
693,000000	82,235300
692,000000	82,103900
691,000000	81,907400
690,000000	81,739100
689,000000	81,668200
688,000000	81,615500
687,000000	81,553100
686,000000	81,446400
685,000000	81,301500
684,000000	81,293800
683,000000	81,137400
682,000000	81,054000
681,000000	81,001700
680,000000	80,967300
679,000000	80,831700
678,000000	80,761800
677,000000	80,698100
676,000000	80,560100
675,000000	80,410100
674,000000	80,233700
673,000000	80,060500
672,000000	79,946800
671,000000	79,804300
670,000000	79,640100
669,000000	79,458400
668,000000	79,346700
667,000000	79,165100
666,000000	78,925800
665,000000	78,693600
664,000000	78,474300
663,000000	78,226700
662,000000	77,899000
661,000000	77,489600
660,000000	77,060600
659,000000	76,648800
658,000000	76,186800
657,000000	75,621500
656,000000	74,969200
655,000000	74,405800
654,000000	73,731000
653,000000	73,088000
652,000000	72,444400
651,000000	71,714600
650,000000	71,078900
649,000000	70,350700
648,000000	69,723500
647,000000	69,097800
646,000000	68,562000
645,000000	68,086100
644,000000	67,624700
643,000000	67,209400
642,000000	66,925500
641,000000	66,696600
640,000000	66,575200
639,000000	66,469700
638,000000	66,506600
637,000000	66,615900
636,000000	66,839200
635,000000	66,996000
634,000000	67,354100
633,000000	67,739100
632,000000	68,141900
631,000000	68,601800
630,000000	69,071700
629,000000	69,616800
628,000000	70,139100
627,000000	70,729000
626,000000	71,327200
625,000000	71,899100
624,000000	72,474400
623,000000	73,116500
622,000000	73,745300
621,000000	74,383000
620,000000	75,046700
619,000000	75,718200
618,000000	76,394100
617,000000	77,028200
616,000000	77,760400
615,000000	78,489800
614,000000	79,177200
613,000000	79,926700
612,000000	80,657800
611,000000	81,363000
610,000000	82,070800
609,000000	82,803600
608,000000	83,485100
607,000000	84,202300
606,000000	84,887900
605,000000	85,509700
604,000000	86,213900
603,000000	86,853800
602,000000	87,409900
601,000000	88,044600
600,000000	88,593200
599,000000	89,106500
598,000000	89,536800
597,000000	89,975300
596,000000	90,358700
595,000000	90,739900
594,000000	91,097100
593,000000	91,374000
592,000000	91,667500
591,000000	91,870100
590,000000	92,061200
589,000000	92,186200
588,000000	92,331100
587,000000	92,421700
586,000000	92,494100
585,000000	92,600200
584,000000	92,623200
583,000000	92,662600
582,000000	92,588300
581,000000	92,613800
580,000000	92,573300
579,000000	92,488600
578,000000	92,402100
577,000000	92,340100
576,000000	92,162400
575,000000	92,082400
574,000000	91,961300
573,000000	91,762300
572,000000	91,601400
571,000000	91,379900
570,000000	91,237500
569,000000	90,975400
568,000000	90,709000
567,000000	90,428900
566,000000	90,160800
565,000000	89,856600
564,000000	89,499500
563,000000	89,122000
562,000000	88,749500
561,000000	88,311700
560,000000	87,918900
559,000000	87,402800
558,000000	86,904300
557,000000	86,441700
556,000000	85,921800
555,000000	85,361500
554,000000	84,758400
553,000000	84,142600
552,000000	83,506800
551,000000	82,902500
550,000000	82,211500
549,000000	81,527700
548,000000	80,828900
547,000000	80,115600
546,000000	79,346700
545,000000	78,531500
544,000000	77,699500
543,000000	76,815400
542,000000	75,971100
541,000000	75,013300
540,000000	74,071500
539,000000	73,089700
538,000000	72,106100
537,000000	71,101300
536,000000	70,052900
535,000000	68,968100
534,000000	67,879300
533,000000	66,730500
532,000000	65,536000
531,000000	64,306300
530,000000	63,086700
529,000000	61,858300
528,000000	60,607000
527,000000	59,388700
526,000000	58,174100
525,000000	56,962000
524,000000	55,744200
523,000000	54,598500
522,000000	53,436500
521,000000	52,322000
520,000000	51,265800
519,000000	50,260400
518,000000	49,271900
517,000000	48,337400
516,000000	47,452900
515,000000	46,609400
514,000000	45,819200
513,000000	45,042600
512,000000	44,345400
511,000000	43,668800
510,000000	43,012700
509,000000	42,409000
508,000000	41,792100
507,000000	41,236800
506,000000	40,690500
505,000000	40,149800
504,000000	39,625800
503,000000	39,078500
502,000000	38,542300
501,000000	37,997900
500,000000	37,456500
499,000000	36,922200
498,000000	36,403600
497,000000	35,878700
496,000000	35,364500
495,000000	34,807100
494,000000	34,281700
493,000000	33,767700
492,000000	33,236900
491,000000	32,711000
490,000000	32,198500
489,000000	31,720700
488,000000	31,243600
487,000000	30,816100
486,000000	30,413400
485,000000	30,024500
484,000000	29,650900
483,000000	29,310800
482,000000	29,016500
481,000000	28,752200
480,000000	28,505000
479,000000	28,275900
478,000000	28,051600
477,000000	27,861700
476,000000	27,719900
475,000000	27,569400
474,000000	27,440900
473,000000	27,336800
472,000000	27,220900
471,000000	27,108100
470,000000	27,015800
469,000000	26,956900
468,000000	26,876100
467,000000	26,802700
466,000000	26,725000
465,000000	26,625400
464,000000	26,544300
463,000000	26,462400
462,000000	26,369500
461,000000	26,265100
460,000000	26,159500
459,000000	26,051500
458,000000	25,965100
457,000000	25,879400
456,000000	25,739600
455,000000	25,619100
454,000000	25,528700
453,000000	25,426000
452,000000	25,292500
451,000000	25,159100
450,000000	25,028100
449,000000	24,893100
448,000000	24,751100
447,000000	24,580300
446,000000	24,425300
445,000000	24,276800
444,000000	24,097000
443,000000	23,906700
442,000000	23,686200
441,000000	23,461500
440,000000	23,224300
439,000000	22,973400
438,000000	22,726400
437,000000	22,450500
436,000000	22,165800
435,000000	21,892000
434,000000	21,582100
433,000000	21,254700
432,000000	20,932700
431,000000	20,596200
430,000000	20,259600
429,000000	19,918100
428,000000	19,567400
427,000000	19,205300
426,000000	18,826500
425,000000	18,442900
424,000000	18,067500
423,000000	17,694400
422,000000	17,305600
421,000000	16,903000
420,000000	16,515000
419,000000	16,127800
418,000000	15,730800
417,000000	15,356500
416,000000	14,974200
415,000000	14,605500
414,000000	14,230600
413,000000	13,848800
412,000000	13,494200
411,000000	13,146500
410,000000	12,795600
409,000000	12,462900
408,000000	12,125900
407,000000	11,810300
406,000000	11,502200
405,000000	11,178400
404,000000	10,882100
403,000000	10,599400
402,000000	10,332900
401,000000	10,054600
400,000000	9,792800
399,000000	9,575000
398,000000	9,337500
397,000000	9,119500
396,000000	8,888600
395,000000	8,683800
394,000000	8,484700
393,000000	8,294900
392,000000	8,129400
391,000000	7,978800
390,000000	7,804700
389,000000	7,638800
388,000000	7,507200
387,000000	7,383200
386,000000	7,251200
385,000000	7,155200
384,000000	7,043800
383,000000	6,937000
382,000000	6,844600
381,000000	6,740500
380,000000	6,676600
379,000000	6,622300
378,000000	6,530400
377,000000	6,473400
376,000000	6,394000
375,000000	6,084900
374,000000	6,034800
373,000000	6,079800
372,000000	6,051100
371,000000	6,008100
370,000000	6,046900
369,000000	6,054800
368,000000	5,998900
367,000000	5,998500
366,000000	5,905400
365,000000	5,882500
364,000000	6,001900
363,000000	5,948700
362,000000	5,882900
361,000000	5,918800
360,000000	5,890100
359,000000	5,844200
358,000000	5,910300
357,000000	5,912400
356,000000	5,824300
355,000000	5,729200
354,000000	5,744700
353,000000	5,776000
352,000000	5,861200
351,000000	5,723200
350,000000	5,691200
349,000000	5,667700
348,000000	5,614600
347,000000	5,552500
346,000000	5,680900
345,000000	5,680300
344,000000	5,671100
343,000000	5,740600
342,000000	5,710100
341,000000	5,537600
340,000000	5,641500
339,000000	5,669200
338,000000	5,750000
337,000000	5,815400
336,000000	5,799800
335,000000	5,737900
334,000000	5,759800
333,000000	5,751100
332,000000	5,770400
331,000000	5,718900
330,000000	5,791100
329,000000	5,790900
328,000000	5,904700
327,000000	5,854000
326,000000	6,034100
325,000000	6,022100
324,000000	5,861600
323,000000	5,696400
322,000000	5,987100
321,000000	5,817700
320,000000	5,975800
319,000000	5,880200
318,000000	5,697000
317,000000	6,145600
316,000000	5,711200
315,000000	5,677000
314,000000	5,668400
313,000000	5,663200
312,000000	5,719400
311,000000	5,669800
310,000000	5,643300
309,000000	5,685800
308,000000	5,709800
307,000000	5,664300
306,000000	5,678700
305,000000	5,730200
304,000000	5,731900
303,000000	5,725000
302,000000	5,688700
301,000000	5,739800
300,000000	5,729100
299,000000	5,676300
298,000000	5,738600
297,000000	5,796600
296,000000	5,788800
295,000000	5,754000
294,000000	5,740400
293,000000	5,716800
292,000000	5,739400
291,000000	5,737300
290,000000	5,779000
289,000000	5,752700
288,000000	5,791200
287,000000	5,855600
286,000000	5,816800
285,000000	5,823000
284,000000	5,764500
283,000000	5,828600
282,000000	5,808700
281,000000	5,865100
280,000000	5,857700
279,000000	5,812700
278,000000	5,836500
277,000000	5,925500
276,000000	5,900600
275,000000	5,918100
274,000000	5,902600
273,000000	5,899300
272,000000	5,935100
271,000000	6,019800
270,000000	5,928000
269,000000	5,977100
268,000000	6,025300
267,000000	6,010000
266,000000	6,126800
265,000000	6,111800
264,000000	6,125200
263,000000	6,183300
262,000000	6,145200
261,000000	6,193200
260,000000	6,229300
259,000000	6,221500
258,000000	6,232100
257,000000	6,246600
256,000000	6,308200
255,000000	6,338100
254,000000	6,294000
253,000000	6,374800
252,000000	6,308800
251,000000	6,298700
250,000000	6,364200
