PE UV       SUBTECH     SPECTRUM    ASCII       PEDS        4.00        
   -1
CICIMAUCR0006-3.Sample.ASC
24/04/12
11:24:13.00
24/04/12
11:24:13.00
Vinicio Soto Monge
C. kalinini
250,000000
1
Lambda 1050
1050L1511233
PerkinElmer UV WinLab 6.3.2.0749 / 2.02.05 Lambda 900 UV/VIS/NIR, Aug  7 2015 09:38:08

0
0
3350/servo 860,8/2
0
0
UV/VIS
1
1
1
DoubleDePol,CommonBeamDepol,RBeamAtt,SBeamAtt,60mm sphere, WB InGaAs Detector
0
0
0
0
Program
Program
3350/servo 860,8/2
3350/0,2 860,8/0,2
3350/0,2 860,8/0,2
0
15.00
 
 
 
0
 
860,8
319,2
860,8
Front
100
on
S:100 R:100
0
0
0
0
 
0
 
 
 
0
 
 
0
0
0
0
0
 
 
 
 
0
0


0
0
#HDR
-1
-1
#GR
nm
%R
1.0
0.0
2500,000000
-1,000000
2251
8
53,231800
3,109100
#DATA
2500,000000	10,024200
2499,000000	9,885200
2498,000000	9,891600
2497,000000	9,900500
2496,000000	9,898800
2495,000000	9,746900
2494,000000	9,768300
2493,000000	9,843200
2492,000000	9,721100
2491,000000	9,756400
2490,000000	9,731600
2489,000000	9,784000
2488,000000	9,682600
2487,000000	9,737800
2486,000000	9,700100
2485,000000	9,715200
2484,000000	9,604400
2483,000000	9,673200
2482,000000	9,691900
2481,000000	9,685800
2480,000000	9,708200
2479,000000	9,785900
2478,000000	9,749200
2477,000000	9,762400
2476,000000	9,740800
2475,000000	9,753900
2474,000000	9,835100
2473,000000	9,795800
2472,000000	9,840800
2471,000000	9,842100
2470,000000	9,881600
2469,000000	9,894100
2468,000000	9,945100
2467,000000	9,983400
2466,000000	10,025700
2465,000000	10,061200
2464,000000	10,139900
2463,000000	10,175100
2462,000000	10,217600
2461,000000	10,311300
2460,000000	10,361200
2459,000000	10,431700
2458,000000	10,533000
2457,000000	10,588100
2456,000000	10,680600
2455,000000	10,738700
2454,000000	10,832700
2453,000000	10,885200
2452,000000	10,966300
2451,000000	11,033400
2450,000000	11,119000
2449,000000	11,208000
2448,000000	11,287900
2447,000000	11,340700
2446,000000	11,435400
2445,000000	11,505200
2444,000000	11,574400
2443,000000	11,657300
2442,000000	11,741600
2441,000000	11,798500
2440,000000	11,876300
2439,000000	11,946600
2438,000000	12,034200
2437,000000	12,107600
2436,000000	12,173000
2435,000000	12,234000
2434,000000	12,283200
2433,000000	12,347900
2432,000000	12,411900
2431,000000	12,484800
2430,000000	12,524200
2429,000000	12,574200
2428,000000	12,617800
2427,000000	12,595000
2426,000000	12,549800
2425,000000	12,505000
2424,000000	12,484400
2423,000000	12,494700
2422,000000	12,545900
2421,000000	12,580400
2420,000000	12,596100
2419,000000	12,597900
2418,000000	12,595400
2417,000000	12,619400
2416,000000	12,610400
2415,000000	12,628500
2414,000000	12,647200
2413,000000	12,633400
2412,000000	12,623800
2411,000000	12,645300
2410,000000	12,657100
2409,000000	12,648000
2408,000000	12,659600
2407,000000	12,631000
2406,000000	12,662300
2405,000000	12,674800
2404,000000	12,669500
2403,000000	12,693200
2402,000000	12,674800
2401,000000	12,694800
2400,000000	12,691200
2399,000000	12,674700
2398,000000	12,701500
2397,000000	12,690700
2396,000000	12,682900
2395,000000	12,687400
2394,000000	12,650500
2393,000000	12,660900
2392,000000	12,672600
2391,000000	12,657700
2390,000000	12,635900
2389,000000	12,640000
2388,000000	12,638400
2387,000000	12,636300
2386,000000	12,615400
2385,000000	12,577200
2384,000000	12,568500
2383,000000	12,567600
2382,000000	12,538400
2381,000000	12,500300
2380,000000	12,468200
2379,000000	12,415700
2378,000000	12,402700
2377,000000	12,391400
2376,000000	12,376600
2375,000000	12,363400
2374,000000	12,322800
2373,000000	12,264700
2372,000000	12,249200
2371,000000	12,207700
2370,000000	12,130300
2369,000000	12,087000
2368,000000	12,059500
2367,000000	12,003100
2366,000000	11,947600
2365,000000	11,903400
2364,000000	11,855600
2363,000000	11,785800
2362,000000	11,717000
2361,000000	11,675800
2360,000000	11,633400
2359,000000	11,557900
2358,000000	11,499500
2357,000000	11,480000
2356,000000	11,461200
2355,000000	11,401400
2354,000000	11,362400
2353,000000	11,372600
2352,000000	11,375500
2351,000000	11,355200
2350,000000	11,358000
2349,000000	11,369200
2348,000000	11,386400
2347,000000	11,380700
2346,000000	11,386100
2345,000000	11,393900
2344,000000	11,391900
2343,000000	11,404300
2342,000000	11,418700
2341,000000	11,400200
2340,000000	11,390200
2339,000000	11,390400
2338,000000	11,358100
2337,000000	11,298700
2336,000000	11,254100
2335,000000	11,241300
2334,000000	11,235200
2333,000000	11,186000
2332,000000	11,149500
2331,000000	11,095900
2330,000000	11,050600
2329,000000	11,012100
2328,000000	10,934700
2327,000000	10,874000
2326,000000	10,815000
2325,000000	10,777200
2324,000000	10,721500
2323,000000	10,647100
2322,000000	10,577500
2321,000000	10,504700
2320,000000	10,419500
2319,000000	10,347700
2318,000000	10,270100
2317,000000	10,162100
2316,000000	10,088700
2315,000000	10,032500
2314,000000	9,949500
2313,000000	9,898100
2312,000000	9,841300
2311,000000	9,801900
2310,000000	9,743600
2309,000000	9,711600
2308,000000	9,717300
2307,000000	9,683100
2306,000000	9,680500
2305,000000	9,733700
2304,000000	9,779200
2303,000000	9,784900
2302,000000	9,841800
2301,000000	9,912600
2300,000000	9,953500
2299,000000	9,985900
2298,000000	10,065700
2297,000000	10,124600
2296,000000	10,143100
2295,000000	10,205200
2294,000000	10,232800
2293,000000	10,234500
2292,000000	10,258300
2291,000000	10,296500
2290,000000	10,286600
2289,000000	10,253700
2288,000000	10,235400
2287,000000	10,220000
2286,000000	10,208600
2285,000000	10,148400
2284,000000	10,117300
2283,000000	10,068900
2282,000000	10,038600
2281,000000	9,959000
2280,000000	9,931100
2279,000000	9,874200
2278,000000	9,841100
2277,000000	9,782800
2276,000000	9,733300
2275,000000	9,743200
2274,000000	9,730900
2273,000000	9,674700
2272,000000	9,662000
2271,000000	9,705600
2270,000000	9,745500
2269,000000	9,732400
2268,000000	9,778600
2267,000000	9,872300
2266,000000	9,978600
2265,000000	10,038000
2264,000000	10,148200
2263,000000	10,284500
2262,000000	10,430900
2261,000000	10,616100
2260,000000	10,766600
2259,000000	10,935600
2258,000000	11,108500
2257,000000	11,303500
2256,000000	11,481700
2255,000000	11,618200
2254,000000	11,793900
2253,000000	11,996900
2252,000000	12,160600
2251,000000	12,329000
2250,000000	12,433400
2249,000000	12,572100
2248,000000	12,715000
2247,000000	12,848800
2246,000000	12,940300
2245,000000	13,042600
2244,000000	13,167300
2243,000000	13,247200
2242,000000	13,350500
2241,000000	13,390500
2240,000000	13,469600
2239,000000	13,554700
2238,000000	13,608200
2237,000000	13,651400
2236,000000	13,704000
2235,000000	13,767700
2234,000000	13,814700
2233,000000	13,862900
2232,000000	13,893000
2231,000000	13,887200
2230,000000	13,898900
2229,000000	13,905200
2228,000000	13,925800
2227,000000	13,935500
2226,000000	13,951000
2225,000000	13,941500
2224,000000	13,925100
2223,000000	13,873800
2222,000000	13,869700
2221,000000	13,861100
2220,000000	13,858700
2219,000000	13,827700
2218,000000	13,815200
2217,000000	13,786500
2216,000000	13,757400
2215,000000	13,741400
2214,000000	13,709300
2213,000000	13,692300
2212,000000	13,666900
2211,000000	13,654200
2210,000000	13,630300
2209,000000	13,606000
2208,000000	13,595900
2207,000000	13,570600
2206,000000	13,523600
2205,000000	13,514900
2204,000000	13,500800
2203,000000	13,488200
2202,000000	13,466000
2201,000000	13,454600
2200,000000	13,441900
2199,000000	13,436800
2198,000000	13,419000
2197,000000	13,393100
2196,000000	13,372800
2195,000000	13,360000
2194,000000	13,338900
2193,000000	13,336100
2192,000000	13,322800
2191,000000	13,315600
2190,000000	13,307800
2189,000000	13,303400
2188,000000	13,277000
2187,000000	13,274600
2186,000000	13,258900
2185,000000	13,234700
2184,000000	13,212500
2183,000000	13,200400
2182,000000	13,241100
2181,000000	13,220700
2180,000000	13,213700
2179,000000	13,209300
2178,000000	13,186500
2177,000000	13,217600
2176,000000	13,211100
2175,000000	13,210500
2174,000000	13,193600
2173,000000	13,214700
2172,000000	13,223700
2171,000000	13,258800
2170,000000	13,246400
2169,000000	13,247400
2168,000000	13,269500
2167,000000	13,287900
2166,000000	13,323000
2165,000000	13,318600
2164,000000	13,344300
2163,000000	13,366100
2162,000000	13,413000
2161,000000	13,421800
2160,000000	13,442000
2159,000000	13,486100
2158,000000	13,540300
2157,000000	13,552400
2156,000000	13,579200
2155,000000	13,615900
2154,000000	13,628700
2153,000000	13,651200
2152,000000	13,679700
2151,000000	13,723300
2150,000000	13,766200
2149,000000	13,793300
2148,000000	13,832400
2147,000000	13,847500
2146,000000	13,858500
2145,000000	13,877600
2144,000000	13,901300
2143,000000	13,918500
2142,000000	13,943500
2141,000000	13,959400
2140,000000	13,979100
2139,000000	13,991300
2138,000000	13,986100
2137,000000	13,990200
2136,000000	13,995800
2135,000000	14,007800
2134,000000	14,008500
2133,000000	14,012500
2132,000000	13,993800
2131,000000	13,999500
2130,000000	14,004600
2129,000000	13,982900
2128,000000	13,943200
2127,000000	13,941900
2126,000000	13,920000
2125,000000	13,894200
2124,000000	13,884800
2123,000000	13,866700
2122,000000	13,833000
2121,000000	13,789600
2120,000000	13,744700
2119,000000	13,711400
2118,000000	13,695900
2117,000000	13,660600
2116,000000	13,616300
2115,000000	13,574100
2114,000000	13,535200
2113,000000	13,520100
2112,000000	13,493000
2111,000000	13,453100
2110,000000	13,416000
2109,000000	13,374700
2108,000000	13,349600
2107,000000	13,321800
2106,000000	13,278500
2105,000000	13,238000
2104,000000	13,198100
2103,000000	13,179500
2102,000000	13,171800
2101,000000	13,145300
2100,000000	13,097700
2099,000000	13,056500
2098,000000	13,043600
2097,000000	13,042200
2096,000000	13,018000
2095,000000	12,978000
2094,000000	12,980600
2093,000000	12,975300
2092,000000	12,955300
2091,000000	12,948000
2090,000000	12,929400
2089,000000	12,920600
2088,000000	12,905500
2087,000000	12,895500
2086,000000	12,888100
2085,000000	12,850000
2084,000000	12,823900
2083,000000	12,812100
2082,000000	12,807000
2081,000000	12,794300
2080,000000	12,768800
2079,000000	12,728200
2078,000000	12,690200
2077,000000	12,682900
2076,000000	12,666200
2075,000000	12,662500
2074,000000	12,638500
2073,000000	12,615700
2072,000000	12,581000
2071,000000	12,549600
2070,000000	12,537600
2069,000000	12,526400
2068,000000	12,490500
2067,000000	12,478400
2066,000000	12,460900
2065,000000	12,431700
2064,000000	12,415400
2063,000000	12,407000
2062,000000	12,379800
2061,000000	12,365900
2060,000000	12,373100
2059,000000	12,372200
2058,000000	12,365000
2057,000000	12,386900
2056,000000	12,389600
2055,000000	12,420200
2054,000000	12,474400
2053,000000	12,513100
2052,000000	12,565700
2051,000000	12,629500
2050,000000	12,693300
2049,000000	12,764200
2048,000000	12,859000
2047,000000	12,941600
2046,000000	13,045000
2045,000000	13,149300
2044,000000	13,241800
2043,000000	13,333400
2042,000000	13,450100
2041,000000	13,548400
2040,000000	13,633900
2039,000000	13,729200
2038,000000	13,818600
2037,000000	13,920500
2036,000000	14,029200
2035,000000	14,110900
2034,000000	14,178300
2033,000000	14,240900
2032,000000	14,321900
2031,000000	14,419200
2030,000000	14,474100
2029,000000	14,516300
2028,000000	14,559500
2027,000000	14,626900
2026,000000	14,694300
2025,000000	14,727200
2024,000000	14,768600
2023,000000	14,812900
2022,000000	14,872800
2021,000000	14,918600
2020,000000	14,958800
2019,000000	14,972500
2018,000000	15,012100
2017,000000	15,056600
2016,000000	15,074300
2015,000000	15,093400
2014,000000	15,130000
2013,000000	15,140900
2012,000000	15,134700
2011,000000	15,144300
2010,000000	15,155000
2009,000000	15,151400
2008,000000	15,144900
2007,000000	15,158000
2006,000000	15,126200
2005,000000	15,121300
2004,000000	15,096000
2003,000000	15,079400
2002,000000	15,070300
2001,000000	15,028900
2000,000000	14,999100
1999,000000	14,962100
1998,000000	14,919700
1997,000000	14,858300
1996,000000	14,826900
1995,000000	14,805300
1994,000000	14,726300
1993,000000	14,683800
1992,000000	14,661700
1991,000000	14,579000
1990,000000	14,525800
1989,000000	14,444700
1988,000000	14,391100
1987,000000	14,342700
1986,000000	14,282600
1985,000000	14,215400
1984,000000	14,147000
1983,000000	14,063400
1982,000000	14,009600
1981,000000	13,920100
1980,000000	13,879700
1979,000000	13,788700
1978,000000	13,733600
1977,000000	13,645200
1976,000000	13,610600
1975,000000	13,534300
1974,000000	13,447000
1973,000000	13,391900
1972,000000	13,319400
1971,000000	13,275100
1970,000000	13,222900
1969,000000	13,163800
1968,000000	13,098800
1967,000000	13,025000
1966,000000	12,956500
1965,000000	12,891500
1964,000000	12,829800
1963,000000	12,779300
1962,000000	12,720800
1961,000000	12,672700
1960,000000	12,608200
1959,000000	12,541200
1958,000000	12,483400
1957,000000	12,406600
1956,000000	12,352800
1955,000000	12,307300
1954,000000	12,268900
1953,000000	12,210900
1952,000000	12,166000
1951,000000	12,085800
1950,000000	12,051900
1949,000000	11,999800
1948,000000	11,943100
1947,000000	11,915400
1946,000000	11,883700
1945,000000	11,853900
1944,000000	11,821500
1943,000000	11,798700
1942,000000	11,761300
1941,000000	11,756600
1940,000000	11,738300
1939,000000	11,761600
1938,000000	11,814000
1937,000000	11,835100
1936,000000	11,827000
1935,000000	11,823900
1934,000000	11,838500
1933,000000	11,856400
1932,000000	11,886600
1931,000000	11,962300
1930,000000	12,021900
1929,000000	12,114500
1928,000000	12,212400
1927,000000	12,297800
1926,000000	12,401700
1925,000000	12,504000
1924,000000	12,534900
1923,000000	12,600300
1922,000000	12,783200
1921,000000	12,984800
1920,000000	13,163600
1919,000000	13,357400
1918,000000	13,455800
1917,000000	13,489800
1916,000000	13,566200
1915,000000	13,715100
1914,000000	13,954500
1913,000000	14,250800
1912,000000	14,533200
1911,000000	14,714700
1910,000000	14,828800
1909,000000	14,889400
1908,000000	15,001000
1907,000000	15,244900
1906,000000	15,575700
1905,000000	15,973600
1904,000000	16,295400
1903,000000	16,479700
1902,000000	16,657600
1901,000000	16,886600
1900,000000	17,181600
1899,000000	17,571100
1898,000000	17,905900
1897,000000	18,125400
1896,000000	18,228500
1895,000000	18,323900
1894,000000	18,529100
1893,000000	18,800000
1892,000000	19,144400
1891,000000	19,545500
1890,000000	19,877700
1889,000000	20,125300
1888,000000	20,351900
1887,000000	20,531400
1886,000000	20,810100
1885,000000	21,199200
1884,000000	21,645000
1883,000000	22,056000
1882,000000	22,442100
1881,000000	22,799200
1880,000000	23,067200
1879,000000	23,348300
1878,000000	23,653400
1877,000000	23,980700
1876,000000	24,299700
1875,000000	24,623800
1874,000000	24,892300
1873,000000	25,214600
1872,000000	25,566100
1871,000000	25,848600
1870,000000	26,134600
1869,000000	26,381900
1868,000000	26,510500
1867,000000	26,536400
1866,000000	26,501700
1865,000000	26,437200
1864,000000	26,357900
1863,000000	26,265600
1862,000000	26,250700
1861,000000	26,314700
1860,000000	26,407500
1859,000000	26,542700
1858,000000	26,642100
1857,000000	26,585500
1856,000000	26,481300
1855,000000	26,484300
1854,000000	26,511700
1853,000000	26,508000
1852,000000	26,459300
1851,000000	26,291300
1850,000000	26,082000
1849,000000	26,043400
1848,000000	26,233900
1847,000000	26,472300
1846,000000	26,500700
1845,000000	26,259200
1844,000000	25,928500
1843,000000	25,731300
1842,000000	25,778900
1841,000000	25,959700
1840,000000	26,014400
1839,000000	25,961300
1838,000000	25,892600
1837,000000	25,891200
1836,000000	25,941800
1835,000000	25,931400
1834,000000	25,771800
1833,000000	25,530800
1832,000000	25,360700
1831,000000	25,310100
1830,000000	25,345400
1829,000000	25,317300
1828,000000	25,226300
1827,000000	25,198300
1826,000000	25,188400
1825,000000	25,107800
1824,000000	24,959100
1823,000000	24,769800
1822,000000	24,724300
1821,000000	24,882200
1820,000000	25,037900
1819,000000	25,042500
1818,000000	24,941800
1817,000000	24,839200
1816,000000	24,814700
1815,000000	24,817900
1814,000000	24,801000
1813,000000	24,761100
1812,000000	24,746700
1811,000000	24,769300
1810,000000	24,746500
1809,000000	24,676100
1808,000000	24,579500
1807,000000	24,530700
1806,000000	24,541900
1805,000000	24,525900
1804,000000	24,464000
1803,000000	24,389500
1802,000000	24,359200
1801,000000	24,358800
1800,000000	24,326800
1799,000000	24,275900
1798,000000	24,211800
1797,000000	24,142400
1796,000000	24,103800
1795,000000	24,062600
1794,000000	24,026500
1793,000000	23,986100
1792,000000	23,948700
1791,000000	23,907800
1790,000000	23,854900
1789,000000	23,794300
1788,000000	23,753900
1787,000000	23,712300
1786,000000	23,659200
1785,000000	23,612500
1784,000000	23,565600
1783,000000	23,511500
1782,000000	23,440100
1781,000000	23,383700
1780,000000	23,320200
1779,000000	23,247000
1778,000000	23,189500
1777,000000	23,106200
1776,000000	23,012100
1775,000000	22,909100
1774,000000	22,802800
1773,000000	22,702500
1772,000000	22,584500
1771,000000	22,489400
1770,000000	22,384000
1769,000000	22,261900
1768,000000	22,164800
1767,000000	22,084800
1766,000000	22,016600
1765,000000	21,933900
1764,000000	21,904000
1763,000000	21,900700
1762,000000	21,919200
1761,000000	21,953700
1760,000000	22,011100
1759,000000	22,062900
1758,000000	22,101100
1757,000000	22,158600
1756,000000	22,199200
1755,000000	22,243100
1754,000000	22,270800
1753,000000	22,277200
1752,000000	22,273100
1751,000000	22,252700
1750,000000	22,218600
1749,000000	22,147500
1748,000000	22,089300
1747,000000	22,008300
1746,000000	21,921800
1745,000000	21,796600
1744,000000	21,661700
1743,000000	21,496300
1742,000000	21,313800
1741,000000	21,131200
1740,000000	20,917200
1739,000000	20,725200
1738,000000	20,528200
1737,000000	20,351700
1736,000000	20,234700
1735,000000	20,145000
1734,000000	20,105500
1733,000000	20,089600
1732,000000	20,121500
1731,000000	20,168300
1730,000000	20,247300
1729,000000	20,325500
1728,000000	20,414500
1727,000000	20,487900
1726,000000	20,555200
1725,000000	20,582600
1724,000000	20,624500
1723,000000	20,674200
1722,000000	20,699700
1721,000000	20,713200
1720,000000	20,737700
1719,000000	20,765800
1718,000000	20,830500
1717,000000	20,885100
1716,000000	20,964600
1715,000000	21,013200
1714,000000	21,085200
1713,000000	21,159200
1712,000000	21,214400
1711,000000	21,263400
1710,000000	21,280400
1709,000000	21,283500
1708,000000	21,286000
1707,000000	21,281300
1706,000000	21,253300
1705,000000	21,230900
1704,000000	21,190500
1703,000000	21,121000
1702,000000	21,028800
1701,000000	20,937900
1700,000000	20,822300
1699,000000	20,661600
1698,000000	20,552100
1697,000000	20,477800
1696,000000	20,432000
1695,000000	20,420100
1694,000000	20,469900
1693,000000	20,566100
1692,000000	20,716000
1691,000000	20,821200
1690,000000	20,959800
1689,000000	21,031100
1688,000000	21,083700
1687,000000	21,115400
1686,000000	21,129600
1685,000000	21,175800
1684,000000	21,278800
1683,000000	21,463400
1682,000000	21,756300
1681,000000	22,154600
1680,000000	22,603200
1679,000000	23,061700
1678,000000	23,528800
1677,000000	23,963700
1676,000000	24,347600
1675,000000	24,658200
1674,000000	24,951900
1673,000000	25,208700
1672,000000	25,426800
1671,000000	25,612000
1670,000000	25,789000
1669,000000	25,953000
1668,000000	26,105800
1667,000000	26,220000
1666,000000	26,313100
1665,000000	26,413200
1664,000000	26,484600
1663,000000	26,555500
1662,000000	26,611000
1661,000000	26,655700
1660,000000	26,719900
1659,000000	26,768100
1658,000000	26,788300
1657,000000	26,792100
1656,000000	26,836200
1655,000000	26,854900
1654,000000	26,844000
1653,000000	26,846700
1652,000000	26,851400
1651,000000	26,817500
1650,000000	26,803600
1649,000000	26,763800
1648,000000	26,737000
1647,000000	26,710100
1646,000000	26,678600
1645,000000	26,637000
1644,000000	26,584000
1643,000000	26,543200
1642,000000	26,486400
1641,000000	26,444300
1640,000000	26,407300
1639,000000	26,348700
1638,000000	26,302500
1637,000000	26,241800
1636,000000	26,187400
1635,000000	26,132800
1634,000000	26,072500
1633,000000	26,015000
1632,000000	25,954800
1631,000000	25,891200
1630,000000	25,829800
1629,000000	25,761600
1628,000000	25,696500
1627,000000	25,642500
1626,000000	25,577500
1625,000000	25,508300
1624,000000	25,423000
1623,000000	25,353700
1622,000000	25,273400
1621,000000	25,206100
1620,000000	25,138300
1619,000000	25,094100
1618,000000	25,031300
1617,000000	24,948300
1616,000000	24,867600
1615,000000	24,811500
1614,000000	24,759900
1613,000000	24,712200
1612,000000	24,646100
1611,000000	24,581900
1610,000000	24,522700
1609,000000	24,446300
1608,000000	24,382000
1607,000000	24,328200
1606,000000	24,264000
1605,000000	24,198100
1604,000000	24,139700
1603,000000	24,075700
1602,000000	23,996200
1601,000000	23,921800
1600,000000	23,862000
1599,000000	23,798500
1598,000000	23,733200
1597,000000	23,676000
1596,000000	23,625900
1595,000000	23,580800
1594,000000	23,529400
1593,000000	23,469800
1592,000000	23,427600
1591,000000	23,384600
1590,000000	23,339500
1589,000000	23,302700
1588,000000	23,271900
1587,000000	23,235000
1586,000000	23,182900
1585,000000	23,145400
1584,000000	23,121000
1583,000000	23,096100
1582,000000	23,092000
1581,000000	23,090100
1580,000000	23,076100
1579,000000	23,049800
1578,000000	23,033200
1577,000000	23,048700
1576,000000	23,043800
1575,000000	23,040000
1574,000000	23,043500
1573,000000	23,048700
1572,000000	23,073100
1571,000000	23,092500
1570,000000	23,109300
1569,000000	23,124700
1568,000000	23,158500
1567,000000	23,191100
1566,000000	23,200100
1565,000000	23,215900
1564,000000	23,237700
1563,000000	23,257000
1562,000000	23,272100
1561,000000	23,275800
1560,000000	23,288100
1559,000000	23,294100
1558,000000	23,311300
1557,000000	23,327800
1556,000000	23,323800
1555,000000	23,316200
1554,000000	23,299300
1553,000000	23,310100
1552,000000	23,315500
1551,000000	23,292600
1550,000000	23,273400
1549,000000	23,268200
1548,000000	23,253100
1547,000000	23,229800
1546,000000	23,217000
1545,000000	23,198200
1544,000000	23,185200
1543,000000	23,172400
1542,000000	23,175200
1541,000000	23,182100
1540,000000	23,189100
1539,000000	23,173100
1538,000000	23,171600
1537,000000	23,172300
1536,000000	23,178300
1535,000000	23,169500
1534,000000	23,167600
1533,000000	23,163300
1532,000000	23,148800
1531,000000	23,132200
1530,000000	23,115100
1529,000000	23,091200
1528,000000	23,064500
1527,000000	23,063900
1526,000000	23,065000
1525,000000	23,031000
1524,000000	23,005900
1523,000000	22,982500
1522,000000	22,960300
1521,000000	22,943900
1520,000000	22,925800
1519,000000	22,900100
1518,000000	22,872400
1517,000000	22,870300
1516,000000	22,830500
1515,000000	22,805800
1514,000000	22,781700
1513,000000	22,741000
1512,000000	22,713100
1511,000000	22,700100
1510,000000	22,675400
1509,000000	22,650300
1508,000000	22,619800
1507,000000	22,594300
1506,000000	22,548400
1505,000000	22,514200
1504,000000	22,510100
1503,000000	22,472300
1502,000000	22,431000
1501,000000	22,431800
1500,000000	22,420400
1499,000000	22,414400
1498,000000	22,379900
1497,000000	22,377300
1496,000000	22,384500
1495,000000	22,364900
1494,000000	22,348000
1493,000000	22,363600
1492,000000	22,373300
1491,000000	22,382100
1490,000000	22,390300
1489,000000	22,384500
1488,000000	22,399600
1487,000000	22,393000
1486,000000	22,408100
1485,000000	22,433800
1484,000000	22,444600
1483,000000	22,428700
1482,000000	22,446700
1481,000000	22,469600
1480,000000	22,494100
1479,000000	22,526200
1478,000000	22,556100
1477,000000	22,586600
1476,000000	22,646600
1475,000000	22,685000
1474,000000	22,702200
1473,000000	22,733300
1472,000000	22,760200
1471,000000	22,810000
1470,000000	22,862400
1469,000000	22,893500
1468,000000	22,900200
1467,000000	22,941600
1466,000000	23,019800
1465,000000	23,052100
1464,000000	23,083100
1463,000000	23,122100
1462,000000	23,187100
1461,000000	23,233700
1460,000000	23,328100
1459,000000	23,388000
1458,000000	23,456300
1457,000000	23,552700
1456,000000	23,630900
1455,000000	23,707500
1454,000000	23,787300
1453,000000	23,844000
1452,000000	23,949800
1451,000000	24,071800
1450,000000	24,210400
1449,000000	24,280500
1448,000000	24,347700
1447,000000	24,413200
1446,000000	24,539000
1445,000000	24,707000
1444,000000	24,788800
1443,000000	24,875000
1442,000000	24,992000
1441,000000	25,110000
1440,000000	25,213600
1439,000000	25,287300
1438,000000	25,418600
1437,000000	25,560200
1436,000000	25,663500
1435,000000	25,779700
1434,000000	25,903800
1433,000000	26,037000
1432,000000	26,164000
1431,000000	26,327900
1430,000000	26,450400
1429,000000	26,594000
1428,000000	26,792500
1427,000000	26,959700
1426,000000	27,122100
1425,000000	27,274300
1424,000000	27,486800
1423,000000	27,746700
1422,000000	27,945400
1421,000000	28,089300
1420,000000	28,284200
1419,000000	28,589400
1418,000000	28,862500
1417,000000	28,974400
1416,000000	29,113700
1415,000000	29,284800
1414,000000	29,669100
1413,000000	29,933200
1412,000000	30,021400
1411,000000	30,179900
1410,000000	30,446900
1409,000000	30,853600
1408,000000	31,149300
1407,000000	31,459400
1406,000000	31,748800
1405,000000	32,104700
1404,000000	32,519600
1403,000000	32,774000
1402,000000	32,859600
1401,000000	33,273500
1400,000000	33,827500
1399,000000	34,121800
1398,000000	34,019200
1397,000000	34,065600
1396,000000	34,391800
1395,000000	34,864300
1394,000000	34,888500
1393,000000	34,874900
1392,000000	35,097600
1391,000000	35,299300
1390,000000	35,327500
1389,000000	35,417200
1388,000000	35,774300
1387,000000	36,051300
1386,000000	36,186100
1385,000000	36,422600
1384,000000	36,731200
1383,000000	37,062300
1382,000000	37,438600
1381,000000	37,781800
1380,000000	37,808400
1379,000000	37,920000
1378,000000	37,885900
1377,000000	37,932400
1376,000000	37,968400
1375,000000	38,131600
1374,000000	38,287400
1373,000000	38,469100
1372,000000	38,689400
1371,000000	39,053500
1370,000000	39,285000
1369,000000	39,426700
1368,000000	39,707500
1367,000000	39,940300
1366,000000	39,987200
1365,000000	40,157900
1364,000000	40,337700
1363,000000	40,320900
1362,000000	40,459000
1361,000000	40,761300
1360,000000	40,823700
1359,000000	40,751900
1358,000000	40,765600
1357,000000	40,836800
1356,000000	41,002600
1355,000000	41,353800
1354,000000	41,786800
1353,000000	42,095400
1352,000000	42,417500
1351,000000	42,800600
1350,000000	43,126500
1349,000000	43,416200
1348,000000	43,728800
1347,000000	44,038100
1346,000000	44,254400
1345,000000	44,487000
1344,000000	44,752000
1343,000000	44,954300
1342,000000	45,135500
1341,000000	45,338400
1340,000000	45,568400
1339,000000	45,768200
1338,000000	45,950300
1337,000000	46,133900
1336,000000	46,299900
1335,000000	46,467300
1334,000000	46,618000
1333,000000	46,771200
1332,000000	46,908400
1331,000000	47,024100
1330,000000	47,127600
1329,000000	47,244800
1328,000000	47,375000
1327,000000	47,484200
1326,000000	47,559000
1325,000000	47,639600
1324,000000	47,729200
1323,000000	47,832300
1322,000000	47,906900
1321,000000	47,977500
1320,000000	48,064000
1319,000000	48,155300
1318,000000	48,218100
1317,000000	48,268900
1316,000000	48,303900
1315,000000	48,350300
1314,000000	48,405100
1313,000000	48,445100
1312,000000	48,491400
1311,000000	48,535700
1310,000000	48,552300
1309,000000	48,590700
1308,000000	48,620000
1307,000000	48,645900
1306,000000	48,676200
1305,000000	48,665700
1304,000000	48,645200
1303,000000	48,639800
1302,000000	48,632700
1301,000000	48,610300
1300,000000	48,597300
1299,000000	48,613600
1298,000000	48,612700
1297,000000	48,585400
1296,000000	48,559000
1295,000000	48,545900
1294,000000	48,529400
1293,000000	48,503100
1292,000000	48,482800
1291,000000	48,459000
1290,000000	48,433600
1289,000000	48,411500
1288,000000	48,370900
1287,000000	48,326400
1286,000000	48,274000
1285,000000	48,225000
1284,000000	48,175500
1283,000000	48,110300
1282,000000	48,053300
1281,000000	47,998400
1280,000000	47,935900
1279,000000	47,893800
1278,000000	47,841100
1277,000000	47,784800
1276,000000	47,758100
1275,000000	47,736100
1274,000000	47,691100
1273,000000	47,643000
1272,000000	47,611700
1271,000000	47,583100
1270,000000	47,546200
1269,000000	47,515000
1268,000000	47,501800
1267,000000	47,462700
1266,000000	47,398600
1265,000000	47,334600
1264,000000	47,304400
1263,000000	47,280700
1262,000000	47,252200
1261,000000	47,212700
1260,000000	47,183200
1259,000000	47,143500
1258,000000	47,105500
1257,000000	47,073500
1256,000000	47,028300
1255,000000	47,009200
1254,000000	46,955000
1253,000000	46,907200
1252,000000	46,849900
1251,000000	46,816400
1250,000000	46,755300
1249,000000	46,702600
1248,000000	46,649000
1247,000000	46,575100
1246,000000	46,504800
1245,000000	46,411700
1244,000000	46,335300
1243,000000	46,246900
1242,000000	46,131300
1241,000000	45,997800
1240,000000	45,889200
1239,000000	45,784200
1238,000000	45,681400
1237,000000	45,596600
1236,000000	45,475300
1235,000000	45,375700
1234,000000	45,251200
1233,000000	45,136900
1232,000000	44,990000
1231,000000	44,843300
1230,000000	44,697100
1229,000000	44,519500
1228,000000	44,399900
1227,000000	44,267600
1226,000000	44,137800
1225,000000	43,991100
1224,000000	43,862400
1223,000000	43,724200
1222,000000	43,578500
1221,000000	43,469800
1220,000000	43,344500
1219,000000	43,224900
1218,000000	43,086800
1217,000000	42,969700
1216,000000	42,852800
1215,000000	42,742900
1214,000000	42,667300
1213,000000	42,599400
1212,000000	42,517600
1211,000000	42,439100
1210,000000	42,349000
1209,000000	42,299200
1208,000000	42,262400
1207,000000	42,190600
1206,000000	42,130400
1205,000000	42,123800
1204,000000	42,097000
1203,000000	42,087800
1202,000000	42,089300
1201,000000	42,069900
1200,000000	41,995700
1199,000000	41,920900
1198,000000	41,873000
1197,000000	41,803400
1196,000000	41,669200
1195,000000	41,512700
1194,000000	41,294100
1193,000000	41,055800
1192,000000	40,779400
1191,000000	40,475900
1190,000000	40,208300
1189,000000	39,965600
1188,000000	39,733200
1187,000000	39,641500
1186,000000	39,601100
1185,000000	39,676200
1184,000000	39,836000
1183,000000	40,051700
1182,000000	40,357100
1181,000000	40,692900
1180,000000	40,994500
1179,000000	41,284700
1178,000000	41,566100
1177,000000	41,812600
1176,000000	42,046400
1175,000000	42,237300
1174,000000	42,433600
1173,000000	42,605800
1172,000000	42,843300
1171,000000	43,071700
1170,000000	43,300300
1169,000000	43,510900
1168,000000	43,721500
1167,000000	43,950000
1166,000000	44,137900
1165,000000	44,376300
1164,000000	44,615500
1163,000000	44,867200
1162,000000	45,081100
1161,000000	45,281900
1160,000000	45,477600
1159,000000	45,693900
1158,000000	45,897100
1157,000000	46,082100
1156,000000	46,246700
1155,000000	46,327700
1154,000000	46,414000
1153,000000	46,520600
1152,000000	46,546300
1151,000000	46,510800
1150,000000	46,509900
1149,000000	46,493400
1148,000000	46,490200
1147,000000	46,460400
1146,000000	46,545900
1145,000000	46,644000
1144,000000	46,789800
1143,000000	46,961100
1142,000000	47,117700
1141,000000	47,358700
1140,000000	47,585800
1139,000000	47,792900
1138,000000	47,982400
1137,000000	48,183700
1136,000000	48,358500
1135,000000	48,670700
1134,000000	48,966500
1133,000000	49,172500
1132,000000	49,279200
1131,000000	49,419600
1130,000000	49,558900
1129,000000	49,705100
1128,000000	49,819000
1127,000000	49,845300
1126,000000	49,901600
1125,000000	49,945000
1124,000000	49,996300
1123,000000	50,040000
1122,000000	50,101600
1121,000000	50,108300
1120,000000	50,116400
1119,000000	50,118600
1118,000000	50,114800
1117,000000	50,109700
1116,000000	50,068100
1115,000000	50,029500
1114,000000	49,980100
1113,000000	49,943900
1112,000000	49,926300
1111,000000	49,892400
1110,000000	49,895000
1109,000000	49,890100
1108,000000	49,861900
1107,000000	49,817900
1106,000000	49,776400
1105,000000	49,744600
1104,000000	49,687000
1103,000000	49,650100
1102,000000	49,605800
1101,000000	49,581300
1100,000000	49,543800
1099,000000	49,495300
1098,000000	49,439900
1097,000000	49,375500
1096,000000	49,299500
1095,000000	49,262700
1094,000000	49,214800
1093,000000	49,162300
1092,000000	49,103800
1091,000000	49,054500
1090,000000	48,982700
1089,000000	48,927900
1088,000000	48,874100
1087,000000	48,819200
1086,000000	48,743500
1085,000000	48,671000
1084,000000	48,599100
1083,000000	48,541700
1082,000000	48,506000
1081,000000	48,463200
1080,000000	48,414000
1079,000000	48,346200
1078,000000	48,282700
1077,000000	48,228100
1076,000000	48,180200
1075,000000	48,126600
1074,000000	48,064800
1073,000000	47,998100
1072,000000	47,939300
1071,000000	47,875700
1070,000000	47,832700
1069,000000	47,788200
1068,000000	47,730700
1067,000000	47,670300
1066,000000	47,599600
1065,000000	47,520200
1064,000000	47,439700
1063,000000	47,374700
1062,000000	47,319600
1061,000000	47,267700
1060,000000	47,201000
1059,000000	47,135400
1058,000000	47,076700
1057,000000	47,003200
1056,000000	46,954500
1055,000000	46,869000
1054,000000	46,777700
1053,000000	46,714800
1052,000000	46,649500
1051,000000	46,595000
1050,000000	46,535000
1049,000000	46,463000
1048,000000	46,402400
1047,000000	46,339400
1046,000000	46,271200
1045,000000	46,210000
1044,000000	46,144800
1043,000000	46,070600
1042,000000	46,014500
1041,000000	45,977800
1040,000000	45,926700
1039,000000	45,844900
1038,000000	45,769500
1037,000000	45,700100
1036,000000	45,641300
1035,000000	45,583800
1034,000000	45,529600
1033,000000	45,478600
1032,000000	45,418800
1031,000000	45,370400
1030,000000	45,315700
1029,000000	45,236400
1028,000000	45,159700
1027,000000	45,085800
1026,000000	45,025800
1025,000000	44,961100
1024,000000	44,883200
1023,000000	44,798200
1022,000000	44,707000
1021,000000	44,619600
1020,000000	44,551600
1019,000000	44,477100
1018,000000	44,418100
1017,000000	44,353200
1016,000000	44,272600
1015,000000	44,226400
1014,000000	44,190800
1013,000000	44,145300
1012,000000	44,093600
1011,000000	44,045000
1010,000000	44,014000
1009,000000	43,981000
1008,000000	43,936800
1007,000000	43,903200
1006,000000	43,860200
1005,000000	43,801900
1004,000000	43,742500
1003,000000	43,683000
1002,000000	43,632400
1001,000000	43,594400
1000,000000	43,555900
999,000000	43,528500
998,000000	43,509400
997,000000	43,473800
996,000000	43,431600
995,000000	43,380700
994,000000	43,344100
993,000000	43,312400
992,000000	43,269900
991,000000	43,232100
990,000000	43,202400
989,000000	43,175100
988,000000	43,152600
987,000000	43,138300
986,000000	43,106800
985,000000	43,069600
984,000000	43,029700
983,000000	43,005600
982,000000	42,984400
981,000000	42,957000
980,000000	42,915900
979,000000	42,891500
978,000000	42,852300
977,000000	42,838000
976,000000	42,820100
975,000000	42,785000
974,000000	42,744800
973,000000	42,703000
972,000000	42,683400
971,000000	42,625800
970,000000	42,591900
969,000000	42,574300
968,000000	42,521500
967,000000	42,480800
966,000000	42,449500
965,000000	42,442200
964,000000	42,422900
963,000000	42,392100
962,000000	42,373100
961,000000	42,350800
960,000000	42,321300
959,000000	42,298300
958,000000	42,256300
957,000000	42,239600
956,000000	42,215900
955,000000	42,214600
954,000000	42,196500
953,000000	42,164200
952,000000	42,145100
951,000000	42,112700
950,000000	42,077500
949,000000	42,048900
948,000000	41,993900
947,000000	41,970200
946,000000	41,960100
945,000000	41,934900
944,000000	41,895500
943,000000	41,868900
942,000000	41,840700
941,000000	41,842600
940,000000	41,812600
939,000000	41,762700
938,000000	41,733900
937,000000	41,749900
936,000000	41,790500
935,000000	41,797700
934,000000	41,837800
933,000000	41,892100
932,000000	41,900300
931,000000	41,868400
930,000000	41,870500
929,000000	41,868400
928,000000	41,840000
927,000000	41,771400
926,000000	41,764100
925,000000	41,813500
924,000000	41,801000
923,000000	41,794700
922,000000	41,785900
921,000000	41,816600
920,000000	41,848500
919,000000	41,865300
918,000000	41,914800
917,000000	41,921100
916,000000	41,922900
915,000000	41,919600
914,000000	41,969700
913,000000	41,996200
912,000000	42,035900
911,000000	42,069400
910,000000	42,101500
909,000000	42,150200
908,000000	42,207800
907,000000	42,218800
906,000000	42,261300
905,000000	42,409900
904,000000	42,485400
903,000000	42,605600
902,000000	42,689100
901,000000	42,798900
900,000000	42,860800
899,000000	42,969200
898,000000	43,085400
897,000000	43,201300
896,000000	43,288400
895,000000	43,377600
894,000000	43,498100
893,000000	43,621900
892,000000	43,742400
891,000000	43,922300
890,000000	44,050500
889,000000	44,163100
888,000000	44,271900
887,000000	44,410800
886,000000	44,519200
885,000000	44,627000
884,000000	44,777400
883,000000	44,984900
882,000000	45,120500
881,000000	45,273000
880,000000	45,424000
879,000000	45,636900
878,000000	45,782700
877,000000	45,909000
876,000000	46,078000
875,000000	46,315800
874,000000	46,524700
873,000000	46,690900
872,000000	46,885600
871,000000	47,026800
870,000000	47,226900
869,000000	47,452900
868,000000	47,655000
867,000000	47,865900
866,000000	48,061300
865,000000	48,308600
864,000000	48,507800
863,000000	48,750900
862,000000	48,985000
861,000000	49,233900
860,000000	49,445700
859,000000	49,675100
858,000000	49,317400
857,000000	46,164800
856,000000	46,000700
855,000000	45,881100
854,000000	45,846000
853,000000	46,132700
852,000000	46,070600
851,000000	46,253500
850,000000	46,231900
849,000000	46,544200
848,000000	46,429100
847,000000	46,934000
846,000000	46,696300
845,000000	46,790100
844,000000	46,810900
843,000000	46,943800
842,000000	47,412500
841,000000	47,448600
840,000000	47,258900
839,000000	47,394100
838,000000	47,526400
837,000000	47,655300
836,000000	47,613700
835,000000	47,680800
834,000000	47,806000
833,000000	48,039200
832,000000	47,992300
831,000000	48,050000
830,000000	48,179900
829,000000	48,170600
828,000000	48,284000
827,000000	48,402700
826,000000	48,507300
825,000000	48,627900
824,000000	48,689100
823,000000	48,715900
822,000000	48,824700
821,000000	48,881000
820,000000	48,942800
819,000000	49,066400
818,000000	49,180600
817,000000	49,190900
816,000000	49,406800
815,000000	49,513900
814,000000	49,575200
813,000000	49,638800
812,000000	49,787800
811,000000	49,873400
810,000000	49,975000
809,000000	50,067200
808,000000	50,217100
807,000000	50,364600
806,000000	50,518900
805,000000	50,690500
804,000000	50,802900
803,000000	50,885100
802,000000	51,107000
801,000000	51,181000
800,000000	51,186200
799,000000	51,388800
798,000000	51,489800
797,000000	51,474100
796,000000	51,570400
795,000000	51,756300
794,000000	51,775800
793,000000	51,916700
792,000000	52,035700
791,000000	52,097400
790,000000	52,170700
789,000000	52,308500
788,000000	52,386100
787,000000	52,441700
786,000000	52,543100
785,000000	52,539700
784,000000	52,674600
783,000000	52,765300
782,000000	52,808600
781,000000	52,840200
780,000000	52,904900
779,000000	52,967000
778,000000	52,954200
777,000000	52,993700
776,000000	52,998700
775,000000	53,064600
774,000000	53,118900
773,000000	53,128700
772,000000	53,176000
771,000000	53,111600
770,000000	53,110500
769,000000	53,125600
768,000000	53,170800
767,000000	53,200700
766,000000	53,173100
765,000000	53,136200
764,000000	53,168000
763,000000	53,175300
762,000000	53,138900
761,000000	53,151800
760,000000	53,216800
759,000000	53,231800
758,000000	53,132200
757,000000	53,040100
756,000000	53,033500
755,000000	53,014200
754,000000	52,946600
753,000000	52,900800
752,000000	52,898000
751,000000	52,897400
750,000000	52,843600
749,000000	52,754400
748,000000	52,676300
747,000000	52,591700
746,000000	52,550600
745,000000	52,506500
744,000000	52,422600
743,000000	52,366500
742,000000	52,316400
741,000000	52,274400
740,000000	52,188600
739,000000	52,092400
738,000000	51,988100
737,000000	51,886500
736,000000	51,793200
735,000000	51,692800
734,000000	51,624500
733,000000	51,424400
732,000000	51,220200
731,000000	51,159600
730,000000	51,082700
729,000000	50,926400
728,000000	50,777000
727,000000	50,610500
726,000000	50,447100
725,000000	50,264400
724,000000	50,098600
723,000000	49,940100
722,000000	49,729200
721,000000	49,522400
720,000000	49,329800
719,000000	49,136400
718,000000	48,892300
717,000000	48,715600
716,000000	48,534300
715,000000	48,342700
714,000000	48,127300
713,000000	47,870200
712,000000	47,628900
711,000000	47,373400
710,000000	47,163400
709,000000	46,957100
708,000000	46,734000
707,000000	46,491300
706,000000	46,264600
705,000000	46,079400
704,000000	45,858100
703,000000	45,603600
702,000000	45,350300
701,000000	45,161700
700,000000	44,940700
699,000000	44,720900
698,000000	44,494600
697,000000	44,301100
696,000000	44,114500
695,000000	43,910200
694,000000	43,654600
693,000000	43,436400
692,000000	43,255100
691,000000	43,020300
690,000000	42,817500
689,000000	42,559300
688,000000	42,383500
687,000000	42,159800
686,000000	41,959100
685,000000	41,747100
684,000000	41,537400
683,000000	41,322200
682,000000	41,074900
681,000000	40,848000
680,000000	40,575700
679,000000	40,296900
678,000000	40,070500
677,000000	39,854000
676,000000	39,612000
675,000000	39,371900
674,000000	39,164200
673,000000	38,891500
672,000000	38,671100
671,000000	38,468600
670,000000	38,266100
669,000000	38,027700
668,000000	37,822000
667,000000	37,598300
666,000000	37,401500
665,000000	37,181800
664,000000	37,024300
663,000000	36,875300
662,000000	36,703300
661,000000	36,506800
660,000000	36,359800
659,000000	36,225900
658,000000	36,084200
657,000000	35,953500
656,000000	35,764400
655,000000	35,632600
654,000000	35,490400
653,000000	35,346900
652,000000	35,267200
651,000000	35,110000
650,000000	35,010200
649,000000	34,883000
648,000000	34,743700
647,000000	34,590300
646,000000	34,436700
645,000000	34,301700
644,000000	34,163100
643,000000	34,045200
642,000000	33,867800
641,000000	33,712700
640,000000	33,596900
639,000000	33,463400
638,000000	33,338200
637,000000	33,208800
636,000000	33,105300
635,000000	32,988700
634,000000	32,844100
633,000000	32,702000
632,000000	32,600000
631,000000	32,492800
630,000000	32,375300
629,000000	32,270700
628,000000	32,160200
627,000000	32,028300
626,000000	31,913800
625,000000	31,798200
624,000000	31,638200
623,000000	31,509500
622,000000	31,396800
621,000000	31,244200
620,000000	31,151200
619,000000	30,988800
618,000000	30,865100
617,000000	30,765100
616,000000	30,645200
615,000000	30,505300
614,000000	30,372800
613,000000	30,256400
612,000000	30,127200
611,000000	30,002400
610,000000	29,876800
609,000000	29,740200
608,000000	29,591800
607,000000	29,505900
606,000000	29,361800
605,000000	29,239700
604,000000	29,119400
603,000000	28,965200
602,000000	28,853300
601,000000	28,709000
600,000000	28,586300
599,000000	28,461700
598,000000	28,369300
597,000000	28,282400
596,000000	28,210500
595,000000	28,142500
594,000000	28,104100
593,000000	28,110800
592,000000	28,084200
591,000000	28,088700
590,000000	28,132300
589,000000	28,134600
588,000000	28,200400
587,000000	28,264300
586,000000	28,337300
585,000000	28,408100
584,000000	28,499400
583,000000	28,623000
582,000000	28,705600
581,000000	28,830600
580,000000	28,990600
579,000000	29,086000
578,000000	29,164400
577,000000	29,238600
576,000000	29,279300
575,000000	29,345900
574,000000	29,462300
573,000000	29,524900
572,000000	29,611700
571,000000	29,692500
570,000000	29,831500
569,000000	29,920700
568,000000	30,000100
567,000000	30,092400
566,000000	30,162700
565,000000	30,224500
564,000000	30,313800
563,000000	30,412500
562,000000	30,463600
561,000000	30,537800
560,000000	30,648000
559,000000	30,961500
558,000000	31,058100
557,000000	31,158600
556,000000	31,258400
555,000000	31,328300
554,000000	31,393200
553,000000	31,466700
552,000000	31,521800
551,000000	31,570200
550,000000	31,629800
549,000000	31,643600
548,000000	31,707400
547,000000	31,722100
546,000000	31,739200
545,000000	31,772100
544,000000	31,778200
543,000000	31,767600
542,000000	31,736700
541,000000	31,746800
540,000000	31,758400
539,000000	31,735500
538,000000	31,677600
537,000000	31,621600
536,000000	31,561500
535,000000	31,553000
534,000000	31,485900
533,000000	31,401100
532,000000	31,331900
531,000000	31,254800
530,000000	31,173600
529,000000	31,084200
528,000000	30,977300
527,000000	30,844800
526,000000	30,683300
525,000000	30,557300
524,000000	30,422800
523,000000	30,243000
522,000000	30,067700
521,000000	29,853400
520,000000	29,616400
519,000000	29,387600
518,000000	29,174200
517,000000	28,978800
516,000000	28,763000
515,000000	28,529000
514,000000	28,305300
513,000000	28,078900
512,000000	27,842000
511,000000	27,631700
510,000000	27,434500
509,000000	27,232500
508,000000	27,013700
507,000000	26,788300
506,000000	26,551600
505,000000	26,349600
504,000000	26,146300
503,000000	25,909100
502,000000	25,652600
501,000000	25,368000
500,000000	25,113400
499,000000	24,881100
498,000000	24,649900
497,000000	24,401700
496,000000	24,170500
495,000000	23,939200
494,000000	23,675600
493,000000	23,434600
492,000000	23,153800
491,000000	22,865600
490,000000	22,580900
489,000000	22,315000
488,000000	22,037700
487,000000	21,749700
486,000000	21,444600
485,000000	21,142400
484,000000	20,836600
483,000000	20,510000
482,000000	20,092500
481,000000	19,596400
480,000000	19,113500
479,000000	18,709300
478,000000	18,378900
477,000000	18,055200
476,000000	17,722800
475,000000	17,379800
474,000000	17,050900
473,000000	16,732500
472,000000	16,428800
471,000000	16,122200
470,000000	15,827100
469,000000	15,544200
468,000000	15,292800
467,000000	15,046900
466,000000	14,800800
465,000000	14,570600
464,000000	14,340400
463,000000	14,123500
462,000000	13,932300
461,000000	13,762500
460,000000	13,610400
459,000000	13,466800
458,000000	13,309800
457,000000	13,163500
456,000000	13,046300
455,000000	12,947300
454,000000	12,844600
453,000000	12,746900
452,000000	12,650100
451,000000	12,556700
450,000000	12,473700
449,000000	12,402000
448,000000	12,334900
447,000000	12,278000
446,000000	12,229500
445,000000	12,216800
444,000000	12,204800
443,000000	12,144800
442,000000	12,068300
441,000000	12,009000
440,000000	11,971800
439,000000	11,931800
438,000000	11,876900
437,000000	11,831400
436,000000	11,807100
435,000000	11,784100
434,000000	11,757900
433,000000	11,707600
432,000000	11,667600
431,000000	11,632400
430,000000	11,603300
429,000000	11,552000
428,000000	11,499400
427,000000	11,458700
426,000000	11,397300
425,000000	11,326100
424,000000	11,258700
423,000000	11,189700
422,000000	11,111800
421,000000	11,028100
420,000000	10,930700
419,000000	10,820000
418,000000	10,710600
417,000000	10,600300
416,000000	10,482300
415,000000	10,370200
414,000000	10,246100
413,000000	10,119900
412,000000	9,989400
411,000000	9,857500
410,000000	9,704200
409,000000	9,557400
408,000000	9,411200
407,000000	9,242300
406,000000	9,083100
405,000000	8,928600
404,000000	8,765300
403,000000	8,612200
402,000000	8,452700
401,000000	8,285600
400,000000	8,106200
399,000000	7,932000
398,000000	7,765600
397,000000	7,588400
396,000000	7,420500
395,000000	7,250900
394,000000	7,074200
393,000000	6,919200
392,000000	6,747600
391,000000	6,582900
390,000000	6,412400
389,000000	6,259100
388,000000	6,113600
387,000000	5,971100
386,000000	5,823500
385,000000	5,677400
384,000000	5,542600
383,000000	5,415500
382,000000	5,280800
381,000000	5,156300
380,000000	5,035200
379,000000	4,937200
378,000000	4,828300
377,000000	4,742700
376,000000	4,793400
375,000000	4,488800
374,000000	4,399700
373,000000	4,287500
372,000000	4,221800
371,000000	4,169500
370,000000	4,172100
369,000000	4,115300
368,000000	3,980000
367,000000	3,964400
366,000000	3,944600
365,000000	3,837000
364,000000	3,846400
363,000000	3,792700
362,000000	3,749700
361,000000	3,778900
360,000000	3,818900
359,000000	3,757300
358,000000	3,613500
357,000000	3,619800
356,000000	3,572500
355,000000	3,604700
354,000000	3,630300
353,000000	3,522500
352,000000	3,599900
351,000000	3,488000
350,000000	3,450200
349,000000	3,412100
348,000000	3,418500
347,000000	3,442800
346,000000	3,441900
345,000000	3,470300
344,000000	3,288000
343,000000	3,429800
342,000000	3,321400
341,000000	3,308400
340,000000	3,440700
339,000000	3,496500
338,000000	3,421100
337,000000	3,331500
336,000000	3,314100
335,000000	3,355100
334,000000	3,320000
333,000000	3,421100
332,000000	3,425400
331,000000	3,349600
330,000000	3,374800
329,000000	3,320800
328,000000	3,462900
327,000000	3,482000
326,000000	3,418800
325,000000	3,282000
324,000000	3,559000
323,000000	3,434700
322,000000	3,442800
321,000000	3,419000
320,000000	3,436000
319,000000	3,479200
318,000000	3,427400
317,000000	3,443600
316,000000	3,222900
315,000000	3,181400
314,000000	3,196900
313,000000	3,139600
312,000000	3,161300
311,000000	3,234300
310,000000	3,162800
309,000000	3,183000
308,000000	3,209900
307,000000	3,222800
306,000000	3,127600
305,000000	3,130300
304,000000	3,109100
303,000000	3,166400
302,000000	3,145800
301,000000	3,169600
300,000000	3,183700
299,000000	3,152200
298,000000	3,152500
297,000000	3,174100
296,000000	3,156000
295,000000	3,169500
294,000000	3,184800
293,000000	3,154000
292,000000	3,175700
291,000000	3,206400
290,000000	3,200200
289,000000	3,162400
288,000000	3,174300
287,000000	3,175300
286,000000	3,218800
285,000000	3,230800
284,000000	3,223100
283,000000	3,200100
282,000000	3,220500
281,000000	3,255300
280,000000	3,138000
279,000000	3,229100
278,000000	3,193800
277,000000	3,181600
276,000000	3,196000
275,000000	3,243000
274,000000	3,255700
273,000000	3,246700
272,000000	3,218700
271,000000	3,246200
270,000000	3,218200
269,000000	3,283900
268,000000	3,268800
267,000000	3,258900
266,000000	3,258200
265,000000	3,270900
264,000000	3,325200
263,000000	3,319500
262,000000	3,322000
261,000000	3,300200
260,000000	3,344600
259,000000	3,375200
258,000000	3,375300
257,000000	3,356400
256,000000	3,406700
255,000000	3,392100
254,000000	3,398900
253,000000	3,390400
252,000000	3,408700
251,000000	3,398700
250,000000	3,375800
