PE UV       SUBTECH     SPECTRUM    ASCII       PEDS        4.00        
   -1
CICIMAUCR0116-1.Sample.ASC
24/04/19
09:46:45.00
24/04/19
09:46:45.00
Vinicio Soto Monge
C. kalinini
250,000000
1
Lambda 1050
1050L1511233
PerkinElmer UV WinLab 6.3.2.0749 / 2.02.05 Lambda 900 UV/VIS/NIR, Aug  7 2015 09:38:08

0
0
3350/servo 860,8/2
0
0
UV/VIS
1
1
1
DoubleDePol,CommonBeamDepol,RBeamAtt,SBeamAtt,60mm sphere, WB InGaAs Detector
0
0
0
0
Program
Program
3350/servo 860,8/2
3350/0,2 860,8/0,2
3350/0,2 860,8/0,2
0
15.00
 
 
 
0
 
860,8
319,2
860,8
Front
100
on
S:100 R:100
0
0
0
0
 
0
 
 
 
0
 
 
0
0
0
0
0
 
 
 
 
0
0


0
0
#HDR
-1
-1
#GR
nm
%R
1.0
0.0
2500,000000
-1,000000
2251
8
96,409700
5,351700
#DATA
2500,000000	10,356700
2499,000000	10,205500
2498,000000	10,337400
2497,000000	10,208600
2496,000000	10,178200
2495,000000	10,145700
2494,000000	10,095200
2493,000000	10,080400
2492,000000	10,074900
2491,000000	10,004900
2490,000000	10,100900
2489,000000	10,023600
2488,000000	10,001800
2487,000000	10,044000
2486,000000	9,993800
2485,000000	10,010500
2484,000000	9,974600
2483,000000	9,972000
2482,000000	9,987800
2481,000000	9,994200
2480,000000	9,951300
2479,000000	9,952500
2478,000000	9,954100
2477,000000	10,015500
2476,000000	10,018000
2475,000000	10,001700
2474,000000	10,024300
2473,000000	10,015100
2472,000000	10,029300
2471,000000	10,028200
2470,000000	10,032400
2469,000000	10,119600
2468,000000	10,124900
2467,000000	10,175400
2466,000000	10,159600
2465,000000	10,189800
2464,000000	10,246600
2463,000000	10,279000
2462,000000	10,307100
2461,000000	10,364900
2460,000000	10,457100
2459,000000	10,498800
2458,000000	10,551900
2457,000000	10,615200
2456,000000	10,696400
2455,000000	10,767600
2454,000000	10,869400
2453,000000	10,937500
2452,000000	11,023200
2451,000000	11,115100
2450,000000	11,220300
2449,000000	11,313600
2448,000000	11,396100
2447,000000	11,493400
2446,000000	11,585600
2445,000000	11,683900
2444,000000	11,781500
2443,000000	11,880500
2442,000000	11,980400
2441,000000	12,067700
2440,000000	12,171000
2439,000000	12,259500
2438,000000	12,347300
2437,000000	12,427200
2436,000000	12,530700
2435,000000	12,616400
2434,000000	12,703500
2433,000000	12,762300
2432,000000	12,847400
2431,000000	12,908800
2430,000000	12,958000
2429,000000	13,041700
2428,000000	13,125000
2427,000000	13,171500
2426,000000	13,257600
2425,000000	13,323600
2424,000000	13,386500
2423,000000	13,444000
2422,000000	13,513100
2421,000000	13,575600
2420,000000	13,607300
2419,000000	13,652100
2418,000000	13,693700
2417,000000	13,765200
2416,000000	13,814600
2415,000000	13,847400
2414,000000	13,875100
2413,000000	13,918200
2412,000000	13,959700
2411,000000	13,995700
2410,000000	14,027400
2409,000000	14,070700
2408,000000	14,106600
2407,000000	14,136700
2406,000000	14,160600
2405,000000	14,212300
2404,000000	14,239600
2403,000000	14,268800
2402,000000	14,302400
2401,000000	14,330500
2400,000000	14,355400
2399,000000	14,377900
2398,000000	14,421500
2397,000000	14,444500
2396,000000	14,466700
2395,000000	14,510100
2394,000000	14,541700
2393,000000	14,558800
2392,000000	14,574100
2391,000000	14,598000
2390,000000	14,615100
2389,000000	14,615000
2388,000000	14,613000
2387,000000	14,622300
2386,000000	14,644000
2385,000000	14,634200
2384,000000	14,631300
2383,000000	14,630500
2382,000000	14,611700
2381,000000	14,596900
2380,000000	14,575000
2379,000000	14,563600
2378,000000	14,537300
2377,000000	14,501400
2376,000000	14,487100
2375,000000	14,471600
2374,000000	14,440600
2373,000000	14,406300
2372,000000	14,378700
2371,000000	14,334500
2370,000000	14,287400
2369,000000	14,243100
2368,000000	14,198100
2367,000000	14,150100
2366,000000	14,102800
2365,000000	14,053100
2364,000000	13,988700
2363,000000	13,914100
2362,000000	13,840200
2361,000000	13,776200
2360,000000	13,711500
2359,000000	13,648500
2358,000000	13,603200
2357,000000	13,548600
2356,000000	13,489800
2355,000000	13,449700
2354,000000	13,432500
2353,000000	13,421700
2352,000000	13,414400
2351,000000	13,415400
2350,000000	13,427000
2349,000000	13,440900
2348,000000	13,464400
2347,000000	13,497000
2346,000000	13,548800
2345,000000	13,590600
2344,000000	13,618500
2343,000000	13,655000
2342,000000	13,702400
2341,000000	13,729000
2340,000000	13,745800
2339,000000	13,770100
2338,000000	13,776200
2337,000000	13,773200
2336,000000	13,764200
2335,000000	13,742900
2334,000000	13,718200
2333,000000	13,695400
2332,000000	13,673500
2331,000000	13,639500
2330,000000	13,574500
2329,000000	13,532700
2328,000000	13,474800
2327,000000	13,408800
2326,000000	13,339500
2325,000000	13,256800
2324,000000	13,161600
2323,000000	13,073600
2322,000000	12,968000
2321,000000	12,859900
2320,000000	12,747500
2319,000000	12,622400
2318,000000	12,500300
2317,000000	12,371700
2316,000000	12,239400
2315,000000	12,094600
2314,000000	11,975800
2313,000000	11,876800
2312,000000	11,771100
2311,000000	11,670000
2310,000000	11,598600
2309,000000	11,550600
2308,000000	11,512000
2307,000000	11,478200
2306,000000	11,458100
2305,000000	11,488600
2304,000000	11,528000
2303,000000	11,579600
2302,000000	11,640300
2301,000000	11,723700
2300,000000	11,803200
2299,000000	11,902500
2298,000000	11,992600
2297,000000	12,093200
2296,000000	12,185400
2295,000000	12,273700
2294,000000	12,346900
2293,000000	12,409900
2292,000000	12,470200
2291,000000	12,520300
2290,000000	12,560900
2289,000000	12,571700
2288,000000	12,575600
2287,000000	12,589700
2286,000000	12,571800
2285,000000	12,556300
2284,000000	12,536100
2283,000000	12,520100
2282,000000	12,467600
2281,000000	12,459900
2280,000000	12,424000
2279,000000	12,404700
2278,000000	12,355000
2277,000000	12,335600
2276,000000	12,330300
2275,000000	12,308800
2274,000000	12,293800
2273,000000	12,273300
2272,000000	12,295700
2271,000000	12,351900
2270,000000	12,393700
2269,000000	12,463900
2268,000000	12,530900
2267,000000	12,634800
2266,000000	12,790400
2265,000000	12,925300
2264,000000	13,099600
2263,000000	13,306600
2262,000000	13,531700
2261,000000	13,759700
2260,000000	14,008000
2259,000000	14,271000
2258,000000	14,567900
2257,000000	14,823000
2256,000000	15,113900
2255,000000	15,382800
2254,000000	15,669100
2253,000000	15,943800
2252,000000	16,188200
2251,000000	16,428700
2250,000000	16,676000
2249,000000	16,903500
2248,000000	17,101700
2247,000000	17,312400
2246,000000	17,484100
2245,000000	17,632500
2244,000000	17,791500
2243,000000	17,932400
2242,000000	18,068800
2241,000000	18,184500
2240,000000	18,277600
2239,000000	18,401400
2238,000000	18,481600
2237,000000	18,534700
2236,000000	18,631700
2235,000000	18,663100
2234,000000	18,723700
2233,000000	18,734300
2232,000000	18,773500
2231,000000	18,786600
2230,000000	18,794100
2229,000000	18,794600
2228,000000	18,782000
2227,000000	18,772300
2226,000000	18,729600
2225,000000	18,717700
2224,000000	18,666000
2223,000000	18,634400
2222,000000	18,581300
2221,000000	18,516800
2220,000000	18,484400
2219,000000	18,419000
2218,000000	18,346300
2217,000000	18,302700
2216,000000	18,236800
2215,000000	18,180100
2214,000000	18,128700
2213,000000	18,081400
2212,000000	18,025600
2211,000000	17,957500
2210,000000	17,926100
2209,000000	17,888900
2208,000000	17,841400
2207,000000	17,796000
2206,000000	17,783500
2205,000000	17,753700
2204,000000	17,712500
2203,000000	17,687000
2202,000000	17,661500
2201,000000	17,627600
2200,000000	17,606000
2199,000000	17,579300
2198,000000	17,554700
2197,000000	17,542100
2196,000000	17,541000
2195,000000	17,521200
2194,000000	17,506200
2193,000000	17,471300
2192,000000	17,459700
2191,000000	17,432800
2190,000000	17,427500
2189,000000	17,428700
2188,000000	17,407900
2187,000000	17,387200
2186,000000	17,369500
2185,000000	17,339900
2184,000000	17,317200
2183,000000	17,293300
2182,000000	17,277500
2181,000000	17,285300
2180,000000	17,262900
2179,000000	17,239400
2178,000000	17,235100
2177,000000	17,228400
2176,000000	17,225100
2175,000000	17,224100
2174,000000	17,237900
2173,000000	17,257000
2172,000000	17,267000
2171,000000	17,269800
2170,000000	17,304300
2169,000000	17,313700
2168,000000	17,335200
2167,000000	17,376500
2166,000000	17,416200
2165,000000	17,445900
2164,000000	17,490900
2163,000000	17,531600
2162,000000	17,568000
2161,000000	17,626200
2160,000000	17,670200
2159,000000	17,730200
2158,000000	17,789800
2157,000000	17,864400
2156,000000	17,942000
2155,000000	18,001300
2154,000000	18,085000
2153,000000	18,155700
2152,000000	18,222800
2151,000000	18,308200
2150,000000	18,395100
2149,000000	18,469100
2148,000000	18,548100
2147,000000	18,632400
2146,000000	18,701000
2145,000000	18,756200
2144,000000	18,839100
2143,000000	18,915200
2142,000000	18,975600
2141,000000	19,042600
2140,000000	19,127200
2139,000000	19,192700
2138,000000	19,238800
2137,000000	19,298400
2136,000000	19,349000
2135,000000	19,406300
2134,000000	19,461400
2133,000000	19,501300
2132,000000	19,544300
2131,000000	19,572700
2130,000000	19,599600
2129,000000	19,641600
2128,000000	19,674000
2127,000000	19,691300
2126,000000	19,717600
2125,000000	19,723900
2124,000000	19,733300
2123,000000	19,742800
2122,000000	19,756200
2121,000000	19,752700
2120,000000	19,740000
2119,000000	19,746600
2118,000000	19,746900
2117,000000	19,740500
2116,000000	19,718200
2115,000000	19,702400
2114,000000	19,683500
2113,000000	19,663400
2112,000000	19,631300
2111,000000	19,614100
2110,000000	19,593700
2109,000000	19,566200
2108,000000	19,547100
2107,000000	19,527400
2106,000000	19,508700
2105,000000	19,483600
2104,000000	19,455000
2103,000000	19,428000
2102,000000	19,394900
2101,000000	19,368000
2100,000000	19,351600
2099,000000	19,336200
2098,000000	19,323500
2097,000000	19,310400
2096,000000	19,291800
2095,000000	19,274200
2094,000000	19,262700
2093,000000	19,248000
2092,000000	19,246700
2091,000000	19,242500
2090,000000	19,231900
2089,000000	19,221800
2088,000000	19,208900
2087,000000	19,202800
2086,000000	19,188800
2085,000000	19,174400
2084,000000	19,145700
2083,000000	19,108400
2082,000000	19,079700
2081,000000	19,050700
2080,000000	19,005500
2079,000000	18,951500
2078,000000	18,899400
2077,000000	18,840700
2076,000000	18,777400
2075,000000	18,718900
2074,000000	18,656600
2073,000000	18,593900
2072,000000	18,512600
2071,000000	18,419600
2070,000000	18,339800
2069,000000	18,264900
2068,000000	18,181000
2067,000000	18,096200
2066,000000	18,014600
2065,000000	17,932800
2064,000000	17,857600
2063,000000	17,771800
2062,000000	17,684900
2061,000000	17,622100
2060,000000	17,559500
2059,000000	17,511000
2058,000000	17,470200
2057,000000	17,437000
2056,000000	17,428200
2055,000000	17,435100
2054,000000	17,466900
2053,000000	17,495200
2052,000000	17,559700
2051,000000	17,640000
2050,000000	17,736900
2049,000000	17,854800
2048,000000	17,986300
2047,000000	18,133200
2046,000000	18,300900
2045,000000	18,445500
2044,000000	18,634600
2043,000000	18,808600
2042,000000	18,985000
2041,000000	19,157900
2040,000000	19,348500
2039,000000	19,522900
2038,000000	19,688200
2037,000000	19,843400
2036,000000	19,990600
2035,000000	20,149300
2034,000000	20,276300
2033,000000	20,412900
2032,000000	20,548100
2031,000000	20,674200
2030,000000	20,763100
2029,000000	20,860800
2028,000000	20,976700
2027,000000	21,071400
2026,000000	21,173200
2025,000000	21,259100
2024,000000	21,350300
2023,000000	21,421700
2022,000000	21,500000
2021,000000	21,569900
2020,000000	21,640700
2019,000000	21,697300
2018,000000	21,755100
2017,000000	21,782300
2016,000000	21,813800
2015,000000	21,877600
2014,000000	21,916200
2013,000000	21,965200
2012,000000	21,996000
2011,000000	22,020800
2010,000000	22,027900
2009,000000	22,039600
2008,000000	22,050600
2007,000000	22,061000
2006,000000	22,045600
2005,000000	22,043800
2004,000000	22,026100
2003,000000	21,996800
2002,000000	21,979200
2001,000000	21,939800
2000,000000	21,895200
1999,000000	21,849600
1998,000000	21,790900
1997,000000	21,760900
1996,000000	21,690500
1995,000000	21,630100
1994,000000	21,579800
1993,000000	21,520400
1992,000000	21,429300
1991,000000	21,354300
1990,000000	21,270500
1989,000000	21,178600
1988,000000	21,111800
1987,000000	21,007600
1986,000000	20,903000
1985,000000	20,821000
1984,000000	20,734700
1983,000000	20,635200
1982,000000	20,535700
1981,000000	20,439800
1980,000000	20,351400
1979,000000	20,254900
1978,000000	20,153900
1977,000000	20,058100
1976,000000	19,959500
1975,000000	19,877600
1974,000000	19,769500
1973,000000	19,675300
1972,000000	19,606300
1971,000000	19,501900
1970,000000	19,413500
1969,000000	19,324000
1968,000000	19,255200
1967,000000	19,158600
1966,000000	19,060600
1965,000000	18,980700
1964,000000	18,898600
1963,000000	18,826200
1962,000000	18,714400
1961,000000	18,641300
1960,000000	18,556000
1959,000000	18,470900
1958,000000	18,359900
1957,000000	18,286500
1956,000000	18,200000
1955,000000	18,138800
1954,000000	18,040600
1953,000000	17,960500
1952,000000	17,859700
1951,000000	17,811000
1950,000000	17,703200
1949,000000	17,659000
1948,000000	17,604800
1947,000000	17,528900
1946,000000	17,495700
1945,000000	17,435100
1944,000000	17,409000
1943,000000	17,361700
1942,000000	17,358300
1941,000000	17,319300
1940,000000	17,312700
1939,000000	17,318900
1938,000000	17,304400
1937,000000	17,332900
1936,000000	17,329700
1935,000000	17,372700
1934,000000	17,418300
1933,000000	17,456700
1932,000000	17,527700
1931,000000	17,608000
1930,000000	17,694500
1929,000000	17,810300
1928,000000	17,906200
1927,000000	18,013100
1926,000000	18,137800
1925,000000	18,276600
1924,000000	18,421900
1923,000000	18,579400
1922,000000	18,764500
1921,000000	18,968500
1920,000000	19,193700
1919,000000	19,366600
1918,000000	19,570900
1917,000000	19,758700
1916,000000	19,986600
1915,000000	20,256300
1914,000000	20,572300
1913,000000	20,868500
1912,000000	21,148100
1911,000000	21,413900
1910,000000	21,649700
1909,000000	21,925100
1908,000000	22,248500
1907,000000	22,615600
1906,000000	23,025400
1905,000000	23,437100
1904,000000	23,785200
1903,000000	24,151700
1902,000000	24,522900
1901,000000	24,948300
1900,000000	25,384300
1899,000000	25,813400
1898,000000	26,251200
1897,000000	26,632900
1896,000000	26,995400
1895,000000	27,389400
1894,000000	27,809400
1893,000000	28,275100
1892,000000	28,776800
1891,000000	29,235000
1890,000000	29,669400
1889,000000	30,134500
1888,000000	30,553700
1887,000000	31,012700
1886,000000	31,508000
1885,000000	32,047000
1884,000000	32,586200
1883,000000	33,108600
1882,000000	33,604600
1881,000000	34,101400
1880,000000	34,538800
1879,000000	34,993100
1878,000000	35,439900
1877,000000	35,820000
1876,000000	36,201100
1875,000000	36,578700
1874,000000	36,912900
1873,000000	37,231600
1872,000000	37,523900
1871,000000	37,776000
1870,000000	37,999100
1869,000000	38,196100
1868,000000	38,351500
1867,000000	38,457600
1866,000000	38,552300
1865,000000	38,650300
1864,000000	38,760300
1863,000000	38,861800
1862,000000	38,955100
1861,000000	39,035900
1860,000000	39,116200
1859,000000	39,168100
1858,000000	39,187700
1857,000000	39,208600
1856,000000	39,217000
1855,000000	39,237900
1854,000000	39,233700
1853,000000	39,186700
1852,000000	39,180100
1851,000000	39,168000
1850,000000	39,152200
1849,000000	39,149900
1848,000000	39,121900
1847,000000	39,024800
1846,000000	38,932300
1845,000000	38,912200
1844,000000	38,887700
1843,000000	38,914100
1842,000000	38,927600
1841,000000	38,862200
1840,000000	38,794200
1839,000000	38,738900
1838,000000	38,705300
1837,000000	38,651000
1836,000000	38,589000
1835,000000	38,505900
1834,000000	38,412500
1833,000000	38,357200
1832,000000	38,315200
1831,000000	38,263500
1830,000000	38,195900
1829,000000	38,128800
1828,000000	38,061900
1827,000000	38,000400
1826,000000	37,940900
1825,000000	37,892000
1824,000000	37,863500
1823,000000	37,901900
1822,000000	37,923000
1821,000000	37,896900
1820,000000	37,859400
1819,000000	37,817000
1818,000000	37,806300
1817,000000	37,806900
1816,000000	37,812500
1815,000000	37,789400
1814,000000	37,782000
1813,000000	37,774800
1812,000000	37,754600
1811,000000	37,704600
1810,000000	37,661900
1809,000000	37,630700
1808,000000	37,588800
1807,000000	37,545500
1806,000000	37,498300
1805,000000	37,445500
1804,000000	37,399600
1803,000000	37,371300
1802,000000	37,347200
1801,000000	37,296300
1800,000000	37,221800
1799,000000	37,158500
1798,000000	37,124300
1797,000000	37,092800
1796,000000	37,061200
1795,000000	37,004700
1794,000000	36,949100
1793,000000	36,902500
1792,000000	36,862500
1791,000000	36,810400
1790,000000	36,759400
1789,000000	36,708400
1788,000000	36,662100
1787,000000	36,627000
1786,000000	36,575300
1785,000000	36,501400
1784,000000	36,432400
1783,000000	36,346900
1782,000000	36,273300
1781,000000	36,196700
1780,000000	36,117600
1779,000000	36,036000
1778,000000	35,933800
1777,000000	35,805700
1776,000000	35,706200
1775,000000	35,592200
1774,000000	35,455000
1773,000000	35,311200
1772,000000	35,184700
1771,000000	35,047000
1770,000000	34,882600
1769,000000	34,756300
1768,000000	34,646400
1767,000000	34,523600
1766,000000	34,436100
1765,000000	34,385300
1764,000000	34,343000
1763,000000	34,330700
1762,000000	34,359100
1761,000000	34,399400
1760,000000	34,456300
1759,000000	34,512500
1758,000000	34,574100
1757,000000	34,619200
1756,000000	34,667500
1755,000000	34,725400
1754,000000	34,731400
1753,000000	34,737500
1752,000000	34,715100
1751,000000	34,682900
1750,000000	34,640400
1749,000000	34,565700
1748,000000	34,481300
1747,000000	34,371500
1746,000000	34,236800
1745,000000	34,076600
1744,000000	33,896700
1743,000000	33,688500
1742,000000	33,455400
1741,000000	33,217100
1740,000000	32,974200
1739,000000	32,733700
1738,000000	32,500400
1737,000000	32,324200
1736,000000	32,168500
1735,000000	32,077000
1734,000000	32,008400
1733,000000	31,993600
1732,000000	32,014400
1731,000000	32,046200
1730,000000	32,118300
1729,000000	32,203800
1728,000000	32,253100
1727,000000	32,314800
1726,000000	32,394800
1725,000000	32,436400
1724,000000	32,480500
1723,000000	32,544100
1722,000000	32,655100
1721,000000	32,738500
1720,000000	32,859800
1719,000000	33,012300
1718,000000	33,162000
1717,000000	33,344500
1716,000000	33,501900
1715,000000	33,671800
1714,000000	33,832400
1713,000000	33,958500
1712,000000	34,077100
1711,000000	34,199700
1710,000000	34,259500
1709,000000	34,301900
1708,000000	34,342500
1707,000000	34,381600
1706,000000	34,391700
1705,000000	34,368900
1704,000000	34,344200
1703,000000	34,284000
1702,000000	34,179400
1701,000000	34,061600
1700,000000	33,952900
1699,000000	33,852200
1698,000000	33,728700
1697,000000	33,675900
1696,000000	33,639000
1695,000000	33,650900
1694,000000	33,703100
1693,000000	33,799600
1692,000000	33,907400
1691,000000	34,011900
1690,000000	34,089900
1689,000000	34,174300
1688,000000	34,225300
1687,000000	34,293400
1686,000000	34,387400
1685,000000	34,518900
1684,000000	34,749300
1683,000000	35,094300
1682,000000	35,512500
1681,000000	36,025400
1680,000000	36,553400
1679,000000	37,097200
1678,000000	37,587100
1677,000000	38,017500
1676,000000	38,432100
1675,000000	38,789100
1674,000000	39,125600
1673,000000	39,415100
1672,000000	39,687500
1671,000000	39,924100
1670,000000	40,168200
1669,000000	40,371300
1668,000000	40,561400
1667,000000	40,752000
1666,000000	40,892900
1665,000000	41,031600
1664,000000	41,157300
1663,000000	41,275600
1662,000000	41,377000
1661,000000	41,477500
1660,000000	41,566500
1659,000000	41,623700
1658,000000	41,702200
1657,000000	41,738900
1656,000000	41,778100
1655,000000	41,794200
1654,000000	41,801500
1653,000000	41,818800
1652,000000	41,818800
1651,000000	41,801900
1650,000000	41,792700
1649,000000	41,767800
1648,000000	41,741100
1647,000000	41,726100
1646,000000	41,690200
1645,000000	41,627900
1644,000000	41,594100
1643,000000	41,558300
1642,000000	41,512700
1641,000000	41,461900
1640,000000	41,423300
1639,000000	41,370000
1638,000000	41,327700
1637,000000	41,284300
1636,000000	41,226600
1635,000000	41,161800
1634,000000	41,092400
1633,000000	41,019700
1632,000000	40,960000
1631,000000	40,872900
1630,000000	40,813100
1629,000000	40,725500
1628,000000	40,652100
1627,000000	40,570900
1626,000000	40,502400
1625,000000	40,423300
1624,000000	40,335100
1623,000000	40,267900
1622,000000	40,178700
1621,000000	40,129000
1620,000000	40,058100
1619,000000	39,970100
1618,000000	39,910600
1617,000000	39,845200
1616,000000	39,782500
1615,000000	39,708300
1614,000000	39,634300
1613,000000	39,548800
1612,000000	39,483300
1611,000000	39,421700
1610,000000	39,340800
1609,000000	39,265300
1608,000000	39,177600
1607,000000	39,104700
1606,000000	39,023500
1605,000000	38,946500
1604,000000	38,853600
1603,000000	38,762100
1602,000000	38,684300
1601,000000	38,604600
1600,000000	38,526100
1599,000000	38,446600
1598,000000	38,381500
1597,000000	38,296700
1596,000000	38,211700
1595,000000	38,153000
1594,000000	38,088500
1593,000000	38,038900
1592,000000	37,983900
1591,000000	37,917600
1590,000000	37,864800
1589,000000	37,816500
1588,000000	37,754400
1587,000000	37,693900
1586,000000	37,643800
1585,000000	37,590500
1584,000000	37,543900
1583,000000	37,507100
1582,000000	37,466100
1581,000000	37,424300
1580,000000	37,400200
1579,000000	37,380000
1578,000000	37,356400
1577,000000	37,338900
1576,000000	37,340200
1575,000000	37,339700
1574,000000	37,331900
1573,000000	37,335500
1572,000000	37,352000
1571,000000	37,344400
1570,000000	37,366900
1569,000000	37,406700
1568,000000	37,422300
1567,000000	37,448600
1566,000000	37,480900
1565,000000	37,500000
1564,000000	37,520900
1563,000000	37,544200
1562,000000	37,549500
1561,000000	37,559800
1560,000000	37,563700
1559,000000	37,556600
1558,000000	37,545600
1557,000000	37,524600
1556,000000	37,495000
1555,000000	37,464300
1554,000000	37,430300
1553,000000	37,389800
1552,000000	37,334600
1551,000000	37,287600
1550,000000	37,240300
1549,000000	37,177400
1548,000000	37,120900
1547,000000	37,067100
1546,000000	37,019100
1545,000000	36,988800
1544,000000	36,948200
1543,000000	36,920400
1542,000000	36,891300
1541,000000	36,867700
1540,000000	36,847200
1539,000000	36,824700
1538,000000	36,806900
1537,000000	36,780500
1536,000000	36,759100
1535,000000	36,746300
1534,000000	36,711000
1533,000000	36,685500
1532,000000	36,656900
1531,000000	36,626200
1530,000000	36,576800
1529,000000	36,533200
1528,000000	36,495400
1527,000000	36,460300
1526,000000	36,425900
1525,000000	36,378500
1524,000000	36,337100
1523,000000	36,282600
1522,000000	36,227500
1521,000000	36,191200
1520,000000	36,155300
1519,000000	36,098600
1518,000000	36,047400
1517,000000	35,982700
1516,000000	35,923400
1515,000000	35,875500
1514,000000	35,825300
1513,000000	35,775600
1512,000000	35,709600
1511,000000	35,646000
1510,000000	35,589200
1509,000000	35,512900
1508,000000	35,444400
1507,000000	35,409200
1506,000000	35,344500
1505,000000	35,280300
1504,000000	35,226000
1503,000000	35,169500
1502,000000	35,127000
1501,000000	35,078800
1500,000000	35,027700
1499,000000	34,993700
1498,000000	34,971600
1497,000000	34,952100
1496,000000	34,923200
1495,000000	34,908300
1494,000000	34,898000
1493,000000	34,874200
1492,000000	34,881200
1491,000000	34,872300
1490,000000	34,869800
1489,000000	34,862900
1488,000000	34,880600
1487,000000	34,877100
1486,000000	34,873400
1485,000000	34,875300
1484,000000	34,875900
1483,000000	34,893100
1482,000000	34,923900
1481,000000	34,924900
1480,000000	34,948200
1479,000000	34,980300
1478,000000	35,024700
1477,000000	35,050300
1476,000000	35,092800
1475,000000	35,156900
1474,000000	35,219700
1473,000000	35,287700
1472,000000	35,352500
1471,000000	35,404800
1470,000000	35,432900
1469,000000	35,471300
1468,000000	35,554400
1467,000000	35,606300
1466,000000	35,659800
1465,000000	35,736400
1464,000000	35,805800
1463,000000	35,857000
1462,000000	35,958300
1461,000000	36,039300
1460,000000	36,123700
1459,000000	36,187500
1458,000000	36,312500
1457,000000	36,398300
1456,000000	36,513700
1455,000000	36,600700
1454,000000	36,699100
1453,000000	36,830300
1452,000000	36,959800
1451,000000	37,087800
1450,000000	37,171000
1449,000000	37,243300
1448,000000	37,390800
1447,000000	37,534700
1446,000000	37,662600
1445,000000	37,761200
1444,000000	37,863600
1443,000000	38,016000
1442,000000	38,161500
1441,000000	38,276100
1440,000000	38,441600
1439,000000	38,565500
1438,000000	38,709000
1437,000000	38,833800
1436,000000	38,974500
1435,000000	39,157800
1434,000000	39,285700
1433,000000	39,489700
1432,000000	39,656700
1431,000000	39,778000
1430,000000	39,996700
1429,000000	40,181600
1428,000000	40,402500
1427,000000	40,589400
1426,000000	40,854900
1425,000000	41,116900
1424,000000	41,374800
1423,000000	41,644800
1422,000000	41,870900
1421,000000	42,176800
1420,000000	42,512900
1419,000000	42,753900
1418,000000	43,008300
1417,000000	43,260800
1416,000000	43,589600
1415,000000	43,963100
1414,000000	44,253100
1413,000000	44,524800
1412,000000	44,827300
1411,000000	45,228400
1410,000000	45,682800
1409,000000	46,036300
1408,000000	46,440400
1407,000000	46,832300
1406,000000	47,292400
1405,000000	47,727700
1404,000000	48,086400
1403,000000	48,438100
1402,000000	48,928800
1401,000000	49,395200
1400,000000	49,653200
1399,000000	49,827900
1398,000000	50,084700
1397,000000	50,470400
1396,000000	50,796500
1395,000000	50,943800
1394,000000	51,104700
1393,000000	51,359000
1392,000000	51,624000
1391,000000	51,840600
1390,000000	52,118600
1389,000000	52,530200
1388,000000	52,849100
1387,000000	53,166000
1386,000000	53,569600
1385,000000	54,038200
1384,000000	54,444900
1383,000000	54,813500
1382,000000	55,104900
1381,000000	55,257300
1380,000000	55,410800
1379,000000	55,559200
1378,000000	55,670400
1377,000000	55,831500
1376,000000	56,006800
1375,000000	56,178300
1374,000000	56,452200
1373,000000	56,762200
1372,000000	57,075000
1371,000000	57,354600
1370,000000	57,601300
1369,000000	57,876100
1368,000000	58,103200
1367,000000	58,283100
1366,000000	58,483800
1365,000000	58,645100
1364,000000	58,783600
1363,000000	59,017800
1362,000000	59,112300
1361,000000	59,133400
1360,000000	59,128200
1359,000000	59,259300
1358,000000	59,386100
1357,000000	59,585100
1356,000000	59,879800
1355,000000	60,245800
1354,000000	60,594800
1353,000000	60,964100
1352,000000	61,452600
1351,000000	61,873900
1350,000000	62,274300
1349,000000	62,662300
1348,000000	63,024700
1347,000000	63,317700
1346,000000	63,610900
1345,000000	63,937800
1344,000000	64,219600
1343,000000	64,482900
1342,000000	64,750500
1341,000000	64,990400
1340,000000	65,230800
1339,000000	65,462700
1338,000000	65,680100
1337,000000	65,897400
1336,000000	66,104300
1335,000000	66,285700
1334,000000	66,495100
1333,000000	66,657800
1332,000000	66,821100
1331,000000	66,998400
1330,000000	67,135600
1329,000000	67,260300
1328,000000	67,402300
1327,000000	67,530500
1326,000000	67,653800
1325,000000	67,776400
1324,000000	67,879700
1323,000000	67,983400
1322,000000	68,088200
1321,000000	68,173800
1320,000000	68,246300
1319,000000	68,334900
1318,000000	68,409500
1317,000000	68,486800
1316,000000	68,582300
1315,000000	68,641600
1314,000000	68,690100
1313,000000	68,754800
1312,000000	68,809500
1311,000000	68,867300
1310,000000	68,921300
1309,000000	68,956800
1308,000000	68,997800
1307,000000	69,030400
1306,000000	69,054400
1305,000000	69,078200
1304,000000	69,078500
1303,000000	69,079700
1302,000000	69,090800
1301,000000	69,084100
1300,000000	69,087000
1299,000000	69,093500
1298,000000	69,078600
1297,000000	69,065400
1296,000000	69,060700
1295,000000	69,040100
1294,000000	69,002800
1293,000000	68,978100
1292,000000	68,956300
1291,000000	68,935500
1290,000000	68,904100
1289,000000	68,849800
1288,000000	68,790600
1287,000000	68,731500
1286,000000	68,681100
1285,000000	68,618300
1284,000000	68,544700
1283,000000	68,497400
1282,000000	68,445400
1281,000000	68,378400
1280,000000	68,320200
1279,000000	68,262700
1278,000000	68,208300
1277,000000	68,153700
1276,000000	68,105200
1275,000000	68,062800
1274,000000	68,025200
1273,000000	67,985700
1272,000000	67,958700
1271,000000	67,935700
1270,000000	67,919600
1269,000000	67,885200
1268,000000	67,844100
1267,000000	67,810400
1266,000000	67,786200
1265,000000	67,742000
1264,000000	67,693100
1263,000000	67,641000
1262,000000	67,602300
1261,000000	67,572500
1260,000000	67,523500
1259,000000	67,490400
1258,000000	67,446100
1257,000000	67,392200
1256,000000	67,318700
1255,000000	67,271900
1254,000000	67,203400
1253,000000	67,142100
1252,000000	67,055200
1251,000000	66,978300
1250,000000	66,890300
1249,000000	66,785400
1248,000000	66,698600
1247,000000	66,593400
1246,000000	66,469700
1245,000000	66,344700
1244,000000	66,211400
1243,000000	66,093200
1242,000000	65,955700
1241,000000	65,808100
1240,000000	65,684200
1239,000000	65,558700
1238,000000	65,427500
1237,000000	65,286700
1236,000000	65,120100
1235,000000	64,976000
1234,000000	64,831000
1233,000000	64,680100
1232,000000	64,530200
1231,000000	64,377100
1230,000000	64,230400
1229,000000	64,077600
1228,000000	63,913300
1227,000000	63,760600
1226,000000	63,610300
1225,000000	63,448900
1224,000000	63,291700
1223,000000	63,146500
1222,000000	63,006100
1221,000000	62,861800
1220,000000	62,725500
1219,000000	62,592800
1218,000000	62,464900
1217,000000	62,334700
1216,000000	62,210000
1215,000000	62,105500
1214,000000	62,001900
1213,000000	61,886200
1212,000000	61,766600
1211,000000	61,671700
1210,000000	61,572400
1209,000000	61,476300
1208,000000	61,379500
1207,000000	61,304500
1206,000000	61,230500
1205,000000	61,169400
1204,000000	61,122800
1203,000000	61,083100
1202,000000	61,014900
1201,000000	60,937400
1200,000000	60,874500
1199,000000	60,739700
1198,000000	60,641100
1197,000000	60,485800
1196,000000	60,292900
1195,000000	60,051400
1194,000000	59,781400
1193,000000	59,481100
1192,000000	59,138700
1191,000000	58,801900
1190,000000	58,501300
1189,000000	58,235600
1188,000000	58,085500
1187,000000	57,993500
1186,000000	58,013500
1185,000000	58,135300
1184,000000	58,307000
1183,000000	58,583600
1182,000000	58,912200
1181,000000	59,257500
1180,000000	59,573200
1179,000000	59,869400
1178,000000	60,122100
1177,000000	60,382900
1176,000000	60,583400
1175,000000	60,791000
1174,000000	60,997700
1173,000000	61,227100
1172,000000	61,442400
1171,000000	61,663400
1170,000000	61,924900
1169,000000	62,168500
1168,000000	62,408600
1167,000000	62,662500
1166,000000	62,925400
1165,000000	63,201200
1164,000000	63,467500
1163,000000	63,716600
1162,000000	64,009200
1161,000000	64,268400
1160,000000	64,512700
1159,000000	64,747600
1158,000000	64,952400
1157,000000	65,127300
1156,000000	65,310700
1155,000000	65,450100
1154,000000	65,515600
1153,000000	65,565400
1152,000000	65,588900
1151,000000	65,590700
1150,000000	65,615800
1149,000000	65,612900
1148,000000	65,636700
1147,000000	65,707700
1146,000000	65,780900
1145,000000	65,902900
1144,000000	66,062400
1143,000000	66,252100
1142,000000	66,456200
1141,000000	66,667800
1140,000000	66,889000
1139,000000	67,102000
1138,000000	67,350600
1137,000000	67,624000
1136,000000	67,879500
1135,000000	68,125400
1134,000000	68,313500
1133,000000	68,494800
1132,000000	68,680500
1131,000000	68,847700
1130,000000	68,999300
1129,000000	69,087800
1128,000000	69,173600
1127,000000	69,241700
1126,000000	69,288200
1125,000000	69,330800
1124,000000	69,334800
1123,000000	69,354700
1122,000000	69,358400
1121,000000	69,352800
1120,000000	69,320000
1119,000000	69,316100
1118,000000	69,279200
1117,000000	69,243000
1116,000000	69,196100
1115,000000	69,157100
1114,000000	69,119300
1113,000000	69,081900
1112,000000	69,047300
1111,000000	68,999100
1110,000000	68,949900
1109,000000	68,892300
1108,000000	68,852400
1107,000000	68,800100
1106,000000	68,749600
1105,000000	68,712700
1104,000000	68,651800
1103,000000	68,590500
1102,000000	68,545100
1101,000000	68,471000
1100,000000	68,419800
1099,000000	68,362000
1098,000000	68,299300
1097,000000	68,241600
1096,000000	68,161700
1095,000000	68,088700
1094,000000	68,017200
1093,000000	67,947800
1092,000000	67,859300
1091,000000	67,786200
1090,000000	67,704400
1089,000000	67,619400
1088,000000	67,538000
1087,000000	67,440000
1086,000000	67,368300
1085,000000	67,267000
1084,000000	67,175700
1083,000000	67,090900
1082,000000	67,003500
1081,000000	66,915500
1080,000000	66,826800
1079,000000	66,745800
1078,000000	66,656200
1077,000000	66,574700
1076,000000	66,475600
1075,000000	66,384900
1074,000000	66,305800
1073,000000	66,211500
1072,000000	66,118300
1071,000000	66,035000
1070,000000	65,946100
1069,000000	65,841100
1068,000000	65,760800
1067,000000	65,670600
1066,000000	65,582300
1065,000000	65,502600
1064,000000	65,406300
1063,000000	65,315200
1062,000000	65,227500
1061,000000	65,120900
1060,000000	65,031800
1059,000000	64,940900
1058,000000	64,855100
1057,000000	64,755300
1056,000000	64,649200
1055,000000	64,575600
1054,000000	64,490300
1053,000000	64,399400
1052,000000	64,317500
1051,000000	64,248000
1050,000000	64,163200
1049,000000	64,078900
1048,000000	64,003400
1047,000000	63,929800
1046,000000	63,856300
1045,000000	63,773100
1044,000000	63,706000
1043,000000	63,650600
1042,000000	63,587700
1041,000000	63,522700
1040,000000	63,444400
1039,000000	63,373500
1038,000000	63,304000
1037,000000	63,233200
1036,000000	63,177700
1035,000000	63,122600
1034,000000	63,050500
1033,000000	62,988600
1032,000000	62,933200
1031,000000	62,860400
1030,000000	62,796900
1029,000000	62,732800
1028,000000	62,665900
1027,000000	62,605600
1026,000000	62,544400
1025,000000	62,498300
1024,000000	62,428100
1023,000000	62,356800
1022,000000	62,312800
1021,000000	62,262500
1020,000000	62,204100
1019,000000	62,148800
1018,000000	62,093300
1017,000000	62,049700
1016,000000	62,021200
1015,000000	61,983700
1014,000000	61,947500
1013,000000	61,918800
1012,000000	61,910100
1011,000000	61,907900
1010,000000	61,893000
1009,000000	61,882700
1008,000000	61,887100
1007,000000	61,890900
1006,000000	61,899700
1005,000000	61,913900
1004,000000	61,905700
1003,000000	61,899900
1002,000000	61,908500
1001,000000	61,894800
1000,000000	61,904900
999,000000	61,911400
998,000000	61,926100
997,000000	61,946300
996,000000	61,949700
995,000000	61,956300
994,000000	61,993900
993,000000	62,033200
992,000000	62,068300
991,000000	62,094400
990,000000	62,129200
989,000000	62,176800
988,000000	62,221000
987,000000	62,259000
986,000000	62,305900
985,000000	62,377200
984,000000	62,433900
983,000000	62,493300
982,000000	62,565400
981,000000	62,625500
980,000000	62,675200
979,000000	62,728000
978,000000	62,794600
977,000000	62,875200
976,000000	62,956900
975,000000	63,034300
974,000000	63,116100
973,000000	63,196900
972,000000	63,290600
971,000000	63,366000
970,000000	63,458200
969,000000	63,572200
968,000000	63,669000
967,000000	63,751000
966,000000	63,862300
965,000000	63,956900
964,000000	64,047100
963,000000	64,138600
962,000000	64,253100
961,000000	64,350600
960,000000	64,436700
959,000000	64,503700
958,000000	64,601600
957,000000	64,714500
956,000000	64,811200
955,000000	64,899400
954,000000	65,002500
953,000000	65,098600
952,000000	65,187100
951,000000	65,268700
950,000000	65,388900
949,000000	65,468800
948,000000	65,578600
947,000000	65,671000
946,000000	65,767800
945,000000	65,852900
944,000000	65,966700
943,000000	66,066700
942,000000	66,157200
941,000000	66,282000
940,000000	66,350600
939,000000	66,451700
938,000000	66,564500
937,000000	66,690700
936,000000	66,819100
935,000000	66,932600
934,000000	67,047400
933,000000	67,171500
932,000000	67,317800
931,000000	67,420600
930,000000	67,543100
929,000000	67,688000
928,000000	67,823500
927,000000	67,956800
926,000000	68,095100
925,000000	68,267600
924,000000	68,384000
923,000000	68,504500
922,000000	68,646500
921,000000	68,791500
920,000000	68,908700
919,000000	69,060600
918,000000	69,195200
917,000000	69,349000
916,000000	69,484900
915,000000	69,601700
914,000000	69,727000
913,000000	69,862200
912,000000	70,047500
911,000000	70,159200
910,000000	70,289000
909,000000	70,438200
908,000000	70,590800
907,000000	70,722700
906,000000	70,859300
905,000000	71,018800
904,000000	71,159800
903,000000	71,306500
902,000000	71,455600
901,000000	71,588000
900,000000	71,735000
899,000000	71,889600
898,000000	71,993800
897,000000	72,119200
896,000000	72,270900
895,000000	72,397500
894,000000	72,544200
893,000000	72,681300
892,000000	72,821500
891,000000	72,964100
890,000000	73,087700
889,000000	73,193800
888,000000	73,354400
887,000000	73,498900
886,000000	73,650400
885,000000	73,807200
884,000000	73,958400
883,000000	74,093400
882,000000	74,259000
881,000000	74,406300
880,000000	74,598100
879,000000	74,777200
878,000000	74,953700
877,000000	75,119300
876,000000	75,301000
875,000000	75,477000
874,000000	75,676300
873,000000	75,845100
872,000000	76,083800
871,000000	76,275600
870,000000	76,466900
869,000000	76,659400
868,000000	76,830000
867,000000	76,997000
866,000000	77,107200
865,000000	77,220800
864,000000	77,355300
863,000000	77,365700
862,000000	77,350700
861,000000	77,292800
860,000000	77,380600
859,000000	77,576600
858,000000	78,372900
857,000000	81,528100
856,000000	82,069000
855,000000	82,815100
854,000000	82,637300
853,000000	82,729200
852,000000	82,953700
851,000000	83,435000
850,000000	84,035200
849,000000	84,273000
848,000000	84,338000
847,000000	84,682000
846,000000	85,020500
845,000000	85,202200
844,000000	85,810300
843,000000	85,988400
842,000000	86,375600
841,000000	86,495300
840,000000	86,881200
839,000000	87,279600
838,000000	87,349100
837,000000	87,831300
836,000000	88,231600
835,000000	88,760800
834,000000	88,790100
833,000000	89,187600
832,000000	89,627100
831,000000	89,924600
830,000000	90,259600
829,000000	90,703400
828,000000	90,915300
827,000000	91,233500
826,000000	91,403800
825,000000	91,722100
824,000000	92,129400
823,000000	92,339400
822,000000	92,780400
821,000000	93,108200
820,000000	93,320000
819,000000	93,519000
818,000000	93,754200
817,000000	93,936400
816,000000	94,307700
815,000000	94,539000
814,000000	94,561600
813,000000	94,754200
812,000000	94,929200
811,000000	95,146700
810,000000	95,211700
809,000000	95,404200
808,000000	95,566300
807,000000	95,723400
806,000000	95,756000
805,000000	95,729700
804,000000	95,825400
803,000000	96,030900
802,000000	95,982500
801,000000	96,005900
800,000000	96,187700
799,000000	96,161100
798,000000	96,132300
797,000000	96,146200
796,000000	96,251000
795,000000	96,244700
794,000000	96,269100
793,000000	96,409700
792,000000	96,341200
791,000000	96,278300
790,000000	96,270400
789,000000	96,329600
788,000000	96,363100
787,000000	96,387400
786,000000	96,396700
785,000000	96,369300
784,000000	96,283600
783,000000	96,181900
782,000000	96,188100
781,000000	96,125300
780,000000	96,160100
779,000000	96,098000
778,000000	96,032600
777,000000	95,955900
776,000000	95,883200
775,000000	95,769800
774,000000	95,689500
773,000000	95,653300
772,000000	95,643200
771,000000	95,394200
770,000000	95,305600
769,000000	95,328500
768,000000	95,129500
767,000000	95,025800
766,000000	94,880800
765,000000	94,739700
764,000000	94,601700
763,000000	94,529600
762,000000	94,413100
761,000000	94,198500
760,000000	94,096900
759,000000	93,896900
758,000000	93,683800
757,000000	93,515000
756,000000	93,327900
755,000000	93,158500
754,000000	92,909700
753,000000	92,732500
752,000000	92,551200
751,000000	92,306300
750,000000	92,064900
749,000000	91,866400
748,000000	91,594400
747,000000	91,307400
746,000000	91,065600
745,000000	90,825800
744,000000	90,553100
743,000000	90,268300
742,000000	89,979200
741,000000	89,697200
740,000000	89,405200
739,000000	89,121700
738,000000	88,906300
737,000000	88,592300
736,000000	88,288800
735,000000	87,990300
734,000000	87,811100
733,000000	87,565000
732,000000	87,176700
731,000000	86,867200
730,000000	86,558300
729,000000	86,260200
728,000000	85,923000
727,000000	85,557400
726,000000	85,246200
725,000000	84,808100
724,000000	84,431400
723,000000	84,067500
722,000000	83,748800
721,000000	83,360000
720,000000	82,912500
719,000000	82,529700
718,000000	82,170100
717,000000	81,832500
716,000000	81,393500
715,000000	80,963200
714,000000	80,543800
713,000000	80,036500
712,000000	79,615500
711,000000	79,172700
710,000000	78,658800
709,000000	78,192100
708,000000	77,700900
707,000000	77,153500
706,000000	76,647500
705,000000	76,103600
704,000000	75,580800
703,000000	75,050100
702,000000	74,504100
701,000000	73,995500
700,000000	73,467100
699,000000	72,930700
698,000000	72,539600
697,000000	72,108300
696,000000	71,640600
695,000000	71,187500
694,000000	70,793900
693,000000	70,444900
692,000000	70,077200
691,000000	69,685900
690,000000	69,365600
689,000000	69,018700
688,000000	68,696500
687,000000	68,436400
686,000000	68,139900
685,000000	67,771300
684,000000	67,476100
683,000000	67,216500
682,000000	66,972700
681,000000	66,762900
680,000000	66,561000
679,000000	66,361300
678,000000	66,197400
677,000000	66,043100
676,000000	65,914700
675,000000	65,844700
674,000000	65,695600
673,000000	65,592800
672,000000	65,500600
671,000000	65,410100
670,000000	65,300400
669,000000	65,118300
668,000000	64,986900
667,000000	64,815300
666,000000	64,617700
665,000000	64,391500
664,000000	64,123200
663,000000	63,856800
662,000000	63,602900
661,000000	63,345200
660,000000	63,075900
659,000000	62,770700
658,000000	62,495800
657,000000	62,205700
656,000000	61,976800
655,000000	61,701800
654,000000	61,467200
653,000000	61,257800
652,000000	61,058600
651,000000	60,918100
650,000000	60,723200
649,000000	60,462300
648,000000	60,303500
647,000000	60,130600
646,000000	59,925900
645,000000	59,754100
644,000000	59,574700
643,000000	59,394200
642,000000	59,249900
641,000000	59,087900
640,000000	58,982300
639,000000	58,918400
638,000000	58,872700
637,000000	58,828600
636,000000	58,889100
635,000000	58,983200
634,000000	59,093500
633,000000	59,201400
632,000000	59,397200
631,000000	59,556700
630,000000	59,798600
629,000000	59,987300
628,000000	60,218500
627,000000	60,433800
626,000000	60,654100
625,000000	60,822600
624,000000	61,056300
623,000000	61,331900
622,000000	61,511100
621,000000	61,738500
620,000000	62,021400
619,000000	62,243600
618,000000	62,510000
617,000000	62,789400
616,000000	63,073700
615,000000	63,380400
614,000000	63,645400
613,000000	63,919000
612,000000	64,196600
611,000000	64,530100
610,000000	64,784700
609,000000	65,073800
608,000000	65,350000
607,000000	65,666200
606,000000	65,928900
605,000000	66,221600
604,000000	66,474200
603,000000	66,759700
602,000000	66,983400
601,000000	67,241500
600,000000	67,423100
599,000000	67,574300
598,000000	67,736900
597,000000	67,864400
596,000000	67,964100
595,000000	68,147600
594,000000	68,265200
593,000000	68,396700
592,000000	68,518400
591,000000	68,655200
590,000000	68,720900
589,000000	68,807100
588,000000	68,776800
587,000000	68,838100
586,000000	68,893400
585,000000	68,925900
584,000000	68,929400
583,000000	68,971400
582,000000	68,976200
581,000000	68,989700
580,000000	68,946500
579,000000	68,936600
578,000000	68,833800
577,000000	68,747100
576,000000	68,630900
575,000000	68,564500
574,000000	68,426000
573,000000	68,258000
572,000000	68,154900
571,000000	68,030100
570,000000	67,817800
569,000000	67,605800
568,000000	67,405900
567,000000	67,124600
566,000000	66,885500
565,000000	66,600400
564,000000	66,327300
563,000000	66,029400
562,000000	65,737900
561,000000	65,407700
560,000000	65,051200
559,000000	64,630900
558,000000	64,263400
557,000000	63,879400
556,000000	63,460600
555,000000	63,045000
554,000000	62,660000
553,000000	62,187700
552,000000	61,771800
551,000000	61,295900
550,000000	60,806000
549,000000	60,337700
548,000000	59,853700
547,000000	59,368100
546,000000	58,872800
545,000000	58,374500
544,000000	57,885200
543,000000	57,368000
542,000000	56,821200
541,000000	56,279000
540,000000	55,724200
539,000000	55,199600
538,000000	54,648200
537,000000	54,098600
536,000000	53,515500
535,000000	52,940500
534,000000	52,359400
533,000000	51,751700
532,000000	51,136200
531,000000	50,507300
530,000000	49,860300
529,000000	49,215800
528,000000	48,557700
527,000000	47,905300
526,000000	47,229800
525,000000	46,523500
524,000000	45,801600
523,000000	45,069300
522,000000	44,350900
521,000000	43,609400
520,000000	42,889900
519,000000	42,177800
518,000000	41,467000
517,000000	40,796100
516,000000	40,150700
515,000000	39,529300
514,000000	38,946400
513,000000	38,396900
512,000000	37,891300
511,000000	37,422500
510,000000	36,989500
509,000000	36,589600
508,000000	36,235000
507,000000	35,918800
506,000000	35,616100
505,000000	35,345000
504,000000	35,100800
503,000000	34,864800
502,000000	34,640700
501,000000	34,465800
500,000000	34,293400
499,000000	34,140300
498,000000	33,999700
497,000000	33,872600
496,000000	33,764100
495,000000	33,648400
494,000000	33,549700
493,000000	33,452700
492,000000	33,347500
491,000000	33,251100
490,000000	33,151100
489,000000	33,064200
488,000000	32,971200
487,000000	32,846400
486,000000	32,735500
485,000000	32,622000
484,000000	32,513700
483,000000	32,394600
482,000000	32,237300
481,000000	32,085500
480,000000	31,948100
479,000000	31,800000
478,000000	31,644800
477,000000	31,493400
476,000000	31,353000
475,000000	31,220900
474,000000	31,056100
473,000000	30,885700
472,000000	30,719700
471,000000	30,556500
470,000000	30,377600
469,000000	30,216100
468,000000	30,043700
467,000000	29,853300
466,000000	29,657600
465,000000	29,449100
464,000000	29,257700
463,000000	29,037900
462,000000	28,805200
461,000000	28,586400
460,000000	28,338300
459,000000	28,064100
458,000000	27,800600
457,000000	27,519800
456,000000	27,237200
455,000000	26,951600
454,000000	26,606600
453,000000	26,265500
452,000000	25,915800
451,000000	25,543900
450,000000	25,155500
449,000000	24,743800
448,000000	24,325500
447,000000	23,913000
446,000000	23,489100
445,000000	23,017300
444,000000	22,538800
443,000000	22,058400
442,000000	21,580200
441,000000	21,090600
440,000000	20,587900
439,000000	20,074200
438,000000	19,580000
437,000000	19,084600
436,000000	18,580800
435,000000	18,088800
434,000000	17,589600
433,000000	17,071800
432,000000	16,582600
431,000000	16,125700
430,000000	15,656300
429,000000	15,210100
428,000000	14,788700
427,000000	14,357800
426,000000	13,938400
425,000000	13,542800
424,000000	13,163000
423,000000	12,799900
422,000000	12,441500
421,000000	12,099200
420,000000	11,780000
419,000000	11,470500
418,000000	11,182000
417,000000	10,909100
416,000000	10,632100
415,000000	10,362200
414,000000	10,109100
413,000000	9,868500
412,000000	9,653000
411,000000	9,434000
410,000000	9,235000
409,000000	9,052100
408,000000	8,869100
407,000000	8,693800
406,000000	8,520700
405,000000	8,376000
404,000000	8,237800
403,000000	8,093500
402,000000	7,955800
401,000000	7,828100
400,000000	7,725300
399,000000	7,621200
398,000000	7,508100
397,000000	7,411200
396,000000	7,321000
395,000000	7,235200
394,000000	7,146800
393,000000	7,076800
392,000000	7,008200
391,000000	6,944300
390,000000	6,876300
389,000000	6,797400
388,000000	6,735200
387,000000	6,692000
386,000000	6,649000
385,000000	6,595900
384,000000	6,539300
383,000000	6,503000
382,000000	6,476000
381,000000	6,430000
380,000000	6,393500
379,000000	6,358800
378,000000	6,337700
377,000000	6,278300
376,000000	6,286400
375,000000	6,210400
374,000000	6,000100
373,000000	6,042700
372,000000	6,091400
371,000000	6,104200
370,000000	6,032300
369,000000	6,040800
368,000000	6,077200
367,000000	5,974000
366,000000	5,991700
365,000000	6,050400
364,000000	5,956300
363,000000	5,970000
362,000000	5,992500
361,000000	6,014600
360,000000	5,985600
359,000000	5,947000
358,000000	5,892100
357,000000	5,918800
356,000000	5,795300
355,000000	5,774200
354,000000	5,815300
353,000000	5,774000
352,000000	5,755500
351,000000	5,786100
350,000000	5,702900
349,000000	5,710500
348,000000	5,694500
347,000000	5,631800
346,000000	5,706400
345,000000	5,727300
344,000000	5,688800
343,000000	5,621400
342,000000	5,604800
341,000000	5,637600
340,000000	5,569200
339,000000	5,573400
338,000000	5,661700
337,000000	5,555500
336,000000	5,598800
335,000000	5,606300
334,000000	5,506300
333,000000	5,492100
332,000000	5,587500
331,000000	5,780500
330,000000	5,577100
329,000000	5,538500
328,000000	5,749600
327,000000	5,712700
326,000000	5,646900
325,000000	5,756700
324,000000	5,645700
323,000000	5,469600
322,000000	5,565200
321,000000	5,892000
320,000000	5,825000
319,000000	5,959100
318,000000	5,751800
317,000000	5,934000
316,000000	5,451600
315,000000	5,412900
314,000000	5,379200
313,000000	5,403600
312,000000	5,363600
311,000000	5,382800
310,000000	5,388200
309,000000	5,391700
308,000000	5,411300
307,000000	5,441500
306,000000	5,351700
305,000000	5,388600
304,000000	5,371800
303,000000	5,420300
302,000000	5,417400
301,000000	5,402500
300,000000	5,443700
299,000000	5,411200
298,000000	5,391500
297,000000	5,415900
296,000000	5,422100
295,000000	5,407400
294,000000	5,442800
293,000000	5,437300
292,000000	5,435600
291,000000	5,452900
290,000000	5,388100
289,000000	5,454600
288,000000	5,422000
287,000000	5,426900
286,000000	5,440300
285,000000	5,485000
284,000000	5,456800
283,000000	5,438300
282,000000	5,487000
281,000000	5,472700
280,000000	5,557100
279,000000	5,537500
278,000000	5,564400
277,000000	5,483300
276,000000	5,602100
275,000000	5,533100
274,000000	5,577200
273,000000	5,597900
272,000000	5,504100
271,000000	5,591100
270,000000	5,646700
269,000000	5,679700
268,000000	5,635500
267,000000	5,704900
266,000000	5,694600
265,000000	5,741700
264,000000	5,711600
263,000000	5,742700
262,000000	5,792600
261,000000	5,803100
260,000000	5,850900
259,000000	5,853400
258,000000	5,850200
257,000000	5,897500
256,000000	5,914900
255,000000	5,856900
254,000000	5,850100
253,000000	5,872200
252,000000	5,835100
251,000000	5,859800
250,000000	5,904600
