PE UV       SUBTECH     SPECTRUM    ASCII       PEDS        4.00        
   -1
CICIMAUCR0098-5.Sample.ASC
24/04/25
11:55:07.00
24/04/25
11:55:07.00
Vinicio Soto Monge
C. cupreomarginata
250,000000
1
Lambda 1050
1050L1511233
PerkinElmer UV WinLab 6.3.2.0749 / 2.02.05 Lambda 900 UV/VIS/NIR, Aug  7 2015 09:38:08

0
0
3350/servo 860,8/2
0
0
UV/VIS
1
1
1
DoubleDePol,CommonBeamDepol,RBeamAtt,SBeamAtt,60mm sphere, WB InGaAs Detector
0
0
0
0
Program
Program
3350/servo 860,8/2
3350/0,2 860,8/0,2
3350/0,2 860,8/0,2
0
15.00
 
 
 
0
 
860,8
319,2
860,8
Front
100
on
S:100 R:100
0
0
0
0
 
0
 
 
 
0
 
 
0
0
0
0
0
 
 
 
 
0
0


0
0
#HDR
-1
-1
#GR
nm
%R
1.0
0.0
2500,000000
-1,000000
2251
8
65,296400
4,773000
#DATA
2500,000000	7,017500
2499,000000	6,837700
2498,000000	6,912900
2497,000000	6,897900
2496,000000	6,905400
2495,000000	6,885000
2494,000000	6,959700
2493,000000	6,830900
2492,000000	6,834100
2491,000000	6,879900
2490,000000	6,820000
2489,000000	6,785100
2488,000000	6,817700
2487,000000	6,749000
2486,000000	6,822000
2485,000000	6,811700
2484,000000	6,793100
2483,000000	6,829700
2482,000000	6,756600
2481,000000	6,835200
2480,000000	6,791300
2479,000000	6,757600
2478,000000	6,802300
2477,000000	6,826300
2476,000000	6,826200
2475,000000	6,777600
2474,000000	6,796400
2473,000000	6,810900
2472,000000	6,822000
2471,000000	6,829700
2470,000000	6,829600
2469,000000	6,854400
2468,000000	6,851700
2467,000000	6,852500
2466,000000	6,918700
2465,000000	6,913400
2464,000000	6,923700
2463,000000	6,926000
2462,000000	6,942800
2461,000000	6,951000
2460,000000	6,993600
2459,000000	7,036900
2458,000000	7,082300
2457,000000	7,081600
2456,000000	7,109300
2455,000000	7,142500
2454,000000	7,187900
2453,000000	7,238900
2452,000000	7,274800
2451,000000	7,308500
2450,000000	7,350800
2449,000000	7,422000
2448,000000	7,471400
2447,000000	7,490300
2446,000000	7,552000
2445,000000	7,594800
2444,000000	7,634400
2443,000000	7,662400
2442,000000	7,730500
2441,000000	7,761100
2440,000000	7,797000
2439,000000	7,846900
2438,000000	7,904600
2437,000000	7,948000
2436,000000	7,972400
2435,000000	8,026300
2434,000000	8,063700
2433,000000	8,099400
2432,000000	8,143900
2431,000000	8,179500
2430,000000	8,209700
2429,000000	8,234700
2428,000000	8,254000
2427,000000	8,297400
2426,000000	8,320400
2425,000000	8,328600
2424,000000	8,355100
2423,000000	8,407200
2422,000000	8,437800
2421,000000	8,450000
2420,000000	8,464200
2419,000000	8,511900
2418,000000	8,536200
2417,000000	8,518400
2416,000000	8,538700
2415,000000	8,565200
2414,000000	8,597000
2413,000000	8,614000
2412,000000	8,628000
2411,000000	8,631900
2410,000000	8,657300
2409,000000	8,677500
2408,000000	8,665200
2407,000000	8,656100
2406,000000	8,677300
2405,000000	8,703100
2404,000000	8,718200
2403,000000	8,716600
2402,000000	8,729900
2401,000000	8,744100
2400,000000	8,756600
2399,000000	8,776400
2398,000000	8,805200
2397,000000	8,807000
2396,000000	8,814300
2395,000000	8,833700
2394,000000	8,837300
2393,000000	8,831100
2392,000000	8,850200
2391,000000	8,862100
2390,000000	8,887200
2389,000000	8,896700
2388,000000	8,880600
2387,000000	8,884000
2386,000000	8,890200
2385,000000	8,887800
2384,000000	8,890700
2383,000000	8,895400
2382,000000	8,895800
2381,000000	8,887800
2380,000000	8,888200
2379,000000	8,868300
2378,000000	8,844900
2377,000000	8,837600
2376,000000	8,834100
2375,000000	8,816000
2374,000000	8,798900
2373,000000	8,787700
2372,000000	8,766300
2371,000000	8,742800
2370,000000	8,729500
2369,000000	8,715900
2368,000000	8,681600
2367,000000	8,645600
2366,000000	8,621500
2365,000000	8,597100
2364,000000	8,557000
2363,000000	8,522700
2362,000000	8,490700
2361,000000	8,441300
2360,000000	8,414300
2359,000000	8,387800
2358,000000	8,348800
2357,000000	8,309200
2356,000000	8,282900
2355,000000	8,258300
2354,000000	8,235800
2353,000000	8,226100
2352,000000	8,217500
2351,000000	8,202000
2350,000000	8,210300
2349,000000	8,224400
2348,000000	8,227400
2347,000000	8,245000
2346,000000	8,260700
2345,000000	8,271900
2344,000000	8,279700
2343,000000	8,298900
2342,000000	8,336800
2341,000000	8,350700
2340,000000	8,362500
2339,000000	8,373300
2338,000000	8,371700
2337,000000	8,381700
2336,000000	8,376000
2335,000000	8,371000
2334,000000	8,362400
2333,000000	8,340300
2332,000000	8,313500
2331,000000	8,282100
2330,000000	8,271600
2329,000000	8,242300
2328,000000	8,208900
2327,000000	8,160600
2326,000000	8,127600
2325,000000	8,090800
2324,000000	8,036600
2323,000000	7,973400
2322,000000	7,918200
2321,000000	7,881400
2320,000000	7,831100
2319,000000	7,772200
2318,000000	7,700700
2317,000000	7,642900
2316,000000	7,582800
2315,000000	7,530500
2314,000000	7,457500
2313,000000	7,419500
2312,000000	7,359400
2311,000000	7,318000
2310,000000	7,291500
2309,000000	7,230800
2308,000000	7,217800
2307,000000	7,194600
2306,000000	7,184500
2305,000000	7,202600
2304,000000	7,212700
2303,000000	7,231900
2302,000000	7,252900
2301,000000	7,283600
2300,000000	7,322700
2299,000000	7,353500
2298,000000	7,411800
2297,000000	7,474100
2296,000000	7,517100
2295,000000	7,570500
2294,000000	7,589200
2293,000000	7,627500
2292,000000	7,653100
2291,000000	7,687700
2290,000000	7,710800
2289,000000	7,733100
2288,000000	7,735000
2287,000000	7,734500
2286,000000	7,706500
2285,000000	7,723000
2284,000000	7,723600
2283,000000	7,691200
2282,000000	7,673000
2281,000000	7,637100
2280,000000	7,625200
2279,000000	7,597000
2278,000000	7,577400
2277,000000	7,548200
2276,000000	7,523500
2275,000000	7,509700
2274,000000	7,480900
2273,000000	7,476200
2272,000000	7,473900
2271,000000	7,487400
2270,000000	7,504500
2269,000000	7,504000
2268,000000	7,539000
2267,000000	7,595200
2266,000000	7,643400
2265,000000	7,699500
2264,000000	7,789400
2263,000000	7,874500
2262,000000	7,963300
2261,000000	8,101900
2260,000000	8,211700
2259,000000	8,353000
2258,000000	8,473600
2257,000000	8,613400
2256,000000	8,766900
2255,000000	8,920800
2254,000000	9,079300
2253,000000	9,231600
2252,000000	9,347600
2251,000000	9,483200
2250,000000	9,628800
2249,000000	9,756000
2248,000000	9,874100
2247,000000	9,971700
2246,000000	10,076300
2245,000000	10,172800
2244,000000	10,265000
2243,000000	10,370000
2242,000000	10,435500
2241,000000	10,505400
2240,000000	10,593600
2239,000000	10,647700
2238,000000	10,688300
2237,000000	10,741400
2236,000000	10,817400
2235,000000	10,866400
2234,000000	10,872300
2233,000000	10,909700
2232,000000	10,948900
2231,000000	10,971400
2230,000000	10,989200
2229,000000	11,023300
2228,000000	11,023700
2227,000000	11,051900
2226,000000	11,042800
2225,000000	11,058200
2224,000000	11,023700
2223,000000	11,027800
2222,000000	11,009000
2221,000000	10,995300
2220,000000	10,996500
2219,000000	10,998400
2218,000000	10,981400
2217,000000	10,977000
2216,000000	10,944000
2215,000000	10,921400
2214,000000	10,895000
2213,000000	10,900400
2212,000000	10,874700
2211,000000	10,856600
2210,000000	10,839100
2209,000000	10,837200
2208,000000	10,817100
2207,000000	10,806000
2206,000000	10,799900
2205,000000	10,776000
2204,000000	10,772000
2203,000000	10,761400
2202,000000	10,751400
2201,000000	10,740400
2200,000000	10,707400
2199,000000	10,717100
2198,000000	10,724700
2197,000000	10,694800
2196,000000	10,693600
2195,000000	10,689600
2194,000000	10,686400
2193,000000	10,649600
2192,000000	10,663500
2191,000000	10,665100
2190,000000	10,655600
2189,000000	10,653100
2188,000000	10,635100
2187,000000	10,638200
2186,000000	10,627900
2185,000000	10,610500
2184,000000	10,603700
2183,000000	10,593600
2182,000000	10,563500
2181,000000	10,573400
2180,000000	10,563100
2179,000000	10,554300
2178,000000	10,553600
2177,000000	10,559000
2176,000000	10,530800
2175,000000	10,553400
2174,000000	10,541500
2173,000000	10,528700
2172,000000	10,545100
2171,000000	10,576500
2170,000000	10,571900
2169,000000	10,575600
2168,000000	10,579500
2167,000000	10,588800
2166,000000	10,606100
2165,000000	10,634200
2164,000000	10,640200
2163,000000	10,660900
2162,000000	10,674400
2161,000000	10,679800
2160,000000	10,704500
2159,000000	10,731100
2158,000000	10,742200
2157,000000	10,756600
2156,000000	10,776600
2155,000000	10,789900
2154,000000	10,815500
2153,000000	10,849500
2152,000000	10,875700
2151,000000	10,892300
2150,000000	10,921600
2149,000000	10,940300
2148,000000	10,967000
2147,000000	10,994500
2146,000000	11,004800
2145,000000	11,037800
2144,000000	11,054000
2143,000000	11,077700
2142,000000	11,095200
2141,000000	11,096600
2140,000000	11,113300
2139,000000	11,150100
2138,000000	11,148800
2137,000000	11,149100
2136,000000	11,146200
2135,000000	11,161900
2134,000000	11,181900
2133,000000	11,175700
2132,000000	11,164100
2131,000000	11,169600
2130,000000	11,164300
2129,000000	11,157300
2128,000000	11,148700
2127,000000	11,138600
2126,000000	11,135900
2125,000000	11,134700
2124,000000	11,120700
2123,000000	11,103600
2122,000000	11,088300
2121,000000	11,058100
2120,000000	11,038600
2119,000000	11,028200
2118,000000	11,012400
2117,000000	10,985200
2116,000000	10,947200
2115,000000	10,916200
2114,000000	10,896400
2113,000000	10,886900
2112,000000	10,866900
2111,000000	10,836900
2110,000000	10,804100
2109,000000	10,776300
2108,000000	10,753000
2107,000000	10,726900
2106,000000	10,700200
2105,000000	10,669500
2104,000000	10,639700
2103,000000	10,619800
2102,000000	10,609000
2101,000000	10,583600
2100,000000	10,549700
2099,000000	10,529700
2098,000000	10,504200
2097,000000	10,480000
2096,000000	10,467700
2095,000000	10,448300
2094,000000	10,428100
2093,000000	10,399900
2092,000000	10,366700
2091,000000	10,355300
2090,000000	10,353500
2089,000000	10,340600
2088,000000	10,312700
2087,000000	10,296600
2086,000000	10,280000
2085,000000	10,262100
2084,000000	10,221600
2083,000000	10,194500
2082,000000	10,196100
2081,000000	10,182700
2080,000000	10,163000
2079,000000	10,141100
2078,000000	10,101200
2077,000000	10,078700
2076,000000	10,065000
2075,000000	10,041700
2074,000000	10,014100
2073,000000	9,972700
2072,000000	9,955900
2071,000000	9,915600
2070,000000	9,883200
2069,000000	9,863500
2068,000000	9,833800
2067,000000	9,813500
2066,000000	9,783700
2065,000000	9,763600
2064,000000	9,753400
2063,000000	9,721000
2062,000000	9,698000
2061,000000	9,682800
2060,000000	9,670200
2059,000000	9,656600
2058,000000	9,652900
2057,000000	9,650700
2056,000000	9,654100
2055,000000	9,668000
2054,000000	9,690400
2053,000000	9,699700
2052,000000	9,733400
2051,000000	9,774800
2050,000000	9,810400
2049,000000	9,846800
2048,000000	9,863200
2047,000000	9,920900
2046,000000	9,996700
2045,000000	10,040800
2044,000000	10,111400
2043,000000	10,157500
2042,000000	10,225200
2041,000000	10,269200
2040,000000	10,330900
2039,000000	10,364900
2038,000000	10,414300
2037,000000	10,470400
2036,000000	10,519000
2035,000000	10,558800
2034,000000	10,598700
2033,000000	10,637000
2032,000000	10,668600
2031,000000	10,703000
2030,000000	10,734100
2029,000000	10,748700
2028,000000	10,771800
2027,000000	10,815300
2026,000000	10,831500
2025,000000	10,845900
2024,000000	10,861300
2023,000000	10,879700
2022,000000	10,891800
2021,000000	10,919800
2020,000000	10,916200
2019,000000	10,911200
2018,000000	10,935900
2017,000000	10,934600
2016,000000	10,950200
2015,000000	10,950700
2014,000000	10,955500
2013,000000	10,963600
2012,000000	10,946600
2011,000000	10,944000
2010,000000	10,931100
2009,000000	10,906800
2008,000000	10,917400
2007,000000	10,888300
2006,000000	10,859200
2005,000000	10,862400
2004,000000	10,847300
2003,000000	10,821300
2002,000000	10,792300
2001,000000	10,755000
2000,000000	10,723900
1999,000000	10,690600
1998,000000	10,654800
1997,000000	10,624100
1996,000000	10,596900
1995,000000	10,575400
1994,000000	10,524100
1993,000000	10,463800
1992,000000	10,450000
1991,000000	10,415100
1990,000000	10,365900
1989,000000	10,326800
1988,000000	10,272700
1987,000000	10,215100
1986,000000	10,200900
1985,000000	10,149700
1984,000000	10,134200
1983,000000	10,074000
1982,000000	10,029200
1981,000000	9,965000
1980,000000	9,935100
1979,000000	9,895300
1978,000000	9,835300
1977,000000	9,803100
1976,000000	9,757300
1975,000000	9,722700
1974,000000	9,686400
1973,000000	9,653500
1972,000000	9,621900
1971,000000	9,571500
1970,000000	9,522200
1969,000000	9,494600
1968,000000	9,471100
1967,000000	9,408900
1966,000000	9,390500
1965,000000	9,350400
1964,000000	9,305900
1963,000000	9,283900
1962,000000	9,244100
1961,000000	9,199700
1960,000000	9,178500
1959,000000	9,132400
1958,000000	9,107900
1957,000000	9,074700
1956,000000	9,047300
1955,000000	9,007800
1954,000000	8,992400
1953,000000	8,943200
1952,000000	8,903900
1951,000000	8,883800
1950,000000	8,844300
1949,000000	8,857900
1948,000000	8,831000
1947,000000	8,819000
1946,000000	8,782500
1945,000000	8,770700
1944,000000	8,737800
1943,000000	8,733300
1942,000000	8,738200
1941,000000	8,734100
1940,000000	8,708000
1939,000000	8,724000
1938,000000	8,728400
1937,000000	8,741900
1936,000000	8,731700
1935,000000	8,740200
1934,000000	8,782400
1933,000000	8,800400
1932,000000	8,821300
1931,000000	8,849600
1930,000000	8,899600
1929,000000	8,951000
1928,000000	8,974500
1927,000000	9,040100
1926,000000	9,076100
1925,000000	9,152300
1924,000000	9,211300
1923,000000	9,286900
1922,000000	9,369800
1921,000000	9,424000
1920,000000	9,521900
1919,000000	9,586400
1918,000000	9,690600
1917,000000	9,786200
1916,000000	9,882500
1915,000000	9,977400
1914,000000	10,094400
1913,000000	10,246800
1912,000000	10,362400
1911,000000	10,470300
1910,000000	10,579500
1909,000000	10,694800
1908,000000	10,838500
1907,000000	10,995500
1906,000000	11,164500
1905,000000	11,340000
1904,000000	11,501500
1903,000000	11,669500
1902,000000	11,840800
1901,000000	12,025100
1900,000000	12,233400
1899,000000	12,432100
1898,000000	12,643900
1897,000000	12,824700
1896,000000	12,993300
1895,000000	13,209000
1894,000000	13,421400
1893,000000	13,684500
1892,000000	13,974400
1891,000000	14,257000
1890,000000	14,509700
1889,000000	14,779700
1888,000000	15,092900
1887,000000	15,405500
1886,000000	15,754900
1885,000000	16,163800
1884,000000	16,625700
1883,000000	17,067900
1882,000000	17,497000
1881,000000	17,948600
1880,000000	18,383700
1879,000000	18,831000
1878,000000	19,273100
1877,000000	19,697600
1876,000000	20,119300
1875,000000	20,522900
1874,000000	20,921000
1873,000000	21,285700
1872,000000	21,623000
1871,000000	21,939200
1870,000000	22,220000
1869,000000	22,469500
1868,000000	22,666600
1867,000000	22,817500
1866,000000	22,943100
1865,000000	23,060500
1864,000000	23,172700
1863,000000	23,274800
1862,000000	23,393100
1861,000000	23,489000
1860,000000	23,576800
1859,000000	23,652900
1858,000000	23,695900
1857,000000	23,727000
1856,000000	23,747100
1855,000000	23,761500
1854,000000	23,750500
1853,000000	23,736200
1852,000000	23,728800
1851,000000	23,696100
1850,000000	23,680100
1849,000000	23,677900
1848,000000	23,653800
1847,000000	23,584500
1846,000000	23,516100
1845,000000	23,463700
1844,000000	23,423600
1843,000000	23,430400
1842,000000	23,417800
1841,000000	23,388900
1840,000000	23,366100
1839,000000	23,333600
1838,000000	23,291500
1837,000000	23,230200
1836,000000	23,165700
1835,000000	23,087300
1834,000000	23,002400
1833,000000	22,931200
1832,000000	22,859300
1831,000000	22,786200
1830,000000	22,710600
1829,000000	22,622900
1828,000000	22,554400
1827,000000	22,480600
1826,000000	22,396000
1825,000000	22,322600
1824,000000	22,260400
1823,000000	22,232900
1822,000000	22,228300
1821,000000	22,206300
1820,000000	22,168000
1819,000000	22,122600
1818,000000	22,085600
1817,000000	22,066200
1816,000000	22,058900
1815,000000	22,050200
1814,000000	22,022600
1813,000000	21,989400
1812,000000	21,968500
1811,000000	21,936300
1810,000000	21,887500
1809,000000	21,835600
1808,000000	21,800300
1807,000000	21,752200
1806,000000	21,700100
1805,000000	21,656700
1804,000000	21,607000
1803,000000	21,544200
1802,000000	21,490800
1801,000000	21,458200
1800,000000	21,399000
1799,000000	21,327800
1798,000000	21,290600
1797,000000	21,245000
1796,000000	21,188500
1795,000000	21,139700
1794,000000	21,090100
1793,000000	21,040000
1792,000000	20,986900
1791,000000	20,926300
1790,000000	20,863900
1789,000000	20,816100
1788,000000	20,764300
1787,000000	20,681600
1786,000000	20,613400
1785,000000	20,546500
1784,000000	20,475600
1783,000000	20,403400
1782,000000	20,331200
1781,000000	20,250800
1780,000000	20,176900
1779,000000	20,102400
1778,000000	20,027200
1777,000000	19,927700
1776,000000	19,832200
1775,000000	19,726300
1774,000000	19,620300
1773,000000	19,523400
1772,000000	19,401900
1771,000000	19,284400
1770,000000	19,172500
1769,000000	19,067600
1768,000000	18,964400
1767,000000	18,886700
1766,000000	18,814300
1765,000000	18,753900
1764,000000	18,714300
1763,000000	18,733100
1762,000000	18,743500
1761,000000	18,779700
1760,000000	18,833000
1759,000000	18,897000
1758,000000	18,965900
1757,000000	19,025000
1756,000000	19,093000
1755,000000	19,133800
1754,000000	19,149200
1753,000000	19,144800
1752,000000	19,145600
1751,000000	19,137000
1750,000000	19,097800
1749,000000	19,041900
1748,000000	18,976900
1747,000000	18,928700
1746,000000	18,842900
1745,000000	18,729300
1744,000000	18,600400
1743,000000	18,438900
1742,000000	18,252400
1741,000000	18,082100
1740,000000	17,881300
1739,000000	17,697800
1738,000000	17,539100
1737,000000	17,400600
1736,000000	17,264400
1735,000000	17,195800
1734,000000	17,183800
1733,000000	17,190500
1732,000000	17,250500
1731,000000	17,325300
1730,000000	17,428800
1729,000000	17,542200
1728,000000	17,668000
1727,000000	17,787600
1726,000000	17,859600
1725,000000	17,937000
1724,000000	18,009400
1723,000000	18,050200
1722,000000	18,060800
1721,000000	18,101500
1720,000000	18,131400
1719,000000	18,158500
1718,000000	18,197000
1717,000000	18,232700
1716,000000	18,287600
1715,000000	18,354600
1714,000000	18,414100
1713,000000	18,444400
1712,000000	18,504100
1711,000000	18,526700
1710,000000	18,530000
1709,000000	18,517200
1708,000000	18,516400
1707,000000	18,487700
1706,000000	18,446800
1705,000000	18,408200
1704,000000	18,338300
1703,000000	18,256200
1702,000000	18,155000
1701,000000	18,008200
1700,000000	17,878400
1699,000000	17,743800
1698,000000	17,597100
1697,000000	17,511700
1696,000000	17,463300
1695,000000	17,475700
1694,000000	17,509600
1693,000000	17,625400
1692,000000	17,766900
1691,000000	17,922900
1690,000000	18,056000
1689,000000	18,165000
1688,000000	18,248400
1687,000000	18,272800
1686,000000	18,307400
1685,000000	18,359200
1684,000000	18,457100
1683,000000	18,659900
1682,000000	18,972300
1681,000000	19,354500
1680,000000	19,837600
1679,000000	20,356200
1678,000000	20,876100
1677,000000	21,332200
1676,000000	21,766300
1675,000000	22,141000
1674,000000	22,482800
1673,000000	22,749400
1672,000000	22,998900
1671,000000	23,231300
1670,000000	23,405800
1669,000000	23,567500
1668,000000	23,714500
1667,000000	23,820400
1666,000000	23,935400
1665,000000	24,021700
1664,000000	24,075200
1663,000000	24,150600
1662,000000	24,215800
1661,000000	24,277400
1660,000000	24,269300
1659,000000	24,297700
1658,000000	24,327300
1657,000000	24,332800
1656,000000	24,314900
1655,000000	24,314800
1654,000000	24,291600
1653,000000	24,294500
1652,000000	24,269400
1651,000000	24,226400
1650,000000	24,198200
1649,000000	24,158200
1648,000000	24,111600
1647,000000	24,055600
1646,000000	24,010800
1645,000000	23,932900
1644,000000	23,851000
1643,000000	23,794900
1642,000000	23,744500
1641,000000	23,694900
1640,000000	23,619300
1639,000000	23,541000
1638,000000	23,458300
1637,000000	23,387200
1636,000000	23,291900
1635,000000	23,211700
1634,000000	23,137500
1633,000000	23,046000
1632,000000	22,985100
1631,000000	22,894600
1630,000000	22,806500
1629,000000	22,715900
1628,000000	22,638800
1627,000000	22,549700
1626,000000	22,450400
1625,000000	22,346600
1624,000000	22,263200
1623,000000	22,183500
1622,000000	22,093900
1621,000000	22,006300
1620,000000	21,928000
1619,000000	21,854200
1618,000000	21,768200
1617,000000	21,691800
1616,000000	21,605900
1615,000000	21,527400
1614,000000	21,456200
1613,000000	21,369700
1612,000000	21,291000
1611,000000	21,234300
1610,000000	21,134700
1609,000000	21,061700
1608,000000	20,996500
1607,000000	20,928200
1606,000000	20,854000
1605,000000	20,772700
1604,000000	20,696000
1603,000000	20,627400
1602,000000	20,575700
1601,000000	20,500300
1600,000000	20,423800
1599,000000	20,360100
1598,000000	20,303100
1597,000000	20,242500
1596,000000	20,163600
1595,000000	20,088000
1594,000000	20,048700
1593,000000	20,001900
1592,000000	19,958000
1591,000000	19,913800
1590,000000	19,857400
1589,000000	19,816700
1588,000000	19,779100
1587,000000	19,737400
1586,000000	19,690400
1585,000000	19,652700
1584,000000	19,615900
1583,000000	19,602300
1582,000000	19,571300
1581,000000	19,545700
1580,000000	19,523600
1579,000000	19,510900
1578,000000	19,510500
1577,000000	19,505500
1576,000000	19,491100
1575,000000	19,473800
1574,000000	19,481400
1573,000000	19,489000
1572,000000	19,491900
1571,000000	19,494200
1570,000000	19,507800
1569,000000	19,527400
1568,000000	19,537700
1567,000000	19,547600
1566,000000	19,572600
1565,000000	19,596100
1564,000000	19,596500
1563,000000	19,614300
1562,000000	19,630200
1561,000000	19,634800
1560,000000	19,652600
1559,000000	19,647800
1558,000000	19,639900
1557,000000	19,653900
1556,000000	19,654300
1555,000000	19,630400
1554,000000	19,621500
1553,000000	19,630400
1552,000000	19,612800
1551,000000	19,591300
1550,000000	19,570600
1549,000000	19,557600
1548,000000	19,546500
1547,000000	19,521300
1546,000000	19,518200
1545,000000	19,507900
1544,000000	19,498900
1543,000000	19,490500
1542,000000	19,482200
1541,000000	19,478000
1540,000000	19,462200
1539,000000	19,457500
1538,000000	19,463700
1537,000000	19,438400
1536,000000	19,417400
1535,000000	19,411800
1534,000000	19,392900
1533,000000	19,382000
1532,000000	19,368400
1531,000000	19,342100
1530,000000	19,312200
1529,000000	19,283900
1528,000000	19,265600
1527,000000	19,246300
1526,000000	19,222400
1525,000000	19,183700
1524,000000	19,145000
1523,000000	19,115300
1522,000000	19,075300
1521,000000	19,046100
1520,000000	19,013800
1519,000000	18,974100
1518,000000	18,941300
1517,000000	18,910300
1516,000000	18,869500
1515,000000	18,832600
1514,000000	18,790600
1513,000000	18,753500
1512,000000	18,704800
1511,000000	18,663900
1510,000000	18,617100
1509,000000	18,581700
1508,000000	18,557300
1507,000000	18,504600
1506,000000	18,457900
1505,000000	18,419400
1504,000000	18,375100
1503,000000	18,332800
1502,000000	18,289900
1501,000000	18,257600
1500,000000	18,218300
1499,000000	18,188500
1498,000000	18,149300
1497,000000	18,136700
1496,000000	18,090200
1495,000000	18,042700
1494,000000	18,023700
1493,000000	17,992400
1492,000000	17,981700
1491,000000	17,962600
1490,000000	17,931800
1489,000000	17,919700
1488,000000	17,896900
1487,000000	17,878800
1486,000000	17,858300
1485,000000	17,845600
1484,000000	17,807300
1483,000000	17,804000
1482,000000	17,808100
1481,000000	17,804800
1480,000000	17,787600
1479,000000	17,786200
1478,000000	17,765000
1477,000000	17,760100
1476,000000	17,770400
1475,000000	17,765200
1474,000000	17,787600
1473,000000	17,775700
1472,000000	17,787900
1471,000000	17,781400
1470,000000	17,782300
1469,000000	17,782800
1468,000000	17,788200
1467,000000	17,804800
1466,000000	17,817800
1465,000000	17,836800
1464,000000	17,859700
1463,000000	17,875600
1462,000000	17,915800
1461,000000	17,952300
1460,000000	17,998300
1459,000000	18,036800
1458,000000	18,083000
1457,000000	18,129000
1456,000000	18,186800
1455,000000	18,265900
1454,000000	18,328900
1453,000000	18,407000
1452,000000	18,488500
1451,000000	18,581700
1450,000000	18,658500
1449,000000	18,720700
1448,000000	18,818300
1447,000000	18,920200
1446,000000	19,038300
1445,000000	19,106100
1444,000000	19,213100
1443,000000	19,357300
1442,000000	19,436400
1441,000000	19,550900
1440,000000	19,669800
1439,000000	19,768400
1438,000000	19,907200
1437,000000	20,005600
1436,000000	20,124900
1435,000000	20,270600
1434,000000	20,389600
1433,000000	20,537600
1432,000000	20,655300
1431,000000	20,803100
1430,000000	20,971200
1429,000000	21,149500
1428,000000	21,318000
1427,000000	21,510100
1426,000000	21,715400
1425,000000	21,927000
1424,000000	22,163500
1423,000000	22,378500
1422,000000	22,590400
1421,000000	22,863300
1420,000000	23,114800
1419,000000	23,374400
1418,000000	23,616300
1417,000000	23,837600
1416,000000	24,131600
1415,000000	24,425600
1414,000000	24,720500
1413,000000	24,974000
1412,000000	25,249800
1411,000000	25,573400
1410,000000	25,939000
1409,000000	26,324100
1408,000000	26,735000
1407,000000	27,129100
1406,000000	27,560400
1405,000000	27,995600
1404,000000	28,396000
1403,000000	28,822800
1402,000000	29,255500
1401,000000	29,734600
1400,000000	30,170600
1399,000000	30,465900
1398,000000	30,744100
1397,000000	31,083100
1396,000000	31,447500
1395,000000	31,783000
1394,000000	32,014700
1393,000000	32,301600
1392,000000	32,643100
1391,000000	32,926400
1390,000000	33,234800
1389,000000	33,634700
1388,000000	34,075500
1387,000000	34,499800
1386,000000	34,968900
1385,000000	35,483700
1384,000000	36,010100
1383,000000	36,521300
1382,000000	36,962700
1381,000000	37,300200
1380,000000	37,513400
1379,000000	37,697600
1378,000000	37,836200
1377,000000	37,999600
1376,000000	38,193400
1375,000000	38,459700
1374,000000	38,746100
1373,000000	39,092000
1372,000000	39,491900
1371,000000	39,868300
1370,000000	40,193300
1369,000000	40,516400
1368,000000	40,830600
1367,000000	41,070600
1366,000000	41,280600
1365,000000	41,501000
1364,000000	41,688700
1363,000000	41,862200
1362,000000	42,061300
1361,000000	42,170600
1360,000000	42,200600
1359,000000	42,326900
1358,000000	42,448600
1357,000000	42,650700
1356,000000	42,959700
1355,000000	43,366800
1354,000000	43,805100
1353,000000	44,243200
1352,000000	44,779900
1351,000000	45,261900
1350,000000	45,714900
1349,000000	46,108200
1348,000000	46,486200
1347,000000	46,845700
1346,000000	47,132200
1345,000000	47,449400
1344,000000	47,751500
1343,000000	48,035300
1342,000000	48,307200
1341,000000	48,581300
1340,000000	48,836400
1339,000000	49,078000
1338,000000	49,301800
1337,000000	49,531500
1336,000000	49,755700
1335,000000	49,974500
1334,000000	50,176800
1333,000000	50,375500
1332,000000	50,560300
1331,000000	50,744400
1330,000000	50,928500
1329,000000	51,088000
1328,000000	51,231600
1327,000000	51,377900
1326,000000	51,526000
1325,000000	51,660200
1324,000000	51,771000
1323,000000	51,887700
1322,000000	52,011700
1321,000000	52,130900
1320,000000	52,238500
1319,000000	52,341200
1318,000000	52,440000
1317,000000	52,523300
1316,000000	52,612900
1315,000000	52,711600
1314,000000	52,803600
1313,000000	52,866500
1312,000000	52,937900
1311,000000	52,999800
1310,000000	53,065600
1309,000000	53,133500
1308,000000	53,185100
1307,000000	53,226700
1306,000000	53,258300
1305,000000	53,300300
1304,000000	53,344900
1303,000000	53,371000
1302,000000	53,391300
1301,000000	53,407600
1300,000000	53,425500
1299,000000	53,425700
1298,000000	53,432400
1297,000000	53,454500
1296,000000	53,463500
1295,000000	53,465200
1294,000000	53,463500
1293,000000	53,461700
1292,000000	53,453400
1291,000000	53,444300
1290,000000	53,421400
1289,000000	53,389200
1288,000000	53,361800
1287,000000	53,343000
1286,000000	53,309600
1285,000000	53,252200
1284,000000	53,210900
1283,000000	53,167200
1282,000000	53,119900
1281,000000	53,075600
1280,000000	53,019900
1279,000000	52,988100
1278,000000	52,947100
1277,000000	52,906800
1276,000000	52,879800
1275,000000	52,851800
1274,000000	52,830100
1273,000000	52,815100
1272,000000	52,784900
1271,000000	52,764600
1270,000000	52,748900
1269,000000	52,733300
1268,000000	52,711000
1267,000000	52,689800
1266,000000	52,654400
1265,000000	52,624900
1264,000000	52,600000
1263,000000	52,581800
1262,000000	52,541600
1261,000000	52,504100
1260,000000	52,475800
1259,000000	52,434800
1258,000000	52,399500
1257,000000	52,341100
1256,000000	52,278600
1255,000000	52,233800
1254,000000	52,177000
1253,000000	52,111500
1252,000000	52,033700
1251,000000	51,968900
1250,000000	51,889000
1249,000000	51,793200
1248,000000	51,705400
1247,000000	51,600200
1246,000000	51,474100
1245,000000	51,376200
1244,000000	51,261800
1243,000000	51,133100
1242,000000	51,014800
1241,000000	50,879300
1240,000000	50,734500
1239,000000	50,609500
1238,000000	50,476300
1237,000000	50,321600
1236,000000	50,167600
1235,000000	50,021600
1234,000000	49,871400
1233,000000	49,718100
1232,000000	49,538600
1231,000000	49,380200
1230,000000	49,208900
1229,000000	49,033600
1228,000000	48,866500
1227,000000	48,695400
1226,000000	48,477000
1225,000000	48,296300
1224,000000	48,118000
1223,000000	47,939800
1222,000000	47,763700
1221,000000	47,584400
1220,000000	47,393700
1219,000000	47,233100
1218,000000	47,070800
1217,000000	46,919500
1216,000000	46,770700
1215,000000	46,589800
1214,000000	46,460000
1213,000000	46,313600
1212,000000	46,164800
1211,000000	46,044400
1210,000000	45,912400
1209,000000	45,783000
1208,000000	45,685200
1207,000000	45,582800
1206,000000	45,502100
1205,000000	45,428800
1204,000000	45,375300
1203,000000	45,324400
1202,000000	45,263800
1201,000000	45,204600
1200,000000	45,124000
1199,000000	45,031100
1198,000000	44,894400
1197,000000	44,732500
1196,000000	44,537600
1195,000000	44,270000
1194,000000	43,939300
1193,000000	43,538600
1192,000000	43,116600
1191,000000	42,669000
1190,000000	42,273000
1189,000000	41,934000
1188,000000	41,675600
1187,000000	41,564400
1186,000000	41,596400
1185,000000	41,720000
1184,000000	41,975400
1183,000000	42,381800
1182,000000	42,832900
1181,000000	43,350400
1180,000000	43,862500
1179,000000	44,329300
1178,000000	44,745900
1177,000000	45,131000
1176,000000	45,458200
1175,000000	45,779900
1174,000000	46,086200
1173,000000	46,407600
1172,000000	46,729900
1171,000000	47,082100
1170,000000	47,421300
1169,000000	47,774000
1168,000000	48,110300
1167,000000	48,450600
1166,000000	48,803100
1165,000000	49,157400
1164,000000	49,516300
1163,000000	49,894600
1162,000000	50,213400
1161,000000	50,555000
1160,000000	50,873500
1159,000000	51,202500
1158,000000	51,459900
1157,000000	51,735800
1156,000000	51,949500
1155,000000	52,136500
1154,000000	52,264200
1153,000000	52,343600
1152,000000	52,416200
1151,000000	52,451000
1150,000000	52,467300
1149,000000	52,516400
1148,000000	52,565600
1147,000000	52,650500
1146,000000	52,799700
1145,000000	52,982100
1144,000000	53,222600
1143,000000	53,477000
1142,000000	53,774100
1141,000000	54,069000
1140,000000	54,363600
1139,000000	54,677500
1138,000000	54,990900
1137,000000	55,332500
1136,000000	55,662400
1135,000000	56,005900
1134,000000	56,262400
1133,000000	56,500600
1132,000000	56,750900
1131,000000	56,981900
1130,000000	57,170600
1129,000000	57,310100
1128,000000	57,426300
1127,000000	57,535700
1126,000000	57,620900
1125,000000	57,680400
1124,000000	57,729500
1123,000000	57,789200
1122,000000	57,809000
1121,000000	57,828400
1120,000000	57,840800
1119,000000	57,848000
1118,000000	57,844800
1117,000000	57,845200
1116,000000	57,840400
1115,000000	57,829200
1114,000000	57,810700
1113,000000	57,773300
1112,000000	57,791600
1111,000000	57,777200
1110,000000	57,753200
1109,000000	57,728800
1108,000000	57,718100
1107,000000	57,704300
1106,000000	57,701800
1105,000000	57,690700
1104,000000	57,669100
1103,000000	57,674800
1102,000000	57,651300
1101,000000	57,633000
1100,000000	57,626200
1099,000000	57,589700
1098,000000	57,578500
1097,000000	57,562800
1096,000000	57,533900
1095,000000	57,506300
1094,000000	57,497200
1093,000000	57,474300
1092,000000	57,441900
1091,000000	57,409300
1090,000000	57,372100
1089,000000	57,352800
1088,000000	57,317100
1087,000000	57,276300
1086,000000	57,233000
1085,000000	57,203800
1084,000000	57,169900
1083,000000	57,134100
1082,000000	57,101900
1081,000000	57,062300
1080,000000	57,024400
1079,000000	56,995300
1078,000000	56,958800
1077,000000	56,914700
1076,000000	56,876200
1075,000000	56,837700
1074,000000	56,795400
1073,000000	56,753500
1072,000000	56,714000
1071,000000	56,671100
1070,000000	56,626300
1069,000000	56,580100
1068,000000	56,531500
1067,000000	56,501200
1066,000000	56,449400
1065,000000	56,394100
1064,000000	56,342100
1063,000000	56,298000
1062,000000	56,241900
1061,000000	56,175800
1060,000000	56,141300
1059,000000	56,083400
1058,000000	56,017700
1057,000000	55,953600
1056,000000	55,889700
1055,000000	55,836300
1054,000000	55,772000
1053,000000	55,706900
1052,000000	55,661800
1051,000000	55,609100
1050,000000	55,553400
1049,000000	55,501800
1048,000000	55,447900
1047,000000	55,394500
1046,000000	55,338400
1045,000000	55,285100
1044,000000	55,240100
1043,000000	55,189400
1042,000000	55,144700
1041,000000	55,101100
1040,000000	55,061700
1039,000000	55,012500
1038,000000	54,964300
1037,000000	54,912400
1036,000000	54,848700
1035,000000	54,805800
1034,000000	54,753800
1033,000000	54,699800
1032,000000	54,638000
1031,000000	54,576300
1030,000000	54,526900
1029,000000	54,463700
1028,000000	54,401200
1027,000000	54,343000
1026,000000	54,278400
1025,000000	54,224500
1024,000000	54,160000
1023,000000	54,100300
1022,000000	54,043900
1021,000000	53,993300
1020,000000	53,953300
1019,000000	53,897600
1018,000000	53,852700
1017,000000	53,818700
1016,000000	53,782000
1015,000000	53,757000
1014,000000	53,746800
1013,000000	53,738000
1012,000000	53,725800
1011,000000	53,726300
1010,000000	53,728600
1009,000000	53,746400
1008,000000	53,756700
1007,000000	53,767600
1006,000000	53,777100
1005,000000	53,795900
1004,000000	53,825500
1003,000000	53,837500
1002,000000	53,860700
1001,000000	53,887400
1000,000000	53,883700
999,000000	53,902400
998,000000	53,937800
997,000000	53,963800
996,000000	53,983500
995,000000	54,017200
994,000000	54,051800
993,000000	54,077400
992,000000	54,108700
991,000000	54,156000
990,000000	54,192900
989,000000	54,231400
988,000000	54,294400
987,000000	54,339700
986,000000	54,380500
985,000000	54,431400
984,000000	54,496000
983,000000	54,550700
982,000000	54,604800
981,000000	54,671900
980,000000	54,736800
979,000000	54,793300
978,000000	54,848900
977,000000	54,909300
976,000000	54,984700
975,000000	55,050000
974,000000	55,116200
973,000000	55,170100
972,000000	55,237600
971,000000	55,300300
970,000000	55,359200
969,000000	55,435600
968,000000	55,504600
967,000000	55,559100
966,000000	55,646300
965,000000	55,735000
964,000000	55,834600
963,000000	55,893600
962,000000	55,975900
961,000000	56,066000
960,000000	56,145600
959,000000	56,250600
958,000000	56,310400
957,000000	56,399900
956,000000	56,485500
955,000000	56,579300
954,000000	56,647000
953,000000	56,729300
952,000000	56,776900
951,000000	56,878400
950,000000	56,945300
949,000000	57,031500
948,000000	57,137100
947,000000	57,201300
946,000000	57,289200
945,000000	57,363600
944,000000	57,458000
943,000000	57,542200
942,000000	57,609700
941,000000	57,675300
940,000000	57,776300
939,000000	57,843300
938,000000	57,932200
937,000000	58,021700
936,000000	58,080900
935,000000	58,144900
934,000000	58,231800
933,000000	58,324100
932,000000	58,431100
931,000000	58,492500
930,000000	58,598500
929,000000	58,680100
928,000000	58,790500
927,000000	58,864900
926,000000	58,968300
925,000000	59,086400
924,000000	59,160700
923,000000	59,252100
922,000000	59,363700
921,000000	59,440500
920,000000	59,523600
919,000000	59,608200
918,000000	59,680900
917,000000	59,792500
916,000000	59,881700
915,000000	59,942200
914,000000	60,011200
913,000000	60,083000
912,000000	60,204600
911,000000	60,265100
910,000000	60,340000
909,000000	60,416900
908,000000	60,524600
907,000000	60,617700
906,000000	60,761400
905,000000	60,847700
904,000000	60,942100
903,000000	61,040400
902,000000	61,154700
901,000000	61,280700
900,000000	61,391700
899,000000	61,484300
898,000000	61,605200
897,000000	61,717900
896,000000	61,770700
895,000000	61,899600
894,000000	61,974300
893,000000	62,073300
892,000000	62,138900
891,000000	62,234200
890,000000	62,285000
889,000000	62,342400
888,000000	62,422800
887,000000	62,491000
886,000000	62,566900
885,000000	62,652700
884,000000	62,737900
883,000000	62,807900
882,000000	62,877100
881,000000	62,982000
880,000000	63,049100
879,000000	63,143800
878,000000	63,215600
877,000000	63,259600
876,000000	63,326300
875,000000	63,373000
874,000000	63,418200
873,000000	63,461500
872,000000	63,447800
871,000000	63,425700
870,000000	63,397600
869,000000	63,375900
868,000000	63,293700
867,000000	63,219000
866,000000	63,162200
865,000000	63,145100
864,000000	63,199800
863,000000	63,262600
862,000000	63,349800
861,000000	63,385600
860,000000	63,431400
859,000000	63,451300
858,000000	63,744700
857,000000	65,296400
856,000000	65,109900
855,000000	64,767400
854,000000	64,817500
853,000000	64,803000
852,000000	64,579000
851,000000	64,686500
850,000000	64,749200
849,000000	64,759700
848,000000	64,621900
847,000000	64,549100
846,000000	64,592700
845,000000	64,590400
844,000000	64,738200
843,000000	64,760700
842,000000	64,736000
841,000000	64,636800
840,000000	64,591700
839,000000	64,555400
838,000000	64,448400
837,000000	64,160200
836,000000	64,007900
835,000000	64,259100
834,000000	64,038800
833,000000	63,793200
832,000000	63,920500
831,000000	63,819200
830,000000	63,457800
829,000000	63,535800
828,000000	63,579600
827,000000	63,526800
826,000000	63,253200
825,000000	63,112700
824,000000	63,158900
823,000000	63,018200
822,000000	63,005400
821,000000	62,949100
820,000000	62,596700
819,000000	62,366300
818,000000	62,457600
817,000000	62,352800
816,000000	62,258800
815,000000	62,121600
814,000000	62,018800
813,000000	61,920900
812,000000	61,738900
811,000000	61,773300
810,000000	61,713300
809,000000	61,526500
808,000000	61,473500
807,000000	61,456100
806,000000	61,363100
805,000000	61,201500
804,000000	61,221600
803,000000	61,251800
802,000000	61,102200
801,000000	60,931200
800,000000	60,893600
799,000000	60,866800
798,000000	60,848500
797,000000	60,790800
796,000000	60,641600
795,000000	60,571400
794,000000	60,566600
793,000000	60,522900
792,000000	60,481600
791,000000	60,339400
790,000000	60,179000
789,000000	60,028900
788,000000	59,931500
787,000000	59,895800
786,000000	59,885000
785,000000	59,829600
784,000000	59,759000
783,000000	59,600000
782,000000	59,563000
781,000000	59,526800
780,000000	59,469800
779,000000	59,434400
778,000000	59,406700
777,000000	59,379200
776,000000	59,285200
775,000000	59,231300
774,000000	59,211100
773,000000	59,086100
772,000000	58,939200
771,000000	58,842400
770,000000	58,870300
769,000000	58,789000
768,000000	58,670900
767,000000	58,596300
766,000000	58,453000
765,000000	58,432800
764,000000	58,400100
763,000000	58,281200
762,000000	58,278600
761,000000	58,246300
760,000000	58,152700
759,000000	58,094800
758,000000	58,046300
757,000000	57,910800
756,000000	57,851200
755,000000	57,865000
754,000000	57,782700
753,000000	57,616600
752,000000	57,532300
751,000000	57,473300
750,000000	57,331200
749,000000	57,212900
748,000000	57,125300
747,000000	57,051500
746,000000	57,011500
745,000000	56,933600
744,000000	56,831300
743,000000	56,741300
742,000000	56,706200
741,000000	56,680800
740,000000	56,595800
739,000000	56,553800
738,000000	56,516300
737,000000	56,393600
736,000000	56,377600
735,000000	56,361600
734,000000	56,245600
733,000000	56,145400
732,000000	56,113500
731,000000	56,090200
730,000000	56,016700
729,000000	55,945700
728,000000	55,866300
727,000000	55,765600
726,000000	55,789000
725,000000	55,767200
724,000000	55,684800
723,000000	55,606800
722,000000	55,568200
721,000000	55,531500
720,000000	55,530400
719,000000	55,450300
718,000000	55,364400
717,000000	55,306500
716,000000	55,250200
715,000000	55,197200
714,000000	55,074700
713,000000	54,970500
712,000000	54,855300
711,000000	54,692500
710,000000	54,560500
709,000000	54,469600
708,000000	54,333300
707,000000	54,154100
706,000000	54,008700
705,000000	53,839900
704,000000	53,659600
703,000000	53,429500
702,000000	53,204900
701,000000	53,030200
700,000000	52,862100
699,000000	52,640600
698,000000	52,470000
697,000000	52,316400
696,000000	52,084200
695,000000	51,843800
694,000000	51,643300
693,000000	51,464100
692,000000	51,244600
691,000000	51,018800
690,000000	50,819200
689,000000	50,596200
688,000000	50,337400
687,000000	50,086300
686,000000	49,852700
685,000000	49,598700
684,000000	49,338000
683,000000	49,175400
682,000000	48,927400
681,000000	48,733900
680,000000	48,542600
679,000000	48,435300
678,000000	48,323500
677,000000	48,261300
676,000000	48,223400
675,000000	48,198300
674,000000	48,213300
673,000000	48,172200
672,000000	48,239200
671,000000	48,276400
670,000000	48,297500
669,000000	48,313500
668,000000	48,332400
667,000000	48,322500
666,000000	48,317600
665,000000	48,294600
664,000000	48,320800
663,000000	48,310200
662,000000	48,273600
661,000000	48,229300
660,000000	48,124400
659,000000	48,059700
658,000000	47,989500
657,000000	47,841500
656,000000	47,768400
655,000000	47,703100
654,000000	47,577300
653,000000	47,430100
652,000000	47,309100
651,000000	47,162800
650,000000	47,017800
649,000000	46,762100
648,000000	46,576700
647,000000	46,289500
646,000000	46,072700
645,000000	45,794400
644,000000	45,485100
643,000000	45,198500
642,000000	44,842900
641,000000	44,526400
640,000000	44,270500
639,000000	43,972500
638,000000	43,689300
637,000000	43,461700
636,000000	43,284400
635,000000	43,154900
634,000000	43,095700
633,000000	43,091200
632,000000	43,197800
631,000000	43,316700
630,000000	43,583400
629,000000	43,884800
628,000000	44,279300
627,000000	44,712400
626,000000	45,210000
625,000000	45,708600
624,000000	46,266400
623,000000	46,845200
622,000000	47,510800
621,000000	48,227000
620,000000	48,978500
619,000000	49,764800
618,000000	50,538000
617,000000	51,372800
616,000000	52,224400
615,000000	53,052000
614,000000	53,815800
613,000000	54,641400
612,000000	55,402300
611,000000	56,034100
610,000000	56,687400
609,000000	57,194500
608,000000	57,625500
607,000000	57,975000
606,000000	58,316100
605,000000	58,594700
604,000000	58,868100
603,000000	59,089300
602,000000	59,398200
601,000000	59,755500
600,000000	60,045800
599,000000	60,373700
598,000000	60,697400
597,000000	61,013900
596,000000	61,451800
595,000000	61,784800
594,000000	62,201800
593,000000	62,599300
592,000000	62,973400
591,000000	63,366100
590,000000	63,708700
589,000000	63,977700
588,000000	64,229400
587,000000	64,337800
586,000000	64,457300
585,000000	64,425000
584,000000	64,359300
583,000000	64,333200
582,000000	64,202500
581,000000	64,089900
580,000000	64,016100
579,000000	63,954400
578,000000	63,940600
577,000000	63,967500
576,000000	63,998100
575,000000	64,163400
574,000000	64,258600
573,000000	64,384100
572,000000	64,487500
571,000000	64,639300
570,000000	64,684500
569,000000	64,742300
568,000000	64,720100
567,000000	64,627600
566,000000	64,481700
565,000000	64,275100
564,000000	64,064000
563,000000	63,805200
562,000000	63,520800
561,000000	63,229700
560,000000	62,945000
559,000000	62,619900
558,000000	62,367300
557,000000	62,106400
556,000000	61,849000
555,000000	61,609800
554,000000	61,295300
553,000000	60,978900
552,000000	60,581600
551,000000	60,080900
550,000000	59,552000
549,000000	58,900300
548,000000	58,194400
547,000000	57,376400
546,000000	56,559300
545,000000	55,707500
544,000000	54,837000
543,000000	53,935500
542,000000	52,981000
541,000000	52,019300
540,000000	50,992800
539,000000	50,002800
538,000000	48,967000
537,000000	47,913500
536,000000	46,791500
535,000000	45,709800
534,000000	44,628400
533,000000	43,549700
532,000000	42,493500
531,000000	41,482900
530,000000	40,515500
529,000000	39,609700
528,000000	38,759900
527,000000	37,949700
526,000000	37,170100
525,000000	36,459000
524,000000	35,781900
523,000000	35,107300
522,000000	34,500200
521,000000	33,905700
520,000000	33,347400
519,000000	32,808400
518,000000	32,272900
517,000000	31,746100
516,000000	31,215800
515,000000	30,689900
514,000000	30,146900
513,000000	29,604200
512,000000	29,038900
511,000000	28,456800
510,000000	27,899000
509,000000	27,332400
508,000000	26,744100
507,000000	26,209800
506,000000	25,681100
505,000000	25,152700
504,000000	24,695100
503,000000	24,231900
502,000000	23,827300
501,000000	23,456800
500,000000	23,105000
499,000000	22,822000
498,000000	22,590200
497,000000	22,385900
496,000000	22,226900
495,000000	22,086300
494,000000	22,000100
493,000000	21,893600
492,000000	21,831500
491,000000	21,776600
490,000000	21,741900
489,000000	21,711500
488,000000	21,674900
487,000000	21,618600
486,000000	21,560100
485,000000	21,491000
484,000000	21,416500
483,000000	21,355200
482,000000	21,298200
481,000000	21,245900
480,000000	21,161500
479,000000	21,060000
478,000000	20,936400
477,000000	20,816100
476,000000	20,695800
475,000000	20,546600
474,000000	20,402900
473,000000	20,273600
472,000000	20,123900
471,000000	19,960000
470,000000	19,796400
469,000000	19,633900
468,000000	19,471000
467,000000	19,305700
466,000000	19,125300
465,000000	18,934900
464,000000	18,746800
463,000000	18,544400
462,000000	18,353600
461,000000	18,161500
460,000000	17,969900
459,000000	17,774900
458,000000	17,552300
457,000000	17,330200
456,000000	17,118800
455,000000	16,911600
454,000000	16,676000
453,000000	16,416400
452,000000	16,157100
451,000000	15,897900
450,000000	15,625600
449,000000	15,345000
448,000000	15,067800
447,000000	14,781100
446,000000	14,484300
445,000000	14,170200
444,000000	13,849900
443,000000	13,559600
442,000000	13,255900
441,000000	12,925100
440,000000	12,592500
439,000000	12,269600
438,000000	11,956700
437,000000	11,622800
436,000000	11,301400
435,000000	11,003800
434,000000	10,684700
433,000000	10,352100
432,000000	10,044500
431,000000	9,755500
430,000000	9,457800
429,000000	9,175300
428,000000	8,897600
427,000000	8,636900
426,000000	8,396800
425,000000	8,152900
424,000000	7,928500
423,000000	7,717200
422,000000	7,521500
421,000000	7,325200
420,000000	7,138800
419,000000	6,964000
418,000000	6,796300
417,000000	6,650100
416,000000	6,508500
415,000000	6,379800
414,000000	6,262600
413,000000	6,159900
412,000000	6,066300
411,000000	5,982400
410,000000	5,904300
409,000000	5,849100
408,000000	5,780000
407,000000	5,714300
406,000000	5,658400
405,000000	5,612500
404,000000	5,563600
403,000000	5,520700
402,000000	5,491400
401,000000	5,449000
400,000000	5,412500
399,000000	5,393000
398,000000	5,378200
397,000000	5,350500
396,000000	5,348000
395,000000	5,339600
394,000000	5,309100
393,000000	5,281300
392,000000	5,268400
391,000000	5,259300
390,000000	5,242800
389,000000	5,226000
388,000000	5,200100
387,000000	5,205100
386,000000	5,190100
385,000000	5,169900
384,000000	5,171600
383,000000	5,161200
382,000000	5,148000
381,000000	5,140200
380,000000	5,123300
379,000000	5,111800
378,000000	5,099400
377,000000	5,066200
376,000000	5,041800
375,000000	4,773000
374,000000	4,831400
373,000000	4,927700
372,000000	4,970600
371,000000	4,807700
370,000000	4,884500
369,000000	4,921900
368,000000	4,953700
367,000000	4,889800
366,000000	4,910000
365,000000	4,875800
364,000000	4,812200
363,000000	4,896800
362,000000	4,906400
361,000000	4,911500
360,000000	4,905100
359,000000	4,972600
358,000000	4,938700
357,000000	4,951100
356,000000	4,948200
355,000000	4,845700
354,000000	4,971600
353,000000	4,913100
352,000000	5,015400
351,000000	5,021600
350,000000	4,951600
349,000000	4,920000
348,000000	4,849400
347,000000	4,926900
346,000000	4,952700
345,000000	4,923000
344,000000	5,052700
343,000000	5,023100
342,000000	5,057200
341,000000	5,153800
340,000000	5,041500
339,000000	5,137900
338,000000	5,024400
337,000000	4,992400
336,000000	4,959000
335,000000	5,008600
334,000000	5,380500
333,000000	5,356600
332,000000	5,193400
331,000000	5,263800
330,000000	5,303500
329,000000	5,318400
328,000000	5,215800
327,000000	5,049200
326,000000	5,112100
325,000000	5,257800
324,000000	5,206400
323,000000	5,066400
322,000000	5,250000
321,000000	5,122300
320,000000	5,016700
319,000000	5,739500
318,000000	5,622400
317,000000	5,188100
316,000000	5,067400
315,000000	5,073700
314,000000	5,048900
313,000000	5,044800
312,000000	5,065100
311,000000	5,075700
310,000000	5,094200
309,000000	5,100300
308,000000	5,099600
307,000000	5,128900
306,000000	5,131300
305,000000	5,107800
304,000000	5,104300
303,000000	5,096900
302,000000	5,058400
301,000000	5,117700
300,000000	5,140800
299,000000	5,130800
298,000000	5,128500
297,000000	5,080900
296,000000	5,162700
295,000000	5,155000
294,000000	5,171800
293,000000	5,198700
292,000000	5,167000
291,000000	5,227800
290,000000	5,177300
289,000000	5,241500
288,000000	5,200300
287,000000	5,265500
286,000000	5,218600
285,000000	5,225400
284,000000	5,218900
283,000000	5,205700
282,000000	5,272200
281,000000	5,265000
280,000000	5,304900
279,000000	5,301000
278,000000	5,345600
277,000000	5,304500
276,000000	5,282600
275,000000	5,323700
274,000000	5,388600
273,000000	5,333800
272,000000	5,413200
271,000000	5,442900
270,000000	5,401600
269,000000	5,457000
268,000000	5,445600
267,000000	5,477000
266,000000	5,483100
265,000000	5,530000
264,000000	5,534400
263,000000	5,581800
262,000000	5,585300
261,000000	5,599500
260,000000	5,633500
259,000000	5,653100
258,000000	5,706600
257,000000	5,678800
256,000000	5,681200
255,000000	5,701100
254,000000	5,681800
253,000000	5,763900
252,000000	5,754500
251,000000	5,796600
250,000000	5,751800
