PE UV       SUBTECH     SPECTRUM    ASCII       PEDS        4.00        
   -1
CICIMAUCR0006-1.Sample.ASC
24/04/12
09:51:50.00
24/04/12
09:51:50.00
Vinicio Soto Monge
C. kalinini
250,000000
1
Lambda 1050
1050L1511233
PerkinElmer UV WinLab 6.3.2.0749 / 2.02.05 Lambda 900 UV/VIS/NIR, Aug  7 2015 09:38:08

0
0
3350/servo 860,8/2
0
0
UV/VIS
1
1
1
DoubleDePol,CommonBeamDepol,RBeamAtt,SBeamAtt,60mm sphere, WB InGaAs Detector
0
0
0
0
Program
Program
3350/servo 860,8/2
3350/0,2 860,8/0,2
3350/0,2 860,8/0,2
0
15.00
 
 
 
0
 
860,8
319,2
860,8
Front
100
on
S:100 R:100
0
0
0
0
 
0
 
 
 
0
 
 
0
0
0
0
0
 
 
 
 
0
0


0
0
#HDR
-1
-1
#GR
nm
%R
1.0
0.0
2500,000000
-1,000000
2251
8
44,260600
2,230600
#DATA
2500,000000	9,131500
2499,000000	9,052100
2498,000000	9,104500
2497,000000	9,012900
2496,000000	9,127200
2495,000000	9,148300
2494,000000	8,998300
2493,000000	9,100400
2492,000000	9,021700
2491,000000	9,073500
2490,000000	9,000800
2489,000000	8,957100
2488,000000	9,035200
2487,000000	8,968100
2486,000000	8,985100
2485,000000	8,908300
2484,000000	8,954100
2483,000000	8,981500
2482,000000	8,981900
2481,000000	8,965500
2480,000000	8,942900
2479,000000	9,005800
2478,000000	8,996400
2477,000000	9,028600
2476,000000	9,024000
2475,000000	9,072700
2474,000000	9,068500
2473,000000	9,102500
2472,000000	9,110900
2471,000000	9,118200
2470,000000	9,178800
2469,000000	9,211700
2468,000000	9,287300
2467,000000	9,312300
2466,000000	9,336800
2465,000000	9,383300
2464,000000	9,434600
2463,000000	9,498800
2462,000000	9,530300
2461,000000	9,597100
2460,000000	9,676300
2459,000000	9,734100
2458,000000	9,824300
2457,000000	9,900500
2456,000000	9,962700
2455,000000	10,065100
2454,000000	10,122800
2453,000000	10,158400
2452,000000	10,276500
2451,000000	10,358400
2450,000000	10,425400
2449,000000	10,481500
2448,000000	10,539600
2447,000000	10,611700
2446,000000	10,693000
2445,000000	10,749700
2444,000000	10,837200
2443,000000	10,894700
2442,000000	10,937500
2441,000000	11,020000
2440,000000	11,081300
2439,000000	11,154600
2438,000000	11,230600
2437,000000	11,273000
2436,000000	11,339900
2435,000000	11,377000
2434,000000	11,452500
2433,000000	11,508600
2432,000000	11,575800
2431,000000	11,631400
2430,000000	11,675500
2429,000000	11,719600
2428,000000	11,722600
2427,000000	11,650200
2426,000000	11,583600
2425,000000	11,555400
2424,000000	11,541500
2423,000000	11,583300
2422,000000	11,619200
2421,000000	11,656300
2420,000000	11,641100
2419,000000	11,630500
2418,000000	11,665300
2417,000000	11,653400
2416,000000	11,627600
2415,000000	11,638500
2414,000000	11,667200
2413,000000	11,667300
2412,000000	11,656000
2411,000000	11,679300
2410,000000	11,675300
2409,000000	11,642800
2408,000000	11,646900
2407,000000	11,665100
2406,000000	11,668900
2405,000000	11,677400
2404,000000	11,648600
2403,000000	11,627600
2402,000000	11,659600
2401,000000	11,686800
2400,000000	11,681200
2399,000000	11,651000
2398,000000	11,669400
2397,000000	11,659200
2396,000000	11,637900
2395,000000	11,641100
2394,000000	11,633700
2393,000000	11,604800
2392,000000	11,599300
2391,000000	11,576600
2390,000000	11,558700
2389,000000	11,550600
2388,000000	11,551200
2387,000000	11,531700
2386,000000	11,499900
2385,000000	11,500400
2384,000000	11,464100
2383,000000	11,428100
2382,000000	11,415400
2381,000000	11,397500
2380,000000	11,391400
2379,000000	11,364000
2378,000000	11,338600
2377,000000	11,321700
2376,000000	11,255600
2375,000000	11,215800
2374,000000	11,208200
2373,000000	11,188000
2372,000000	11,142300
2371,000000	11,095000
2370,000000	11,065200
2369,000000	11,037000
2368,000000	10,981000
2367,000000	10,926500
2366,000000	10,898600
2365,000000	10,862700
2364,000000	10,801200
2363,000000	10,740800
2362,000000	10,703700
2361,000000	10,663600
2360,000000	10,611900
2359,000000	10,566500
2358,000000	10,531000
2357,000000	10,504300
2356,000000	10,465300
2355,000000	10,433500
2354,000000	10,432800
2353,000000	10,432000
2352,000000	10,406600
2351,000000	10,388100
2350,000000	10,398300
2349,000000	10,414700
2348,000000	10,410000
2347,000000	10,401900
2346,000000	10,407200
2345,000000	10,391300
2344,000000	10,387900
2343,000000	10,404300
2342,000000	10,380100
2341,000000	10,369500
2340,000000	10,360000
2339,000000	10,327900
2338,000000	10,316300
2337,000000	10,280300
2336,000000	10,241600
2335,000000	10,235400
2334,000000	10,179900
2333,000000	10,148500
2332,000000	10,136600
2331,000000	10,105900
2330,000000	10,045700
2329,000000	10,011200
2328,000000	9,985000
2327,000000	9,976700
2326,000000	9,929900
2325,000000	9,878000
2324,000000	9,824600
2323,000000	9,788800
2322,000000	9,767300
2321,000000	9,701200
2320,000000	9,658900
2319,000000	9,632300
2318,000000	9,594300
2317,000000	9,529100
2316,000000	9,494400
2315,000000	9,422200
2314,000000	9,380100
2313,000000	9,354300
2312,000000	9,334400
2311,000000	9,335100
2310,000000	9,294600
2309,000000	9,289600
2308,000000	9,320700
2307,000000	9,325600
2306,000000	9,347400
2305,000000	9,395500
2304,000000	9,427000
2303,000000	9,454400
2302,000000	9,501300
2301,000000	9,570500
2300,000000	9,594000
2299,000000	9,639100
2298,000000	9,710300
2297,000000	9,747200
2296,000000	9,759300
2295,000000	9,794700
2294,000000	9,828400
2293,000000	9,826800
2292,000000	9,861100
2291,000000	9,874100
2290,000000	9,873800
2289,000000	9,839600
2288,000000	9,826700
2287,000000	9,808700
2286,000000	9,806900
2285,000000	9,752300
2284,000000	9,702000
2283,000000	9,675400
2282,000000	9,623100
2281,000000	9,578100
2280,000000	9,550700
2279,000000	9,531600
2278,000000	9,503200
2277,000000	9,454900
2276,000000	9,428800
2275,000000	9,419500
2274,000000	9,369100
2273,000000	9,374400
2272,000000	9,382700
2271,000000	9,417500
2270,000000	9,449300
2269,000000	9,477000
2268,000000	9,523300
2267,000000	9,593200
2266,000000	9,685200
2265,000000	9,743200
2264,000000	9,858500
2263,000000	9,981300
2262,000000	10,104700
2261,000000	10,239700
2260,000000	10,357500
2259,000000	10,475600
2258,000000	10,637500
2257,000000	10,775600
2256,000000	10,895900
2255,000000	11,015100
2254,000000	11,164700
2253,000000	11,328900
2252,000000	11,432800
2251,000000	11,569500
2250,000000	11,645300
2249,000000	11,767300
2248,000000	11,880100
2247,000000	11,965300
2246,000000	12,041100
2245,000000	12,129700
2244,000000	12,235400
2243,000000	12,272000
2242,000000	12,360100
2241,000000	12,434000
2240,000000	12,475000
2239,000000	12,564000
2238,000000	12,584600
2237,000000	12,632900
2236,000000	12,708400
2235,000000	12,751200
2234,000000	12,809900
2233,000000	12,797100
2232,000000	12,814000
2231,000000	12,848400
2230,000000	12,883600
2229,000000	12,924000
2228,000000	12,958000
2227,000000	12,908700
2226,000000	12,939100
2225,000000	12,954700
2224,000000	12,947900
2223,000000	12,954600
2222,000000	12,952900
2221,000000	12,939400
2220,000000	12,937900
2219,000000	12,925600
2218,000000	12,929600
2217,000000	12,926800
2216,000000	12,904000
2215,000000	12,878900
2214,000000	12,852800
2213,000000	12,858800
2212,000000	12,812200
2211,000000	12,781500
2210,000000	12,769200
2209,000000	12,765100
2208,000000	12,743500
2207,000000	12,732600
2206,000000	12,730500
2205,000000	12,723600
2204,000000	12,721300
2203,000000	12,701100
2202,000000	12,685100
2201,000000	12,627800
2200,000000	12,631500
2199,000000	12,625900
2198,000000	12,618500
2197,000000	12,601300
2196,000000	12,585400
2195,000000	12,579800
2194,000000	12,587000
2193,000000	12,567200
2192,000000	12,571100
2191,000000	12,552900
2190,000000	12,534300
2189,000000	12,514900
2188,000000	12,521200
2187,000000	12,507000
2186,000000	12,480000
2185,000000	12,465800
2184,000000	12,446400
2183,000000	12,446800
2182,000000	12,409900
2181,000000	12,400600
2180,000000	12,391200
2179,000000	12,409900
2178,000000	12,400700
2177,000000	12,390700
2176,000000	12,382200
2175,000000	12,377600
2174,000000	12,382700
2173,000000	12,373700
2172,000000	12,366000
2171,000000	12,374900
2170,000000	12,374600
2169,000000	12,398800
2168,000000	12,406600
2167,000000	12,411400
2166,000000	12,424700
2165,000000	12,459200
2164,000000	12,439900
2163,000000	12,435200
2162,000000	12,437100
2161,000000	12,444200
2160,000000	12,459800
2159,000000	12,450600
2158,000000	12,462100
2157,000000	12,475900
2156,000000	12,498300
2155,000000	12,515400
2154,000000	12,517100
2153,000000	12,527400
2152,000000	12,520100
2151,000000	12,538600
2150,000000	12,540000
2149,000000	12,541500
2148,000000	12,535400
2147,000000	12,537700
2146,000000	12,529600
2145,000000	12,517400
2144,000000	12,529500
2143,000000	12,544500
2142,000000	12,537300
2141,000000	12,527900
2140,000000	12,546900
2139,000000	12,545100
2138,000000	12,535400
2137,000000	12,534500
2136,000000	12,527700
2135,000000	12,502900
2134,000000	12,470100
2133,000000	12,452500
2132,000000	12,440400
2131,000000	12,416500
2130,000000	12,388100
2129,000000	12,357600
2128,000000	12,334400
2127,000000	12,305200
2126,000000	12,269200
2125,000000	12,265300
2124,000000	12,221600
2123,000000	12,177800
2122,000000	12,149600
2121,000000	12,115600
2120,000000	12,078500
2119,000000	12,043900
2118,000000	12,010000
2117,000000	11,985400
2116,000000	11,942600
2115,000000	11,905100
2114,000000	11,869000
2113,000000	11,825500
2112,000000	11,815500
2111,000000	11,788000
2110,000000	11,747900
2109,000000	11,718100
2108,000000	11,698000
2107,000000	11,660400
2106,000000	11,639600
2105,000000	11,624600
2104,000000	11,604100
2103,000000	11,578200
2102,000000	11,556000
2101,000000	11,551400
2100,000000	11,532000
2099,000000	11,507200
2098,000000	11,507500
2097,000000	11,514000
2096,000000	11,502700
2095,000000	11,479500
2094,000000	11,461100
2093,000000	11,452800
2092,000000	11,450300
2091,000000	11,437900
2090,000000	11,417300
2089,000000	11,422100
2088,000000	11,412100
2087,000000	11,396600
2086,000000	11,413600
2085,000000	11,398500
2084,000000	11,384600
2083,000000	11,380200
2082,000000	11,377700
2081,000000	11,380600
2080,000000	11,366000
2079,000000	11,344400
2078,000000	11,339300
2077,000000	11,350000
2076,000000	11,342500
2075,000000	11,324600
2074,000000	11,325200
2073,000000	11,331900
2072,000000	11,330000
2071,000000	11,336900
2070,000000	11,330800
2069,000000	11,348300
2068,000000	11,365700
2067,000000	11,359400
2066,000000	11,354800
2065,000000	11,362400
2064,000000	11,377000
2063,000000	11,389500
2062,000000	11,404400
2061,000000	11,411600
2060,000000	11,435600
2059,000000	11,451100
2058,000000	11,478800
2057,000000	11,512500
2056,000000	11,527700
2055,000000	11,562400
2054,000000	11,610600
2053,000000	11,642300
2052,000000	11,690600
2051,000000	11,742200
2050,000000	11,817600
2049,000000	11,862200
2048,000000	11,923100
2047,000000	12,016000
2046,000000	12,108500
2045,000000	12,171100
2044,000000	12,234500
2043,000000	12,303100
2042,000000	12,376900
2041,000000	12,466000
2040,000000	12,509900
2039,000000	12,569800
2038,000000	12,643500
2037,000000	12,708400
2036,000000	12,764000
2035,000000	12,814600
2034,000000	12,868900
2033,000000	12,923800
2032,000000	12,985000
2031,000000	13,012900
2030,000000	13,054200
2029,000000	13,098300
2028,000000	13,143400
2027,000000	13,196900
2026,000000	13,236200
2025,000000	13,236300
2024,000000	13,262200
2023,000000	13,308100
2022,000000	13,330400
2021,000000	13,348100
2020,000000	13,356000
2019,000000	13,381100
2018,000000	13,408400
2017,000000	13,415800
2016,000000	13,429800
2015,000000	13,430000
2014,000000	13,424700
2013,000000	13,414800
2012,000000	13,413200
2011,000000	13,431000
2010,000000	13,431800
2009,000000	13,431300
2008,000000	13,401600
2007,000000	13,394300
2006,000000	13,384700
2005,000000	13,354400
2004,000000	13,324700
2003,000000	13,306400
2002,000000	13,275500
2001,000000	13,234200
2000,000000	13,225400
1999,000000	13,192400
1998,000000	13,145300
1997,000000	13,116900
1996,000000	13,084600
1995,000000	13,050200
1994,000000	12,984800
1993,000000	12,906600
1992,000000	12,871200
1991,000000	12,839200
1990,000000	12,791000
1989,000000	12,743500
1988,000000	12,693000
1987,000000	12,637300
1986,000000	12,583400
1985,000000	12,530900
1984,000000	12,468100
1983,000000	12,415400
1982,000000	12,364800
1981,000000	12,312400
1980,000000	12,241700
1979,000000	12,179000
1978,000000	12,129400
1977,000000	12,075700
1976,000000	12,037500
1975,000000	11,964700
1974,000000	11,909700
1973,000000	11,840600
1972,000000	11,811800
1971,000000	11,759800
1970,000000	11,711600
1969,000000	11,621600
1968,000000	11,614000
1967,000000	11,547400
1966,000000	11,499900
1965,000000	11,443500
1964,000000	11,406500
1963,000000	11,359900
1962,000000	11,300400
1961,000000	11,238500
1960,000000	11,197400
1959,000000	11,140700
1958,000000	11,103100
1957,000000	11,038800
1956,000000	11,023100
1955,000000	10,966000
1954,000000	10,923500
1953,000000	10,866900
1952,000000	10,808200
1951,000000	10,787500
1950,000000	10,740000
1949,000000	10,719100
1948,000000	10,660000
1947,000000	10,638000
1946,000000	10,613800
1945,000000	10,589700
1944,000000	10,576500
1943,000000	10,534100
1942,000000	10,527700
1941,000000	10,543500
1940,000000	10,531200
1939,000000	10,549600
1938,000000	10,517800
1937,000000	10,492800
1936,000000	10,509200
1935,000000	10,509500
1934,000000	10,534500
1933,000000	10,574700
1932,000000	10,612300
1931,000000	10,661200
1930,000000	10,710500
1929,000000	10,772400
1928,000000	10,795200
1927,000000	10,852400
1926,000000	10,893000
1925,000000	10,973100
1924,000000	11,037300
1923,000000	11,169500
1922,000000	11,243500
1921,000000	11,328600
1920,000000	11,425100
1919,000000	11,507200
1918,000000	11,578200
1917,000000	11,684900
1916,000000	11,866500
1915,000000	12,017300
1914,000000	12,150700
1913,000000	12,292000
1912,000000	12,415700
1911,000000	12,516200
1910,000000	12,657000
1909,000000	12,818600
1908,000000	12,991400
1907,000000	13,191200
1906,000000	13,427700
1905,000000	13,644800
1904,000000	13,818700
1903,000000	13,989300
1902,000000	14,207400
1901,000000	14,400600
1900,000000	14,561800
1899,000000	14,748000
1898,000000	14,932000
1897,000000	15,091000
1896,000000	15,279300
1895,000000	15,499200
1894,000000	15,683300
1893,000000	15,907700
1892,000000	16,143300
1891,000000	16,345400
1890,000000	16,548400
1889,000000	16,750500
1888,000000	16,944900
1887,000000	17,154800
1886,000000	17,401200
1885,000000	17,655900
1884,000000	17,924800
1883,000000	18,237300
1882,000000	18,510900
1881,000000	18,778000
1880,000000	19,031600
1879,000000	19,302600
1878,000000	19,570200
1877,000000	19,857800
1876,000000	20,165900
1875,000000	20,412800
1874,000000	20,629500
1873,000000	20,872200
1872,000000	21,070700
1871,000000	21,191200
1870,000000	21,277500
1869,000000	21,322200
1868,000000	21,317900
1867,000000	21,298700
1866,000000	21,286500
1865,000000	21,267600
1864,000000	21,269300
1863,000000	21,311600
1862,000000	21,361300
1861,000000	21,403000
1860,000000	21,452900
1859,000000	21,493200
1858,000000	21,482400
1857,000000	21,448300
1856,000000	21,443000
1855,000000	21,411700
1854,000000	21,363300
1853,000000	21,312900
1852,000000	21,261800
1851,000000	21,237100
1850,000000	21,270400
1849,000000	21,280300
1848,000000	21,225100
1847,000000	21,170300
1846,000000	21,087700
1845,000000	21,003900
1844,000000	20,968600
1843,000000	20,957400
1842,000000	20,940200
1841,000000	20,922900
1840,000000	20,937400
1839,000000	20,944100
1838,000000	20,902000
1837,000000	20,833200
1836,000000	20,739400
1835,000000	20,645500
1834,000000	20,560500
1833,000000	20,502800
1832,000000	20,441800
1831,000000	20,364700
1830,000000	20,306500
1829,000000	20,276600
1828,000000	20,235800
1827,000000	20,162100
1826,000000	20,096300
1825,000000	20,033000
1824,000000	20,004700
1823,000000	20,032000
1822,000000	20,039300
1821,000000	20,008100
1820,000000	19,989400
1819,000000	19,964200
1818,000000	19,937300
1817,000000	19,899000
1816,000000	19,870400
1815,000000	19,845900
1814,000000	19,839500
1813,000000	19,857300
1812,000000	19,837000
1811,000000	19,795100
1810,000000	19,766600
1809,000000	19,755600
1808,000000	19,743000
1807,000000	19,704400
1806,000000	19,661300
1805,000000	19,632900
1804,000000	19,613500
1803,000000	19,593400
1802,000000	19,565700
1801,000000	19,525500
1800,000000	19,484700
1799,000000	19,439100
1798,000000	19,419800
1797,000000	19,406200
1796,000000	19,373300
1795,000000	19,345400
1794,000000	19,318900
1793,000000	19,283600
1792,000000	19,251000
1791,000000	19,219800
1790,000000	19,187700
1789,000000	19,156800
1788,000000	19,130700
1787,000000	19,102200
1786,000000	19,078000
1785,000000	19,018500
1784,000000	18,971200
1783,000000	18,925800
1782,000000	18,890800
1781,000000	18,853700
1780,000000	18,815500
1779,000000	18,764600
1778,000000	18,709300
1777,000000	18,655100
1776,000000	18,595600
1775,000000	18,536500
1774,000000	18,439400
1773,000000	18,361900
1772,000000	18,300000
1771,000000	18,227000
1770,000000	18,152000
1769,000000	18,080700
1768,000000	18,019700
1767,000000	17,963600
1766,000000	17,908700
1765,000000	17,863600
1764,000000	17,861500
1763,000000	17,845200
1762,000000	17,872200
1761,000000	17,925100
1760,000000	17,950200
1759,000000	17,986900
1758,000000	18,025300
1757,000000	18,068600
1756,000000	18,111400
1755,000000	18,118900
1754,000000	18,143200
1753,000000	18,154100
1752,000000	18,128800
1751,000000	18,119600
1750,000000	18,086200
1749,000000	18,064500
1748,000000	18,006800
1747,000000	17,957100
1746,000000	17,889800
1745,000000	17,814900
1744,000000	17,716700
1743,000000	17,623000
1742,000000	17,503500
1741,000000	17,368700
1740,000000	17,222000
1739,000000	17,102400
1738,000000	16,985700
1737,000000	16,906700
1736,000000	16,818400
1735,000000	16,769600
1734,000000	16,734600
1733,000000	16,745300
1732,000000	16,744200
1731,000000	16,809200
1730,000000	16,878700
1729,000000	16,936700
1728,000000	16,996200
1727,000000	17,044800
1726,000000	17,093000
1725,000000	17,131400
1724,000000	17,169900
1723,000000	17,193000
1722,000000	17,188300
1721,000000	17,222200
1720,000000	17,223600
1719,000000	17,241300
1718,000000	17,256800
1717,000000	17,285500
1716,000000	17,310900
1715,000000	17,356000
1714,000000	17,404400
1713,000000	17,445000
1712,000000	17,472500
1711,000000	17,475200
1710,000000	17,495500
1709,000000	17,481400
1708,000000	17,479100
1707,000000	17,453500
1706,000000	17,444300
1705,000000	17,404500
1704,000000	17,385400
1703,000000	17,336800
1702,000000	17,277000
1701,000000	17,209700
1700,000000	17,120300
1699,000000	17,048800
1698,000000	16,976000
1697,000000	16,937300
1696,000000	16,913200
1695,000000	16,937000
1694,000000	17,007000
1693,000000	17,057600
1692,000000	17,168200
1691,000000	17,271600
1690,000000	17,347900
1689,000000	17,424700
1688,000000	17,458300
1687,000000	17,496400
1686,000000	17,496400
1685,000000	17,516400
1684,000000	17,580800
1683,000000	17,729200
1682,000000	17,936800
1681,000000	18,222300
1680,000000	18,542400
1679,000000	18,873700
1678,000000	19,192000
1677,000000	19,487900
1676,000000	19,736200
1675,000000	19,951800
1674,000000	20,121200
1673,000000	20,302900
1672,000000	20,447000
1671,000000	20,567800
1670,000000	20,680200
1669,000000	20,759600
1668,000000	20,849600
1667,000000	20,927800
1666,000000	20,989800
1665,000000	21,033300
1664,000000	21,068200
1663,000000	21,126500
1662,000000	21,158000
1661,000000	21,191200
1660,000000	21,203000
1659,000000	21,222500
1658,000000	21,233100
1657,000000	21,247600
1656,000000	21,240700
1655,000000	21,240000
1654,000000	21,259100
1653,000000	21,231600
1652,000000	21,195200
1651,000000	21,188400
1650,000000	21,175800
1649,000000	21,131000
1648,000000	21,104400
1647,000000	21,074800
1646,000000	21,039200
1645,000000	21,019300
1644,000000	20,983700
1643,000000	20,931700
1642,000000	20,906500
1641,000000	20,856500
1640,000000	20,810700
1639,000000	20,766100
1638,000000	20,702800
1637,000000	20,671400
1636,000000	20,624600
1635,000000	20,589900
1634,000000	20,557500
1633,000000	20,514900
1632,000000	20,450800
1631,000000	20,393800
1630,000000	20,350100
1629,000000	20,293000
1628,000000	20,233300
1627,000000	20,170200
1626,000000	20,121200
1625,000000	20,071300
1624,000000	20,001500
1623,000000	19,947600
1622,000000	19,894500
1621,000000	19,834500
1620,000000	19,787600
1619,000000	19,735200
1618,000000	19,674500
1617,000000	19,618300
1616,000000	19,563600
1615,000000	19,498000
1614,000000	19,444400
1613,000000	19,395200
1612,000000	19,345300
1611,000000	19,294400
1610,000000	19,237700
1609,000000	19,189800
1608,000000	19,137800
1607,000000	19,089700
1606,000000	19,028500
1605,000000	18,978100
1604,000000	18,923200
1603,000000	18,860400
1602,000000	18,812900
1601,000000	18,767100
1600,000000	18,710900
1599,000000	18,667000
1598,000000	18,640500
1597,000000	18,585700
1596,000000	18,524200
1595,000000	18,465700
1594,000000	18,434900
1593,000000	18,404500
1592,000000	18,359200
1591,000000	18,324700
1590,000000	18,299900
1589,000000	18,272600
1588,000000	18,247600
1587,000000	18,215100
1586,000000	18,182600
1585,000000	18,170000
1584,000000	18,136800
1583,000000	18,115700
1582,000000	18,097600
1581,000000	18,085300
1580,000000	18,085900
1579,000000	18,084500
1578,000000	18,083100
1577,000000	18,084200
1576,000000	18,087200
1575,000000	18,084400
1574,000000	18,078300
1573,000000	18,071100
1572,000000	18,077800
1571,000000	18,091800
1570,000000	18,093300
1569,000000	18,101300
1568,000000	18,119600
1567,000000	18,136100
1566,000000	18,147200
1565,000000	18,159200
1564,000000	18,168400
1563,000000	18,167300
1562,000000	18,177900
1561,000000	18,192600
1560,000000	18,204300
1559,000000	18,207100
1558,000000	18,211100
1557,000000	18,211900
1556,000000	18,207900
1555,000000	18,193000
1554,000000	18,177700
1553,000000	18,182100
1552,000000	18,184900
1551,000000	18,178800
1550,000000	18,143100
1549,000000	18,126600
1548,000000	18,132400
1547,000000	18,120900
1546,000000	18,119100
1545,000000	18,117400
1544,000000	18,109200
1543,000000	18,101400
1542,000000	18,104000
1541,000000	18,118500
1540,000000	18,112700
1539,000000	18,117900
1538,000000	18,120800
1537,000000	18,110400
1536,000000	18,096300
1535,000000	18,098800
1534,000000	18,106300
1533,000000	18,095200
1532,000000	18,072600
1531,000000	18,071300
1530,000000	18,063500
1529,000000	18,048300
1528,000000	18,058800
1527,000000	18,043700
1526,000000	18,020200
1525,000000	18,009400
1524,000000	17,999300
1523,000000	17,990100
1522,000000	17,970100
1521,000000	17,954300
1520,000000	17,942400
1519,000000	17,916200
1518,000000	17,879900
1517,000000	17,872600
1516,000000	17,859100
1515,000000	17,843600
1514,000000	17,811000
1513,000000	17,796100
1512,000000	17,778500
1511,000000	17,744900
1510,000000	17,711900
1509,000000	17,699900
1508,000000	17,681500
1507,000000	17,645900
1506,000000	17,645800
1505,000000	17,634500
1504,000000	17,601700
1503,000000	17,572400
1502,000000	17,560700
1501,000000	17,527900
1500,000000	17,521700
1499,000000	17,521600
1498,000000	17,509200
1497,000000	17,493500
1496,000000	17,488800
1495,000000	17,495500
1494,000000	17,497000
1493,000000	17,498300
1492,000000	17,484600
1491,000000	17,491700
1490,000000	17,496200
1489,000000	17,481100
1488,000000	17,484400
1487,000000	17,485100
1486,000000	17,476200
1485,000000	17,476200
1484,000000	17,479700
1483,000000	17,512200
1482,000000	17,526200
1481,000000	17,540300
1480,000000	17,548200
1479,000000	17,575700
1478,000000	17,596800
1477,000000	17,618100
1476,000000	17,629500
1475,000000	17,635300
1474,000000	17,689900
1473,000000	17,708800
1472,000000	17,717500
1471,000000	17,762500
1470,000000	17,789900
1469,000000	17,785700
1468,000000	17,831800
1467,000000	17,854600
1466,000000	17,870800
1465,000000	17,921700
1464,000000	17,954700
1463,000000	18,015500
1462,000000	18,042700
1461,000000	18,101800
1460,000000	18,141400
1459,000000	18,207800
1458,000000	18,252600
1457,000000	18,330200
1456,000000	18,397100
1455,000000	18,434100
1454,000000	18,502800
1453,000000	18,571000
1452,000000	18,641300
1451,000000	18,726100
1450,000000	18,785900
1449,000000	18,836200
1448,000000	18,908600
1447,000000	19,024900
1446,000000	19,121100
1445,000000	19,185100
1444,000000	19,260600
1443,000000	19,369000
1442,000000	19,439700
1441,000000	19,516500
1440,000000	19,574800
1439,000000	19,690400
1438,000000	19,786200
1437,000000	19,849300
1436,000000	19,951800
1435,000000	20,028700
1434,000000	20,161000
1433,000000	20,259100
1432,000000	20,334300
1431,000000	20,444400
1430,000000	20,565600
1429,000000	20,701400
1428,000000	20,790900
1427,000000	20,930600
1426,000000	21,107600
1425,000000	21,264100
1424,000000	21,440800
1423,000000	21,559500
1422,000000	21,712400
1421,000000	21,918800
1420,000000	22,104700
1419,000000	22,260100
1418,000000	22,409300
1417,000000	22,542300
1416,000000	22,682300
1415,000000	22,885500
1414,000000	23,075200
1413,000000	23,237800
1412,000000	23,373600
1411,000000	23,597900
1410,000000	23,813800
1409,000000	24,030500
1408,000000	24,300200
1407,000000	24,544300
1406,000000	24,802100
1405,000000	25,060100
1404,000000	25,307400
1403,000000	25,553200
1402,000000	25,775000
1401,000000	26,078800
1400,000000	26,324800
1399,000000	26,479100
1398,000000	26,562100
1397,000000	26,698400
1396,000000	26,911000
1395,000000	27,051800
1394,000000	27,119600
1393,000000	27,183000
1392,000000	27,321600
1391,000000	27,401500
1390,000000	27,470200
1389,000000	27,641500
1388,000000	27,843400
1387,000000	28,030700
1386,000000	28,231200
1385,000000	28,483000
1384,000000	28,738000
1383,000000	28,978300
1382,000000	29,222500
1381,000000	29,357300
1380,000000	29,418400
1379,000000	29,415400
1378,000000	29,407000
1377,000000	29,473000
1376,000000	29,544900
1375,000000	29,680200
1374,000000	29,836500
1373,000000	30,041400
1372,000000	30,279300
1371,000000	30,523100
1370,000000	30,696900
1369,000000	30,874300
1368,000000	31,068800
1367,000000	31,212700
1366,000000	31,308600
1365,000000	31,463100
1364,000000	31,561500
1363,000000	31,628200
1362,000000	31,754300
1361,000000	31,888900
1360,000000	31,910100
1359,000000	31,919300
1358,000000	31,970000
1357,000000	32,059200
1356,000000	32,260000
1355,000000	32,568500
1354,000000	32,877400
1353,000000	33,153100
1352,000000	33,492100
1351,000000	33,811200
1350,000000	34,085900
1349,000000	34,358700
1348,000000	34,629500
1347,000000	34,866500
1346,000000	35,068400
1345,000000	35,270700
1344,000000	35,469200
1343,000000	35,650500
1342,000000	35,809500
1341,000000	36,017400
1340,000000	36,190200
1339,000000	36,342700
1338,000000	36,514500
1337,000000	36,663600
1336,000000	36,807800
1335,000000	36,938000
1334,000000	37,067300
1333,000000	37,211100
1332,000000	37,323100
1331,000000	37,420800
1330,000000	37,523500
1329,000000	37,639100
1328,000000	37,743500
1327,000000	37,831100
1326,000000	37,916800
1325,000000	38,002000
1324,000000	38,080100
1323,000000	38,168500
1322,000000	38,237000
1321,000000	38,291200
1320,000000	38,346000
1319,000000	38,415600
1318,000000	38,477700
1317,000000	38,522800
1316,000000	38,560300
1315,000000	38,618500
1314,000000	38,664600
1313,000000	38,708100
1312,000000	38,748300
1311,000000	38,763900
1310,000000	38,777800
1309,000000	38,795500
1308,000000	38,816800
1307,000000	38,847400
1306,000000	38,864600
1305,000000	38,869500
1304,000000	38,869000
1303,000000	38,872400
1302,000000	38,869300
1301,000000	38,848900
1300,000000	38,835600
1299,000000	38,841300
1298,000000	38,825600
1297,000000	38,810700
1296,000000	38,808300
1295,000000	38,787300
1294,000000	38,771300
1293,000000	38,761600
1292,000000	38,733900
1291,000000	38,709200
1290,000000	38,679400
1289,000000	38,629100
1288,000000	38,594900
1287,000000	38,555800
1286,000000	38,503600
1285,000000	38,452600
1284,000000	38,407300
1283,000000	38,350200
1282,000000	38,294300
1281,000000	38,242200
1280,000000	38,188200
1279,000000	38,152600
1278,000000	38,116600
1277,000000	38,061000
1276,000000	38,030200
1275,000000	37,989500
1274,000000	37,944000
1273,000000	37,907900
1272,000000	37,856700
1271,000000	37,827200
1270,000000	37,782200
1269,000000	37,747000
1268,000000	37,720800
1267,000000	37,686800
1266,000000	37,636400
1265,000000	37,596900
1264,000000	37,571400
1263,000000	37,539600
1262,000000	37,504300
1261,000000	37,472800
1260,000000	37,439000
1259,000000	37,395300
1258,000000	37,340800
1257,000000	37,305300
1256,000000	37,260500
1255,000000	37,221900
1254,000000	37,168600
1253,000000	37,132100
1252,000000	37,093500
1251,000000	37,035300
1250,000000	36,975700
1249,000000	36,924300
1248,000000	36,860600
1247,000000	36,785200
1246,000000	36,729300
1245,000000	36,658500
1244,000000	36,567100
1243,000000	36,449500
1242,000000	36,358500
1241,000000	36,294600
1240,000000	36,206700
1239,000000	36,105800
1238,000000	35,984700
1237,000000	35,893600
1236,000000	35,788300
1235,000000	35,677500
1234,000000	35,568100
1233,000000	35,442000
1232,000000	35,325500
1231,000000	35,202200
1230,000000	35,091200
1229,000000	34,969300
1228,000000	34,834200
1227,000000	34,723200
1226,000000	34,601600
1225,000000	34,472500
1224,000000	34,346400
1223,000000	34,218900
1222,000000	34,113400
1221,000000	34,006200
1220,000000	33,892500
1219,000000	33,792600
1218,000000	33,696900
1217,000000	33,599000
1216,000000	33,504300
1215,000000	33,438000
1214,000000	33,349000
1213,000000	33,267300
1212,000000	33,213600
1211,000000	33,154100
1210,000000	33,105800
1209,000000	33,046000
1208,000000	32,998500
1207,000000	32,969500
1206,000000	32,941800
1205,000000	32,921500
1204,000000	32,900300
1203,000000	32,897800
1202,000000	32,897700
1201,000000	32,883900
1200,000000	32,844100
1199,000000	32,810800
1198,000000	32,731000
1197,000000	32,665500
1196,000000	32,555500
1195,000000	32,379800
1194,000000	32,209700
1193,000000	31,985500
1192,000000	31,723100
1191,000000	31,485000
1190,000000	31,228900
1189,000000	31,044400
1188,000000	30,899900
1187,000000	30,845900
1186,000000	30,843600
1185,000000	30,921900
1184,000000	31,077200
1183,000000	31,289300
1182,000000	31,554300
1181,000000	31,825700
1180,000000	32,110300
1179,000000	32,363300
1178,000000	32,598400
1177,000000	32,788300
1176,000000	32,976800
1175,000000	33,137000
1174,000000	33,304600
1173,000000	33,480000
1172,000000	33,634500
1171,000000	33,836700
1170,000000	34,027800
1169,000000	34,236600
1168,000000	34,403800
1167,000000	34,587200
1166,000000	34,815600
1165,000000	34,993500
1164,000000	35,207300
1163,000000	35,397300
1162,000000	35,599600
1161,000000	35,792100
1160,000000	35,991300
1159,000000	36,173100
1158,000000	36,335500
1157,000000	36,472900
1156,000000	36,621100
1155,000000	36,704100
1154,000000	36,773100
1153,000000	36,808700
1152,000000	36,794200
1151,000000	36,790200
1150,000000	36,784700
1149,000000	36,752000
1148,000000	36,744800
1147,000000	36,790600
1146,000000	36,851600
1145,000000	36,964700
1144,000000	37,121700
1143,000000	37,289700
1142,000000	37,452100
1141,000000	37,626800
1140,000000	37,807400
1139,000000	37,984900
1138,000000	38,190900
1137,000000	38,374000
1136,000000	38,590000
1135,000000	38,818200
1134,000000	39,019700
1133,000000	39,144300
1132,000000	39,287400
1131,000000	39,394800
1130,000000	39,542200
1129,000000	39,642100
1128,000000	39,729500
1127,000000	39,780900
1126,000000	39,802500
1125,000000	39,838700
1124,000000	39,867200
1123,000000	39,888300
1122,000000	39,907100
1121,000000	39,915500
1120,000000	39,926700
1119,000000	39,918700
1118,000000	39,901700
1117,000000	39,888800
1116,000000	39,866900
1115,000000	39,843500
1114,000000	39,795500
1113,000000	39,776200
1112,000000	39,750100
1111,000000	39,727700
1110,000000	39,708900
1109,000000	39,680600
1108,000000	39,644500
1107,000000	39,618200
1106,000000	39,593500
1105,000000	39,551900
1104,000000	39,503400
1103,000000	39,473100
1102,000000	39,441600
1101,000000	39,416700
1100,000000	39,367900
1099,000000	39,323900
1098,000000	39,290100
1097,000000	39,255500
1096,000000	39,216300
1095,000000	39,160900
1094,000000	39,104300
1093,000000	39,068200
1092,000000	39,027700
1091,000000	38,978300
1090,000000	38,921700
1089,000000	38,863000
1088,000000	38,833800
1087,000000	38,779100
1086,000000	38,724900
1085,000000	38,671800
1084,000000	38,624700
1083,000000	38,567700
1082,000000	38,517600
1081,000000	38,472100
1080,000000	38,412500
1079,000000	38,346000
1078,000000	38,292600
1077,000000	38,241700
1076,000000	38,191000
1075,000000	38,130900
1074,000000	38,082000
1073,000000	38,034700
1072,000000	37,978100
1071,000000	37,930000
1070,000000	37,891500
1069,000000	37,829400
1068,000000	37,778400
1067,000000	37,729200
1066,000000	37,675000
1065,000000	37,613800
1064,000000	37,549300
1063,000000	37,501100
1062,000000	37,450500
1061,000000	37,404400
1060,000000	37,343000
1059,000000	37,279100
1058,000000	37,217700
1057,000000	37,157100
1056,000000	37,107800
1055,000000	37,041200
1054,000000	36,983500
1053,000000	36,927600
1052,000000	36,870800
1051,000000	36,817500
1050,000000	36,769300
1049,000000	36,712400
1048,000000	36,645200
1047,000000	36,594500
1046,000000	36,559000
1045,000000	36,504700
1044,000000	36,449100
1043,000000	36,397000
1042,000000	36,360700
1041,000000	36,312000
1040,000000	36,265500
1039,000000	36,221700
1038,000000	36,174000
1037,000000	36,107800
1036,000000	36,046000
1035,000000	36,004600
1034,000000	35,953400
1033,000000	35,893400
1032,000000	35,843500
1031,000000	35,791300
1030,000000	35,735400
1029,000000	35,672000
1028,000000	35,616400
1027,000000	35,564700
1026,000000	35,499200
1025,000000	35,436700
1024,000000	35,369200
1023,000000	35,305800
1022,000000	35,249900
1021,000000	35,205200
1020,000000	35,157900
1019,000000	35,110900
1018,000000	35,053700
1017,000000	34,990400
1016,000000	34,921700
1015,000000	34,857500
1014,000000	34,809000
1013,000000	34,773300
1012,000000	34,738100
1011,000000	34,713400
1010,000000	34,683800
1009,000000	34,645300
1008,000000	34,614100
1007,000000	34,589200
1006,000000	34,558000
1005,000000	34,516900
1004,000000	34,480000
1003,000000	34,438700
1002,000000	34,382900
1001,000000	34,362200
1000,000000	34,342000
999,000000	34,300700
998,000000	34,258200
997,000000	34,242300
996,000000	34,226600
995,000000	34,190500
994,000000	34,149700
993,000000	34,114400
992,000000	34,082900
991,000000	34,074700
990,000000	34,044300
989,000000	34,015600
988,000000	33,989300
987,000000	33,959600
986,000000	33,940700
985,000000	33,921500
984,000000	33,903200
983,000000	33,864500
982,000000	33,841000
981,000000	33,817700
980,000000	33,796600
979,000000	33,779500
978,000000	33,774200
977,000000	33,742400
976,000000	33,721600
975,000000	33,691900
974,000000	33,684800
973,000000	33,684700
972,000000	33,649000
971,000000	33,616400
970,000000	33,585000
969,000000	33,566400
968,000000	33,541600
967,000000	33,492200
966,000000	33,487200
965,000000	33,493300
964,000000	33,496800
963,000000	33,464500
962,000000	33,442400
961,000000	33,432100
960,000000	33,415800
959,000000	33,422700
958,000000	33,405600
957,000000	33,386100
956,000000	33,390400
955,000000	33,357800
954,000000	33,322200
953,000000	33,293000
952,000000	33,288700
951,000000	33,283500
950,000000	33,302000
949,000000	33,273100
948,000000	33,212100
947,000000	33,192700
946,000000	33,195200
945,000000	33,211500
944,000000	33,222800
943,000000	33,206400
942,000000	33,184900
941,000000	33,148500
940,000000	33,158700
939,000000	33,178100
938,000000	33,218100
937,000000	33,260800
936,000000	33,238200
935,000000	33,265500
934,000000	33,290900
933,000000	33,318100
932,000000	33,364000
931,000000	33,350800
930,000000	33,305600
929,000000	33,315000
928,000000	33,342300
927,000000	33,375300
926,000000	33,433400
925,000000	33,475200
924,000000	33,441400
923,000000	33,483600
922,000000	33,534900
921,000000	33,593100
920,000000	33,633700
919,000000	33,684600
918,000000	33,737100
917,000000	33,706000
916,000000	33,736300
915,000000	33,799400
914,000000	33,907400
913,000000	33,949200
912,000000	33,933600
911,000000	33,970800
910,000000	34,059900
909,000000	34,137900
908,000000	34,223100
907,000000	34,323000
906,000000	34,412600
905,000000	34,504800
904,000000	34,618500
903,000000	34,728600
902,000000	34,837700
901,000000	34,914400
900,000000	35,050100
899,000000	35,182000
898,000000	35,262500
897,000000	35,392400
896,000000	35,502100
895,000000	35,730900
894,000000	35,848900
893,000000	35,995000
892,000000	36,098900
891,000000	36,254500
890,000000	36,383200
889,000000	36,503000
888,000000	36,688600
887,000000	36,925800
886,000000	37,075900
885,000000	37,245500
884,000000	37,355900
883,000000	37,535200
882,000000	37,703800
881,000000	37,980300
880,000000	38,172600
879,000000	38,462400
878,000000	38,640200
877,000000	38,825100
876,000000	39,016700
875,000000	39,238600
874,000000	39,579700
873,000000	39,820100
872,000000	40,111900
871,000000	40,373300
870,000000	40,716500
869,000000	40,996400
868,000000	41,330600
867,000000	41,606300
866,000000	41,959600
865,000000	42,237500
864,000000	42,572500
863,000000	42,863200
862,000000	43,213800
861,000000	43,500700
860,000000	43,884100
859,000000	44,260600
858,000000	43,236800
857,000000	35,501100
856,000000	35,113800
855,000000	35,082200
854,000000	35,083900
853,000000	35,172300
852,000000	35,383200
851,000000	35,554100
850,000000	35,196700
849,000000	35,427300
848,000000	35,368200
847,000000	35,701900
846,000000	35,750400
845,000000	35,655900
844,000000	35,802900
843,000000	35,758300
842,000000	35,840600
841,000000	35,797700
840,000000	36,039300
839,000000	35,998100
838,000000	35,971300
837,000000	35,975300
836,000000	36,069500
835,000000	35,971800
834,000000	36,010300
833,000000	36,087600
832,000000	36,100100
831,000000	36,102400
830,000000	36,013100
829,000000	36,110300
828,000000	36,247200
827,000000	36,323200
826,000000	36,243100
825,000000	36,250100
824,000000	36,261700
823,000000	36,394600
822,000000	36,402900
821,000000	36,432300
820,000000	36,470600
819,000000	36,482300
818,000000	36,486400
817,000000	36,495300
816,000000	36,594000
815,000000	36,658100
814,000000	36,636800
813,000000	36,725700
812,000000	36,742000
811,000000	36,838500
810,000000	36,920700
809,000000	36,985400
808,000000	36,983300
807,000000	37,122700
806,000000	37,138000
805,000000	37,124600
804,000000	37,135000
803,000000	37,172900
802,000000	37,205900
801,000000	37,313000
800,000000	37,443200
799,000000	37,497600
798,000000	37,452200
797,000000	37,433000
796,000000	37,499900
795,000000	37,529400
794,000000	37,658900
793,000000	37,657200
792,000000	37,649700
791,000000	37,688700
790,000000	37,723200
789,000000	37,788200
788,000000	37,887500
787,000000	37,912400
786,000000	37,960400
785,000000	37,937400
784,000000	37,960700
783,000000	38,001300
782,000000	38,030600
781,000000	38,065900
780,000000	38,138000
779,000000	38,152600
778,000000	38,142400
777,000000	38,217000
776,000000	38,212400
775,000000	38,184700
774,000000	38,177400
773,000000	38,172800
772,000000	38,152600
771,000000	38,170400
770,000000	38,163500
769,000000	38,126900
768,000000	38,075600
767,000000	38,053600
766,000000	38,009900
765,000000	37,994900
764,000000	38,051600
763,000000	38,043300
762,000000	37,995100
761,000000	37,994700
760,000000	38,038400
759,000000	37,991100
758,000000	37,931900
757,000000	37,872300
756,000000	37,787200
755,000000	37,752500
754,000000	37,765600
753,000000	37,698700
752,000000	37,641300
751,000000	37,565800
750,000000	37,458600
749,000000	37,418500
748,000000	37,418300
747,000000	37,363900
746,000000	37,296100
745,000000	37,241600
744,000000	37,180200
743,000000	37,137400
742,000000	37,056700
741,000000	36,997600
740,000000	36,958800
739,000000	36,871400
738,000000	36,791100
737,000000	36,747100
736,000000	36,681500
735,000000	36,549400
734,000000	36,441900
733,000000	36,364300
732,000000	36,251000
731,000000	36,173400
730,000000	36,070800
729,000000	35,941700
728,000000	35,831400
727,000000	35,721900
726,000000	35,611000
725,000000	35,471400
724,000000	35,362700
723,000000	35,239500
722,000000	35,085200
721,000000	34,936300
720,000000	34,836400
719,000000	34,755100
718,000000	34,613400
717,000000	34,489200
716,000000	34,397600
715,000000	34,254000
714,000000	34,135500
713,000000	34,027600
712,000000	33,905200
711,000000	33,763600
710,000000	33,623800
709,000000	33,493800
708,000000	33,364400
707,000000	33,228000
706,000000	33,090300
705,000000	32,933400
704,000000	32,776200
703,000000	32,615900
702,000000	32,464000
701,000000	32,323500
700,000000	32,186900
699,000000	32,024200
698,000000	31,860700
697,000000	31,689300
696,000000	31,551200
695,000000	31,424700
694,000000	31,294500
693,000000	31,152600
692,000000	30,974100
691,000000	30,794300
690,000000	30,624200
689,000000	30,440200
688,000000	30,305300
687,000000	30,194800
686,000000	30,041900
685,000000	29,832900
684,000000	29,677200
683,000000	29,508900
682,000000	29,334100
681,000000	29,147200
680,000000	28,963600
679,000000	28,771700
678,000000	28,616700
677,000000	28,441600
676,000000	28,292900
675,000000	28,121900
674,000000	27,946300
673,000000	27,785000
672,000000	27,613900
671,000000	27,428700
670,000000	27,277300
669,000000	27,124600
668,000000	26,997200
667,000000	26,913400
666,000000	26,760700
665,000000	26,641100
664,000000	26,552900
663,000000	26,426500
662,000000	26,329500
661,000000	26,234700
660,000000	26,135300
659,000000	26,066100
658,000000	25,948000
657,000000	25,850800
656,000000	25,708100
655,000000	25,643200
654,000000	25,518500
653,000000	25,430000
652,000000	25,352000
651,000000	25,253800
650,000000	25,132100
649,000000	25,017600
648,000000	24,931600
647,000000	24,829700
646,000000	24,698000
645,000000	24,597800
644,000000	24,493000
643,000000	24,434300
642,000000	24,343700
641,000000	24,226900
640,000000	24,141900
639,000000	24,035900
638,000000	23,950000
637,000000	23,864800
636,000000	23,784200
635,000000	23,673400
634,000000	23,546300
633,000000	23,482100
632,000000	23,370800
631,000000	23,261600
630,000000	23,133100
629,000000	23,050800
628,000000	22,928900
627,000000	22,828800
626,000000	22,698900
625,000000	22,598400
624,000000	22,522300
623,000000	22,435100
622,000000	22,313000
621,000000	22,222300
620,000000	22,150300
619,000000	22,058200
618,000000	21,950600
617,000000	21,894300
616,000000	21,856900
615,000000	21,797200
614,000000	21,723500
613,000000	21,658800
612,000000	21,588900
611,000000	21,516300
610,000000	21,442300
609,000000	21,331700
608,000000	21,227600
607,000000	21,140000
606,000000	21,039400
605,000000	20,963300
604,000000	20,868100
603,000000	20,757300
602,000000	20,654200
601,000000	20,573000
600,000000	20,478500
599,000000	20,402700
598,000000	20,354000
597,000000	20,292000
596,000000	20,258100
595,000000	20,203200
594,000000	20,152900
593,000000	20,120800
592,000000	20,114500
591,000000	20,085100
590,000000	20,074100
589,000000	20,053500
588,000000	20,042200
587,000000	20,039800
586,000000	20,032500
585,000000	20,024900
584,000000	20,016700
583,000000	19,968000
582,000000	19,963400
581,000000	19,938200
580,000000	19,910300
579,000000	19,893200
578,000000	19,877600
577,000000	19,856600
576,000000	19,822100
575,000000	19,822600
574,000000	19,817200
573,000000	19,838900
572,000000	19,848300
571,000000	19,875500
570,000000	19,885000
569,000000	19,889300
568,000000	19,906400
567,000000	19,927600
566,000000	19,919700
565,000000	19,952000
564,000000	19,966100
563,000000	19,973800
562,000000	19,996300
561,000000	20,040500
560,000000	20,071600
559,000000	20,116000
558,000000	20,179600
557,000000	20,232200
556,000000	20,299700
555,000000	20,342700
554,000000	20,356600
553,000000	20,396100
552,000000	20,423900
551,000000	20,438500
550,000000	20,471400
549,000000	20,503800
548,000000	20,546300
547,000000	20,594300
546,000000	20,607100
545,000000	20,612200
544,000000	20,646100
543,000000	20,673500
542,000000	20,654500
541,000000	20,661800
540,000000	20,670000
539,000000	20,647800
538,000000	20,622100
537,000000	20,590500
536,000000	20,572000
535,000000	20,560900
534,000000	20,525100
533,000000	20,500700
532,000000	20,449000
531,000000	20,399000
530,000000	20,328900
529,000000	20,260900
528,000000	20,194800
527,000000	20,128300
526,000000	20,039800
525,000000	19,932200
524,000000	19,807900
523,000000	19,681500
522,000000	19,549900
521,000000	19,448900
520,000000	19,328200
519,000000	19,232600
518,000000	19,089100
517,000000	18,935700
516,000000	18,797100
515,000000	18,670600
514,000000	18,514800
513,000000	18,360400
512,000000	18,222600
511,000000	18,093900
510,000000	17,967100
509,000000	17,832600
508,000000	17,690700
507,000000	17,556200
506,000000	17,439600
505,000000	17,314300
504,000000	17,194300
503,000000	17,084400
502,000000	16,954100
501,000000	16,807300
500,000000	16,686000
499,000000	16,533000
498,000000	16,390600
497,000000	16,263800
496,000000	16,147900
495,000000	16,026600
494,000000	15,887300
493,000000	15,742100
492,000000	15,601300
491,000000	15,462600
490,000000	15,330200
489,000000	15,162600
488,000000	14,987500
487,000000	14,832500
486,000000	14,679700
485,000000	14,517700
484,000000	14,342200
483,000000	14,140800
482,000000	13,869100
481,000000	13,559300
480,000000	13,264700
479,000000	13,044100
478,000000	12,848300
477,000000	12,648100
476,000000	12,452800
475,000000	12,253900
474,000000	12,053600
473,000000	11,844000
472,000000	11,649000
471,000000	11,464600
470,000000	11,278700
469,000000	11,093900
468,000000	10,916900
467,000000	10,747000
466,000000	10,589900
465,000000	10,420500
464,000000	10,255500
463,000000	10,112300
462,000000	9,968500
461,000000	9,833600
460,000000	9,700600
459,000000	9,568400
458,000000	9,443800
457,000000	9,320700
456,000000	9,198700
455,000000	9,081800
454,000000	8,983100
453,000000	8,883800
452,000000	8,779600
451,000000	8,688300
450,000000	8,610400
449,000000	8,535000
448,000000	8,451200
447,000000	8,375600
446,000000	8,315000
445,000000	8,280900
444,000000	8,240100
443,000000	8,170100
442,000000	8,119600
441,000000	8,085000
440,000000	8,049000
439,000000	8,015400
438,000000	7,987900
437,000000	7,967100
436,000000	7,952900
435,000000	7,934600
434,000000	7,923600
433,000000	7,916200
432,000000	7,900800
431,000000	7,883800
430,000000	7,865800
429,000000	7,853900
428,000000	7,834100
427,000000	7,809400
426,000000	7,787600
425,000000	7,755300
424,000000	7,736900
423,000000	7,706000
422,000000	7,658600
421,000000	7,613800
420,000000	7,552700
419,000000	7,491800
418,000000	7,437600
417,000000	7,385500
416,000000	7,323500
415,000000	7,247700
414,000000	7,177600
413,000000	7,102100
412,000000	7,026700
411,000000	6,964200
410,000000	6,887500
409,000000	6,806900
408,000000	6,720600
407,000000	6,632100
406,000000	6,540600
405,000000	6,445700
404,000000	6,347300
403,000000	6,253200
402,000000	6,154600
401,000000	6,049500
400,000000	5,947000
399,000000	5,839300
398,000000	5,741600
397,000000	5,645600
396,000000	5,547700
395,000000	5,429900
394,000000	5,316200
393,000000	5,213600
392,000000	5,117000
391,000000	4,996400
390,000000	4,885500
389,000000	4,794400
388,000000	4,676700
387,000000	4,574800
386,000000	4,471600
385,000000	4,377900
384,000000	4,282400
383,000000	4,183200
382,000000	4,086500
381,000000	3,996800
380,000000	3,911300
379,000000	3,818900
378,000000	3,740100
377,000000	3,675600
376,000000	3,707300
375,000000	3,393100
374,000000	3,158600
373,000000	3,336200
372,000000	3,257900
371,000000	3,217500
370,000000	3,202300
369,000000	3,169400
368,000000	3,099200
367,000000	3,147500
366,000000	3,012000
365,000000	2,999500
364,000000	2,934300
363,000000	2,909000
362,000000	2,924500
361,000000	2,966500
360,000000	2,861600
359,000000	2,787900
358,000000	2,764600
357,000000	2,796300
356,000000	2,792500
355,000000	2,769100
354,000000	2,846000
353,000000	2,693500
352,000000	2,700100
351,000000	2,708700
350,000000	2,670000
349,000000	2,690300
348,000000	2,605900
347,000000	2,579100
346,000000	2,624200
345,000000	2,603500
344,000000	2,619200
343,000000	2,598700
342,000000	2,521400
341,000000	2,502600
340,000000	2,512800
339,000000	2,482200
338,000000	2,478800
337,000000	2,605400
336,000000	2,653100
335,000000	2,502600
334,000000	2,436400
333,000000	2,374800
332,000000	2,452000
331,000000	2,442100
330,000000	2,679000
329,000000	2,610600
328,000000	2,656800
327,000000	2,517800
326,000000	2,752400
325,000000	2,914800
324,000000	2,610700
323,000000	2,506200
322,000000	2,664900
321,000000	2,524600
320,000000	2,769000
319,000000	2,999600
318,000000	2,761000
317,000000	3,147800
316,000000	2,429000
315,000000	2,314500
314,000000	2,294700
313,000000	2,312000
312,000000	2,264400
311,000000	2,306700
310,000000	2,277600
309,000000	2,264000
308,000000	2,309100
307,000000	2,303300
306,000000	2,318400
305,000000	2,370300
304,000000	2,275900
303,000000	2,273700
302,000000	2,299900
301,000000	2,325000
300,000000	2,295200
299,000000	2,270400
298,000000	2,312400
297,000000	2,316100
296,000000	2,230600
295,000000	2,318400
294,000000	2,321500
293,000000	2,314400
292,000000	2,273300
291,000000	2,288200
290,000000	2,261200
289,000000	2,266500
288,000000	2,265700
287,000000	2,316000
286,000000	2,308600
285,000000	2,292900
284,000000	2,354200
283,000000	2,282100
282,000000	2,297200
281,000000	2,285500
280,000000	2,277900
279,000000	2,351800
278,000000	2,300600
277,000000	2,304200
276,000000	2,317600
275,000000	2,306300
274,000000	2,294700
273,000000	2,331500
272,000000	2,304400
271,000000	2,280800
270,000000	2,324300
269,000000	2,358200
268,000000	2,337400
267,000000	2,333000
266,000000	2,369700
265,000000	2,394300
264,000000	2,366700
263,000000	2,368900
262,000000	2,427300
261,000000	2,409600
260,000000	2,350600
259,000000	2,377700
258,000000	2,379500
257,000000	2,408700
256,000000	2,403000
255,000000	2,403200
254,000000	2,398700
253,000000	2,361300
252,000000	2,380400
251,000000	2,426300
250,000000	2,460900
