PE UV       SUBTECH     SPECTRUM    ASCII       PEDS        4.00        
   -1
CICIMAUCR0141-3.Sample.ASC
24/04/22
09:38:58.00
24/04/22
09:38:58.00
Vinicio Soto Monge
C. kalinini
250,000000
1
Lambda 1050
1050L1511233
PerkinElmer UV WinLab 6.3.2.0749 / 2.02.05 Lambda 900 UV/VIS/NIR, Aug  7 2015 09:38:08

0
0
3350/servo 860,8/2
0
0
UV/VIS
1
1
1
DoubleDePol,CommonBeamDepol,RBeamAtt,SBeamAtt,60mm sphere, WB InGaAs Detector
0
0
0
0
Program
Program
3350/servo 860,8/2
3350/0,2 860,8/0,2
3350/0,2 860,8/0,2
0
15.00
 
 
 
0
 
860,8
319,2
860,8
Front
100
on
S:100 R:100
0
0
0
0
 
0
 
 
 
0
 
 
0
0
0
0
0
 
 
 
 
0
0


0
0
#HDR
-1
-1
#GR
nm
%R
1.0
0.0
2500,000000
-1,000000
2251
8
96,279600
5,742600
#DATA
2500,000000	12,051200
2499,000000	11,974600
2498,000000	11,892500
2497,000000	11,960500
2496,000000	11,872900
2495,000000	11,834700
2494,000000	11,867200
2493,000000	11,860800
2492,000000	11,815700
2491,000000	11,816800
2490,000000	11,825700
2489,000000	11,832900
2488,000000	11,846600
2487,000000	11,786900
2486,000000	11,786200
2485,000000	11,845800
2484,000000	11,799400
2483,000000	11,850700
2482,000000	11,848500
2481,000000	11,875100
2480,000000	11,856500
2479,000000	11,942700
2478,000000	11,952300
2477,000000	11,955100
2476,000000	11,974500
2475,000000	12,000600
2474,000000	12,016400
2473,000000	12,099700
2472,000000	12,103500
2471,000000	12,199800
2470,000000	12,206600
2469,000000	12,217700
2468,000000	12,269600
2467,000000	12,354200
2466,000000	12,364700
2465,000000	12,431000
2464,000000	12,492400
2463,000000	12,540000
2462,000000	12,608000
2461,000000	12,671600
2460,000000	12,751200
2459,000000	12,813100
2458,000000	12,873600
2457,000000	12,971600
2456,000000	13,030200
2455,000000	13,102500
2454,000000	13,193600
2453,000000	13,307000
2452,000000	13,359500
2451,000000	13,469400
2450,000000	13,547700
2449,000000	13,670500
2448,000000	13,778700
2447,000000	13,884300
2446,000000	13,979800
2445,000000	14,082000
2444,000000	14,205700
2443,000000	14,312400
2442,000000	14,431300
2441,000000	14,541300
2440,000000	14,638600
2439,000000	14,759000
2438,000000	14,867600
2437,000000	14,961200
2436,000000	15,082900
2435,000000	15,199700
2434,000000	15,292300
2433,000000	15,376200
2432,000000	15,480600
2431,000000	15,580900
2430,000000	15,679200
2429,000000	15,771300
2428,000000	15,869200
2427,000000	15,960500
2426,000000	16,049000
2425,000000	16,129200
2424,000000	16,203000
2423,000000	16,252900
2422,000000	16,313600
2421,000000	16,377300
2420,000000	16,436100
2419,000000	16,488500
2418,000000	16,572900
2417,000000	16,630300
2416,000000	16,684100
2415,000000	16,729800
2414,000000	16,756800
2413,000000	16,799900
2412,000000	16,837800
2411,000000	16,855900
2410,000000	16,893700
2409,000000	16,934800
2408,000000	16,959000
2407,000000	16,968800
2406,000000	17,011000
2405,000000	17,039700
2404,000000	17,039600
2403,000000	17,051500
2402,000000	17,059500
2401,000000	17,091300
2400,000000	17,109200
2399,000000	17,114600
2398,000000	17,126500
2397,000000	17,127100
2396,000000	17,130300
2395,000000	17,151100
2394,000000	17,150100
2393,000000	17,161700
2392,000000	17,173900
2391,000000	17,174400
2390,000000	17,162000
2389,000000	17,156500
2388,000000	17,162900
2387,000000	17,167300
2386,000000	17,156900
2385,000000	17,140800
2384,000000	17,132800
2383,000000	17,106500
2382,000000	17,083100
2381,000000	17,075000
2380,000000	17,049100
2379,000000	17,020900
2378,000000	17,019000
2377,000000	16,996700
2376,000000	16,952500
2375,000000	16,929800
2374,000000	16,926100
2373,000000	16,906900
2372,000000	16,875100
2371,000000	16,848200
2370,000000	16,829200
2369,000000	16,801900
2368,000000	16,784400
2367,000000	16,785400
2366,000000	16,779000
2365,000000	16,756600
2364,000000	16,736500
2363,000000	16,729800
2362,000000	16,720900
2361,000000	16,687400
2360,000000	16,669100
2359,000000	16,671600
2358,000000	16,655500
2357,000000	16,628800
2356,000000	16,598500
2355,000000	16,575600
2354,000000	16,558600
2353,000000	16,520100
2352,000000	16,486300
2351,000000	16,471400
2350,000000	16,449200
2349,000000	16,408000
2348,000000	16,365700
2347,000000	16,346100
2346,000000	16,321400
2345,000000	16,285500
2344,000000	16,266600
2343,000000	16,252200
2342,000000	16,224300
2341,000000	16,209600
2340,000000	16,187000
2339,000000	16,162300
2338,000000	16,140000
2337,000000	16,125000
2336,000000	16,116300
2335,000000	16,120100
2334,000000	16,112600
2333,000000	16,107900
2332,000000	16,109700
2331,000000	16,122200
2330,000000	16,117800
2329,000000	16,130600
2328,000000	16,151400
2327,000000	16,163300
2326,000000	16,193600
2325,000000	16,199400
2324,000000	16,218900
2323,000000	16,237000
2322,000000	16,227000
2321,000000	16,216100
2320,000000	16,221300
2319,000000	16,222600
2318,000000	16,202100
2317,000000	16,195400
2316,000000	16,158200
2315,000000	16,128300
2314,000000	16,088200
2313,000000	16,037300
2312,000000	16,012200
2311,000000	15,985700
2310,000000	15,952700
2309,000000	15,896100
2308,000000	15,843200
2307,000000	15,828200
2306,000000	15,796400
2305,000000	15,751300
2304,000000	15,746100
2303,000000	15,725900
2302,000000	15,716000
2301,000000	15,692800
2300,000000	15,692700
2299,000000	15,684900
2298,000000	15,690300
2297,000000	15,708300
2296,000000	15,712400
2295,000000	15,731000
2294,000000	15,728100
2293,000000	15,766900
2292,000000	15,779400
2291,000000	15,804800
2290,000000	15,826300
2289,000000	15,839800
2288,000000	15,884300
2287,000000	15,902300
2286,000000	15,943600
2285,000000	15,966000
2284,000000	15,996500
2283,000000	16,033200
2282,000000	16,068500
2281,000000	16,111300
2280,000000	16,143000
2279,000000	16,145800
2278,000000	16,182900
2277,000000	16,191100
2276,000000	16,214300
2275,000000	16,240500
2274,000000	16,246400
2273,000000	16,260600
2272,000000	16,296400
2271,000000	16,314900
2270,000000	16,340600
2269,000000	16,384100
2268,000000	16,392800
2267,000000	16,444900
2266,000000	16,508300
2265,000000	16,578300
2264,000000	16,641500
2263,000000	16,724400
2262,000000	16,833000
2261,000000	16,936800
2260,000000	17,067900
2259,000000	17,197200
2258,000000	17,304300
2257,000000	17,445000
2256,000000	17,612200
2255,000000	17,752600
2254,000000	17,915900
2253,000000	18,044800
2252,000000	18,220700
2251,000000	18,366000
2250,000000	18,520700
2249,000000	18,682800
2248,000000	18,804600
2247,000000	18,926700
2246,000000	19,051300
2245,000000	19,154300
2244,000000	19,244000
2243,000000	19,344600
2242,000000	19,427400
2241,000000	19,483500
2240,000000	19,547100
2239,000000	19,588100
2238,000000	19,602000
2237,000000	19,648200
2236,000000	19,662200
2235,000000	19,670900
2234,000000	19,678800
2233,000000	19,676000
2232,000000	19,628500
2231,000000	19,602200
2230,000000	19,544100
2229,000000	19,544800
2228,000000	19,464200
2227,000000	19,425200
2226,000000	19,379000
2225,000000	19,295100
2224,000000	19,218700
2223,000000	19,150400
2222,000000	19,065500
2221,000000	18,991300
2220,000000	18,914000
2219,000000	18,825500
2218,000000	18,754500
2217,000000	18,643400
2216,000000	18,554700
2215,000000	18,470700
2214,000000	18,387100
2213,000000	18,316400
2212,000000	18,234800
2211,000000	18,160800
2210,000000	18,094000
2209,000000	18,008600
2208,000000	17,927200
2207,000000	17,878900
2206,000000	17,829700
2205,000000	17,773900
2204,000000	17,702200
2203,000000	17,637000
2202,000000	17,587200
2201,000000	17,539400
2200,000000	17,452600
2199,000000	17,423100
2198,000000	17,386600
2197,000000	17,342000
2196,000000	17,309800
2195,000000	17,259800
2194,000000	17,219300
2193,000000	17,171200
2192,000000	17,151600
2191,000000	17,102200
2190,000000	17,070800
2189,000000	17,059800
2188,000000	17,028100
2187,000000	16,996600
2186,000000	16,963100
2185,000000	16,947200
2184,000000	16,899400
2183,000000	16,863000
2182,000000	16,855500
2181,000000	16,805400
2180,000000	16,784100
2179,000000	16,774700
2178,000000	16,766000
2177,000000	16,744100
2176,000000	16,722700
2175,000000	16,718400
2174,000000	16,708800
2173,000000	16,715300
2172,000000	16,708500
2171,000000	16,723100
2170,000000	16,727800
2169,000000	16,757100
2168,000000	16,781800
2167,000000	16,798400
2166,000000	16,835200
2165,000000	16,874600
2164,000000	16,919700
2163,000000	16,936200
2162,000000	16,999200
2161,000000	17,064800
2160,000000	17,115300
2159,000000	17,167300
2158,000000	17,243400
2157,000000	17,332100
2156,000000	17,415800
2155,000000	17,505500
2154,000000	17,602800
2153,000000	17,702000
2152,000000	17,796100
2151,000000	17,913300
2150,000000	18,022900
2149,000000	18,110900
2148,000000	18,213500
2147,000000	18,307600
2146,000000	18,411200
2145,000000	18,520000
2144,000000	18,620900
2143,000000	18,710100
2142,000000	18,814000
2141,000000	18,912100
2140,000000	19,007300
2139,000000	19,094900
2138,000000	19,180100
2137,000000	19,274700
2136,000000	19,371700
2135,000000	19,452900
2134,000000	19,528900
2133,000000	19,596900
2132,000000	19,650900
2131,000000	19,716600
2130,000000	19,792000
2129,000000	19,861600
2128,000000	19,908300
2127,000000	19,948300
2126,000000	20,001500
2125,000000	20,057800
2124,000000	20,116400
2123,000000	20,153100
2122,000000	20,180700
2121,000000	20,219100
2120,000000	20,255700
2119,000000	20,284900
2118,000000	20,290500
2117,000000	20,304500
2116,000000	20,337900
2115,000000	20,357800
2114,000000	20,360800
2113,000000	20,380400
2112,000000	20,393900
2111,000000	20,387300
2110,000000	20,384600
2109,000000	20,384600
2108,000000	20,381200
2107,000000	20,382000
2106,000000	20,387100
2105,000000	20,398300
2104,000000	20,392300
2103,000000	20,387900
2102,000000	20,407400
2101,000000	20,406300
2100,000000	20,394800
2099,000000	20,408700
2098,000000	20,410500
2097,000000	20,410800
2096,000000	20,428400
2095,000000	20,441000
2094,000000	20,464600
2093,000000	20,483900
2092,000000	20,506500
2091,000000	20,521300
2090,000000	20,544400
2089,000000	20,574200
2088,000000	20,582600
2087,000000	20,594000
2086,000000	20,605800
2085,000000	20,608000
2084,000000	20,604900
2083,000000	20,583700
2082,000000	20,564300
2081,000000	20,550200
2080,000000	20,499600
2079,000000	20,449600
2078,000000	20,401700
2077,000000	20,343700
2076,000000	20,277800
2075,000000	20,195300
2074,000000	20,115100
2073,000000	20,033000
2072,000000	19,944300
2071,000000	19,844500
2070,000000	19,738200
2069,000000	19,627900
2068,000000	19,496600
2067,000000	19,372000
2066,000000	19,254300
2065,000000	19,132700
2064,000000	19,024900
2063,000000	18,910600
2062,000000	18,790900
2061,000000	18,679300
2060,000000	18,591500
2059,000000	18,494600
2058,000000	18,409600
2057,000000	18,362200
2056,000000	18,321200
2055,000000	18,269500
2054,000000	18,256600
2053,000000	18,274000
2052,000000	18,291900
2051,000000	18,335300
2050,000000	18,398500
2049,000000	18,478900
2048,000000	18,565700
2047,000000	18,679900
2046,000000	18,796100
2045,000000	18,923500
2044,000000	19,066900
2043,000000	19,192000
2042,000000	19,327300
2041,000000	19,473100
2040,000000	19,600000
2039,000000	19,725600
2038,000000	19,860000
2037,000000	19,990300
2036,000000	20,105900
2035,000000	20,228700
2034,000000	20,341900
2033,000000	20,446000
2032,000000	20,528900
2031,000000	20,615600
2030,000000	20,728300
2029,000000	20,820700
2028,000000	20,893700
2027,000000	20,974500
2026,000000	21,069000
2025,000000	21,132200
2024,000000	21,195500
2023,000000	21,254600
2022,000000	21,320700
2021,000000	21,376700
2020,000000	21,443100
2019,000000	21,499100
2018,000000	21,525200
2017,000000	21,567800
2016,000000	21,608100
2015,000000	21,636300
2014,000000	21,667400
2013,000000	21,685900
2012,000000	21,690900
2011,000000	21,707600
2010,000000	21,692700
2009,000000	21,689900
2008,000000	21,682100
2007,000000	21,652500
2006,000000	21,636000
2005,000000	21,609800
2004,000000	21,571000
2003,000000	21,509500
2002,000000	21,475800
2001,000000	21,438300
2000,000000	21,351800
1999,000000	21,313200
1998,000000	21,234800
1997,000000	21,156500
1996,000000	21,096100
1995,000000	21,011700
1994,000000	20,927600
1993,000000	20,849800
1992,000000	20,754600
1991,000000	20,668300
1990,000000	20,585400
1989,000000	20,485600
1988,000000	20,387300
1987,000000	20,291500
1986,000000	20,184500
1985,000000	20,078400
1984,000000	19,987500
1983,000000	19,882800
1982,000000	19,778300
1981,000000	19,691700
1980,000000	19,582800
1979,000000	19,478100
1978,000000	19,380300
1977,000000	19,280200
1976,000000	19,182900
1975,000000	19,085400
1974,000000	18,993300
1973,000000	18,927300
1972,000000	18,826600
1971,000000	18,727800
1970,000000	18,647800
1969,000000	18,552900
1968,000000	18,456800
1967,000000	18,379600
1966,000000	18,295000
1965,000000	18,200800
1964,000000	18,117000
1963,000000	18,008600
1962,000000	17,940100
1961,000000	17,834900
1960,000000	17,733900
1959,000000	17,660100
1958,000000	17,575100
1957,000000	17,475600
1956,000000	17,384200
1955,000000	17,287400
1954,000000	17,213700
1953,000000	17,112400
1952,000000	17,029700
1951,000000	16,944000
1950,000000	16,875500
1949,000000	16,804500
1948,000000	16,723300
1947,000000	16,668000
1946,000000	16,611900
1945,000000	16,541900
1944,000000	16,492100
1943,000000	16,458000
1942,000000	16,425400
1941,000000	16,397800
1940,000000	16,383300
1939,000000	16,361000
1938,000000	16,324300
1937,000000	16,305000
1936,000000	16,312700
1935,000000	16,341000
1934,000000	16,345200
1933,000000	16,389200
1932,000000	16,435900
1931,000000	16,493200
1930,000000	16,569800
1929,000000	16,611200
1928,000000	16,713500
1927,000000	16,796300
1926,000000	16,882800
1925,000000	16,997800
1924,000000	17,112100
1923,000000	17,262900
1922,000000	17,440900
1921,000000	17,605700
1920,000000	17,776300
1919,000000	17,949500
1918,000000	18,128000
1917,000000	18,318500
1916,000000	18,559700
1915,000000	18,820300
1914,000000	19,108500
1913,000000	19,431100
1912,000000	19,730100
1911,000000	20,016000
1910,000000	20,297100
1909,000000	20,602300
1908,000000	21,019100
1907,000000	21,450400
1906,000000	21,957100
1905,000000	22,448300
1904,000000	22,905900
1903,000000	23,393100
1902,000000	23,901400
1901,000000	24,463000
1900,000000	25,063700
1899,000000	25,665100
1898,000000	26,278700
1897,000000	26,826700
1896,000000	27,342300
1895,000000	27,924000
1894,000000	28,533500
1893,000000	29,188500
1892,000000	29,857300
1891,000000	30,453500
1890,000000	31,021700
1889,000000	31,616400
1888,000000	32,134800
1887,000000	32,640200
1886,000000	33,143800
1885,000000	33,676300
1884,000000	34,140600
1883,000000	34,600300
1882,000000	34,985400
1881,000000	35,337900
1880,000000	35,685400
1879,000000	36,038100
1878,000000	36,370300
1877,000000	36,676200
1876,000000	36,982400
1875,000000	37,288800
1874,000000	37,555600
1873,000000	37,805300
1872,000000	38,037700
1871,000000	38,223000
1870,000000	38,371800
1869,000000	38,528300
1868,000000	38,639100
1867,000000	38,709400
1866,000000	38,783100
1865,000000	38,879800
1864,000000	38,978800
1863,000000	39,086700
1862,000000	39,188100
1861,000000	39,298900
1860,000000	39,400200
1859,000000	39,460100
1858,000000	39,513700
1857,000000	39,557600
1856,000000	39,603600
1855,000000	39,659000
1854,000000	39,667900
1853,000000	39,674300
1852,000000	39,705400
1851,000000	39,726300
1850,000000	39,769400
1849,000000	39,804800
1848,000000	39,794300
1847,000000	39,731200
1846,000000	39,667600
1845,000000	39,642300
1844,000000	39,645200
1843,000000	39,693500
1842,000000	39,692800
1841,000000	39,645000
1840,000000	39,605400
1839,000000	39,569800
1838,000000	39,533800
1837,000000	39,480600
1836,000000	39,421900
1835,000000	39,355500
1834,000000	39,286800
1833,000000	39,252200
1832,000000	39,243600
1831,000000	39,225900
1830,000000	39,198400
1829,000000	39,161300
1828,000000	39,126400
1827,000000	39,106200
1826,000000	39,076400
1825,000000	39,063300
1824,000000	39,090800
1823,000000	39,165200
1822,000000	39,211400
1821,000000	39,204600
1820,000000	39,180500
1819,000000	39,149500
1818,000000	39,139100
1817,000000	39,154800
1816,000000	39,157800
1815,000000	39,133500
1814,000000	39,127800
1813,000000	39,121000
1812,000000	39,092700
1811,000000	39,049400
1810,000000	39,016800
1809,000000	39,005600
1808,000000	38,989000
1807,000000	38,971500
1806,000000	38,939700
1805,000000	38,912500
1804,000000	38,912600
1803,000000	38,916800
1802,000000	38,908800
1801,000000	38,870900
1800,000000	38,829900
1799,000000	38,809300
1798,000000	38,794800
1797,000000	38,782100
1796,000000	38,768600
1795,000000	38,741900
1794,000000	38,727700
1793,000000	38,716900
1792,000000	38,704000
1791,000000	38,708700
1790,000000	38,701100
1789,000000	38,700300
1788,000000	38,714500
1787,000000	38,724600
1786,000000	38,728200
1785,000000	38,730700
1784,000000	38,728700
1783,000000	38,716500
1782,000000	38,714600
1781,000000	38,690800
1780,000000	38,674700
1779,000000	38,655700
1778,000000	38,623200
1777,000000	38,593700
1776,000000	38,553600
1775,000000	38,497000
1774,000000	38,447900
1773,000000	38,406600
1772,000000	38,365800
1771,000000	38,313800
1770,000000	38,274600
1769,000000	38,236200
1768,000000	38,190600
1767,000000	38,146600
1766,000000	38,138400
1765,000000	38,115300
1764,000000	38,089200
1763,000000	38,083200
1762,000000	38,083900
1761,000000	38,100700
1760,000000	38,119700
1759,000000	38,121600
1758,000000	38,146200
1757,000000	38,148500
1756,000000	38,155300
1755,000000	38,170900
1754,000000	38,202600
1753,000000	38,183800
1752,000000	38,185600
1751,000000	38,185400
1750,000000	38,150900
1749,000000	38,108900
1748,000000	38,072500
1747,000000	37,993000
1746,000000	37,925000
1745,000000	37,843900
1744,000000	37,747100
1743,000000	37,632000
1742,000000	37,536700
1741,000000	37,419700
1740,000000	37,337800
1739,000000	37,243700
1738,000000	37,134200
1737,000000	37,056800
1736,000000	36,987700
1735,000000	36,901300
1734,000000	36,826900
1733,000000	36,715400
1732,000000	36,641200
1731,000000	36,572000
1730,000000	36,486500
1729,000000	36,418300
1728,000000	36,353200
1727,000000	36,309600
1726,000000	36,249600
1725,000000	36,229000
1724,000000	36,243800
1723,000000	36,326900
1722,000000	36,455900
1721,000000	36,625600
1720,000000	36,860200
1719,000000	37,115500
1718,000000	37,391700
1717,000000	37,685000
1716,000000	37,954400
1715,000000	38,204400
1714,000000	38,446000
1713,000000	38,639200
1712,000000	38,855300
1711,000000	39,028200
1710,000000	39,179100
1709,000000	39,318300
1708,000000	39,440300
1707,000000	39,541900
1706,000000	39,649500
1705,000000	39,692700
1704,000000	39,766300
1703,000000	39,811200
1702,000000	39,816100
1701,000000	39,846500
1700,000000	39,842600
1699,000000	39,848200
1698,000000	39,847100
1697,000000	39,804100
1696,000000	39,746900
1695,000000	39,667400
1694,000000	39,549800
1693,000000	39,441300
1692,000000	39,298400
1691,000000	39,167900
1690,000000	39,086400
1689,000000	39,065600
1688,000000	39,068500
1687,000000	39,149900
1686,000000	39,290300
1685,000000	39,460000
1684,000000	39,709700
1683,000000	39,948900
1682,000000	40,210300
1681,000000	40,452300
1680,000000	40,682800
1679,000000	40,889500
1678,000000	41,079800
1677,000000	41,258700
1676,000000	41,428000
1675,000000	41,601300
1674,000000	41,783300
1673,000000	41,938700
1672,000000	42,140000
1671,000000	42,346600
1670,000000	42,515300
1669,000000	42,718000
1668,000000	42,900600
1667,000000	43,094400
1666,000000	43,254400
1665,000000	43,415900
1664,000000	43,586700
1663,000000	43,732400
1662,000000	43,893300
1661,000000	44,025000
1660,000000	44,158300
1659,000000	44,266300
1658,000000	44,364200
1657,000000	44,458600
1656,000000	44,530200
1655,000000	44,581700
1654,000000	44,625400
1653,000000	44,687200
1652,000000	44,723800
1651,000000	44,742200
1650,000000	44,763500
1649,000000	44,773100
1648,000000	44,788400
1647,000000	44,800700
1646,000000	44,796800
1645,000000	44,792400
1644,000000	44,787100
1643,000000	44,788100
1642,000000	44,798000
1641,000000	44,798800
1640,000000	44,797100
1639,000000	44,798400
1638,000000	44,786000
1637,000000	44,779700
1636,000000	44,765200
1635,000000	44,744800
1634,000000	44,710000
1633,000000	44,685600
1632,000000	44,645700
1631,000000	44,613400
1630,000000	44,571900
1629,000000	44,539700
1628,000000	44,499100
1627,000000	44,461200
1626,000000	44,414100
1625,000000	44,375000
1624,000000	44,339400
1623,000000	44,296100
1622,000000	44,258900
1621,000000	44,228800
1620,000000	44,197700
1619,000000	44,158400
1618,000000	44,129300
1617,000000	44,101400
1616,000000	44,058300
1615,000000	44,008500
1614,000000	43,964200
1613,000000	43,915900
1612,000000	43,872900
1611,000000	43,815900
1610,000000	43,747400
1609,000000	43,678400
1608,000000	43,615400
1607,000000	43,538700
1606,000000	43,453400
1605,000000	43,372900
1604,000000	43,303000
1603,000000	43,226200
1602,000000	43,147000
1601,000000	43,071600
1600,000000	42,988900
1599,000000	42,905900
1598,000000	42,839700
1597,000000	42,773300
1596,000000	42,706500
1595,000000	42,654600
1594,000000	42,592700
1593,000000	42,533400
1592,000000	42,488300
1591,000000	42,446600
1590,000000	42,396600
1589,000000	42,348800
1588,000000	42,301500
1587,000000	42,259400
1586,000000	42,201400
1585,000000	42,172000
1584,000000	42,131100
1583,000000	42,070300
1582,000000	42,048300
1581,000000	42,026900
1580,000000	42,008000
1579,000000	41,985600
1578,000000	41,971400
1577,000000	41,968400
1576,000000	41,960800
1575,000000	41,961100
1574,000000	41,969400
1573,000000	41,981600
1572,000000	41,981900
1571,000000	41,990400
1570,000000	42,014700
1569,000000	42,050500
1568,000000	42,076600
1567,000000	42,100200
1566,000000	42,129800
1565,000000	42,143500
1564,000000	42,150500
1563,000000	42,170000
1562,000000	42,181400
1561,000000	42,172500
1560,000000	42,164300
1559,000000	42,154900
1558,000000	42,133600
1557,000000	42,097500
1556,000000	42,049600
1555,000000	41,997400
1554,000000	41,939600
1553,000000	41,869000
1552,000000	41,799900
1551,000000	41,739300
1550,000000	41,661800
1549,000000	41,577800
1548,000000	41,498900
1547,000000	41,430200
1546,000000	41,356800
1545,000000	41,298300
1544,000000	41,259400
1543,000000	41,213200
1542,000000	41,164000
1541,000000	41,125200
1540,000000	41,084800
1539,000000	41,053300
1538,000000	41,016000
1537,000000	40,974900
1536,000000	40,928500
1535,000000	40,870500
1534,000000	40,802400
1533,000000	40,745600
1532,000000	40,694400
1531,000000	40,623000
1530,000000	40,561100
1529,000000	40,491600
1528,000000	40,423000
1527,000000	40,349900
1526,000000	40,282700
1525,000000	40,220000
1524,000000	40,129300
1523,000000	40,052000
1522,000000	39,978300
1521,000000	39,905300
1520,000000	39,817400
1519,000000	39,734700
1518,000000	39,646000
1517,000000	39,561400
1516,000000	39,470000
1515,000000	39,383600
1514,000000	39,294200
1513,000000	39,203400
1512,000000	39,095400
1511,000000	39,016400
1510,000000	38,921600
1509,000000	38,828500
1508,000000	38,737700
1507,000000	38,635600
1506,000000	38,537800
1505,000000	38,444200
1504,000000	38,378200
1503,000000	38,307200
1502,000000	38,230600
1501,000000	38,165300
1500,000000	38,108500
1499,000000	38,060900
1498,000000	38,024600
1497,000000	37,982700
1496,000000	37,943900
1495,000000	37,937400
1494,000000	37,938400
1493,000000	37,936000
1492,000000	37,948200
1491,000000	37,958200
1490,000000	37,980800
1489,000000	38,010200
1488,000000	38,000900
1487,000000	38,029600
1486,000000	38,041600
1485,000000	38,078700
1484,000000	38,103400
1483,000000	38,139600
1482,000000	38,185800
1481,000000	38,224100
1480,000000	38,229900
1479,000000	38,286600
1478,000000	38,334700
1477,000000	38,376400
1476,000000	38,435800
1475,000000	38,508500
1474,000000	38,592900
1473,000000	38,686600
1472,000000	38,781000
1471,000000	38,858400
1470,000000	38,943500
1469,000000	39,015900
1468,000000	39,145200
1467,000000	39,223300
1466,000000	39,320500
1465,000000	39,424400
1464,000000	39,532300
1463,000000	39,639700
1462,000000	39,754300
1461,000000	39,885800
1460,000000	39,983900
1459,000000	40,078400
1458,000000	40,218100
1457,000000	40,334500
1456,000000	40,447500
1455,000000	40,540300
1454,000000	40,647700
1453,000000	40,772500
1452,000000	40,889200
1451,000000	41,007500
1450,000000	41,067800
1449,000000	41,146800
1448,000000	41,271200
1447,000000	41,418900
1446,000000	41,502600
1445,000000	41,607700
1444,000000	41,670300
1443,000000	41,804600
1442,000000	41,919200
1441,000000	42,019800
1440,000000	42,136400
1439,000000	42,274500
1438,000000	42,387800
1437,000000	42,503900
1436,000000	42,620200
1435,000000	42,778100
1434,000000	42,924700
1433,000000	43,098100
1432,000000	43,236200
1431,000000	43,365000
1430,000000	43,543500
1429,000000	43,751500
1428,000000	43,919000
1427,000000	44,142800
1426,000000	44,350000
1425,000000	44,593000
1424,000000	44,809700
1423,000000	45,037100
1422,000000	45,260500
1421,000000	45,577800
1420,000000	45,880300
1419,000000	46,159300
1418,000000	46,400800
1417,000000	46,714900
1416,000000	47,072100
1415,000000	47,457200
1414,000000	47,794600
1413,000000	48,124800
1412,000000	48,482000
1411,000000	48,911600
1410,000000	49,393600
1409,000000	49,778600
1408,000000	50,202700
1407,000000	50,597900
1406,000000	51,013700
1405,000000	51,403400
1404,000000	51,828900
1403,000000	52,181000
1402,000000	52,662100
1401,000000	53,113300
1400,000000	53,438100
1399,000000	53,661900
1398,000000	53,995700
1397,000000	54,451200
1396,000000	54,851700
1395,000000	55,096800
1394,000000	55,339600
1393,000000	55,685800
1392,000000	55,974700
1391,000000	56,226300
1390,000000	56,526700
1389,000000	56,913800
1388,000000	57,144700
1387,000000	57,406700
1386,000000	57,674000
1385,000000	58,004100
1384,000000	58,178400
1383,000000	58,407200
1382,000000	58,563500
1381,000000	58,651400
1380,000000	58,783700
1379,000000	58,873300
1378,000000	58,962400
1377,000000	59,055400
1376,000000	59,155400
1375,000000	59,248000
1374,000000	59,391600
1373,000000	59,557800
1372,000000	59,652400
1371,000000	59,746000
1370,000000	59,825000
1369,000000	59,984200
1368,000000	60,067000
1367,000000	60,137300
1366,000000	60,258400
1365,000000	60,333700
1364,000000	60,399100
1363,000000	60,541100
1362,000000	60,563500
1361,000000	60,558100
1360,000000	60,532300
1359,000000	60,616400
1358,000000	60,664500
1357,000000	60,746600
1356,000000	60,868900
1355,000000	60,969500
1354,000000	61,028800
1353,000000	61,132900
1352,000000	61,336500
1351,000000	61,505900
1350,000000	61,689200
1349,000000	61,888600
1348,000000	62,065700
1347,000000	62,212400
1346,000000	62,358400
1345,000000	62,537600
1344,000000	62,687400
1343,000000	62,827400
1342,000000	62,974000
1341,000000	63,094300
1340,000000	63,207400
1339,000000	63,338800
1338,000000	63,454700
1337,000000	63,546400
1336,000000	63,640400
1335,000000	63,725900
1334,000000	63,806300
1333,000000	63,888700
1332,000000	63,973300
1331,000000	64,041000
1330,000000	64,102400
1329,000000	64,162500
1328,000000	64,209100
1327,000000	64,247100
1326,000000	64,292600
1325,000000	64,342100
1324,000000	64,394400
1323,000000	64,421100
1322,000000	64,446900
1321,000000	64,490900
1320,000000	64,524000
1319,000000	64,541000
1318,000000	64,556300
1317,000000	64,584700
1316,000000	64,619700
1315,000000	64,643600
1314,000000	64,673400
1313,000000	64,700900
1312,000000	64,712300
1311,000000	64,729200
1310,000000	64,750500
1309,000000	64,759200
1308,000000	64,790300
1307,000000	64,809000
1306,000000	64,812200
1305,000000	64,824500
1304,000000	64,822500
1303,000000	64,821000
1302,000000	64,820600
1301,000000	64,811100
1300,000000	64,814300
1299,000000	64,824700
1298,000000	64,814300
1297,000000	64,797400
1296,000000	64,795700
1295,000000	64,777600
1294,000000	64,750300
1293,000000	64,739900
1292,000000	64,722100
1291,000000	64,694700
1290,000000	64,670900
1289,000000	64,649500
1288,000000	64,617300
1287,000000	64,587900
1286,000000	64,550600
1285,000000	64,508700
1284,000000	64,480000
1283,000000	64,453300
1282,000000	64,419800
1281,000000	64,384400
1280,000000	64,354300
1279,000000	64,325400
1278,000000	64,306200
1277,000000	64,283700
1276,000000	64,259500
1275,000000	64,249500
1274,000000	64,240600
1273,000000	64,226700
1272,000000	64,207900
1271,000000	64,189600
1270,000000	64,181600
1269,000000	64,182700
1268,000000	64,177400
1267,000000	64,158300
1266,000000	64,158900
1265,000000	64,143500
1264,000000	64,120300
1263,000000	64,113500
1262,000000	64,098100
1261,000000	64,080600
1260,000000	64,073200
1259,000000	64,085100
1258,000000	64,067900
1257,000000	64,046000
1256,000000	64,049000
1255,000000	64,040600
1254,000000	64,019500
1253,000000	63,982200
1252,000000	63,965000
1251,000000	63,936300
1250,000000	63,885400
1249,000000	63,831700
1248,000000	63,782500
1247,000000	63,751300
1246,000000	63,696400
1245,000000	63,636600
1244,000000	63,588700
1243,000000	63,534100
1242,000000	63,472500
1241,000000	63,430400
1240,000000	63,377300
1239,000000	63,322200
1238,000000	63,257900
1237,000000	63,218600
1236,000000	63,193300
1235,000000	63,146900
1234,000000	63,103900
1233,000000	63,054900
1232,000000	63,008700
1231,000000	62,967800
1230,000000	62,929200
1229,000000	62,897600
1228,000000	62,858000
1227,000000	62,818000
1226,000000	62,789300
1225,000000	62,751200
1224,000000	62,715200
1223,000000	62,672200
1222,000000	62,635600
1221,000000	62,614200
1220,000000	62,576400
1219,000000	62,546800
1218,000000	62,507200
1217,000000	62,478600
1216,000000	62,448600
1215,000000	62,420700
1214,000000	62,388300
1213,000000	62,324900
1212,000000	62,284500
1211,000000	62,237200
1210,000000	62,198000
1209,000000	62,133000
1208,000000	62,093100
1207,000000	62,024500
1206,000000	61,965700
1205,000000	61,900400
1204,000000	61,848000
1203,000000	61,767000
1202,000000	61,716500
1201,000000	61,655300
1200,000000	61,594300
1199,000000	61,529900
1198,000000	61,444800
1197,000000	61,361500
1196,000000	61,282600
1195,000000	61,210200
1194,000000	61,120800
1193,000000	61,045800
1192,000000	60,954000
1191,000000	60,884000
1190,000000	60,797000
1189,000000	60,742500
1188,000000	60,689400
1187,000000	60,670100
1186,000000	60,650600
1185,000000	60,622800
1184,000000	60,630500
1183,000000	60,644600
1182,000000	60,644600
1181,000000	60,665900
1180,000000	60,696800
1179,000000	60,729700
1178,000000	60,740100
1177,000000	60,764900
1176,000000	60,789300
1175,000000	60,796700
1174,000000	60,824700
1173,000000	60,866500
1172,000000	60,915000
1171,000000	60,966000
1170,000000	61,024200
1169,000000	61,088300
1168,000000	61,139200
1167,000000	61,222500
1166,000000	61,336400
1165,000000	61,403500
1164,000000	61,508000
1163,000000	61,587000
1162,000000	61,678900
1161,000000	61,750400
1160,000000	61,831700
1159,000000	61,914100
1158,000000	61,991000
1157,000000	62,058900
1156,000000	62,112200
1155,000000	62,159700
1154,000000	62,191900
1153,000000	62,246800
1152,000000	62,260900
1151,000000	62,285300
1150,000000	62,315300
1149,000000	62,315800
1148,000000	62,313600
1147,000000	62,321300
1146,000000	62,320600
1145,000000	62,321200
1144,000000	62,318000
1143,000000	62,311100
1142,000000	62,340000
1141,000000	62,349600
1140,000000	62,370200
1139,000000	62,424400
1138,000000	62,445300
1137,000000	62,490800
1136,000000	62,550100
1135,000000	62,582200
1134,000000	62,581100
1133,000000	62,575600
1132,000000	62,601300
1131,000000	62,639000
1130,000000	62,677000
1129,000000	62,649300
1128,000000	62,652300
1127,000000	62,674600
1126,000000	62,655100
1125,000000	62,632700
1124,000000	62,635900
1123,000000	62,622100
1122,000000	62,580800
1121,000000	62,540700
1120,000000	62,499400
1119,000000	62,473500
1118,000000	62,444200
1117,000000	62,384800
1116,000000	62,342000
1115,000000	62,287000
1114,000000	62,237000
1113,000000	62,186400
1112,000000	62,147200
1111,000000	62,098900
1110,000000	62,055600
1109,000000	62,019200
1108,000000	61,967600
1107,000000	61,912000
1106,000000	61,856900
1105,000000	61,797300
1104,000000	61,752400
1103,000000	61,705400
1102,000000	61,650500
1101,000000	61,599000
1100,000000	61,529400
1099,000000	61,490600
1098,000000	61,431300
1097,000000	61,362500
1096,000000	61,310800
1095,000000	61,229600
1094,000000	61,189100
1093,000000	61,128600
1092,000000	61,056600
1091,000000	60,984600
1090,000000	60,919700
1089,000000	60,867700
1088,000000	60,810400
1087,000000	60,736100
1086,000000	60,652000
1085,000000	60,598900
1084,000000	60,526300
1083,000000	60,447900
1082,000000	60,368600
1081,000000	60,312100
1080,000000	60,239900
1079,000000	60,161300
1078,000000	60,091100
1077,000000	60,023700
1076,000000	59,959200
1075,000000	59,893000
1074,000000	59,833100
1073,000000	59,767000
1072,000000	59,700500
1071,000000	59,642400
1070,000000	59,593200
1069,000000	59,540700
1068,000000	59,475800
1067,000000	59,412900
1066,000000	59,344000
1065,000000	59,289600
1064,000000	59,239200
1063,000000	59,185300
1062,000000	59,117000
1061,000000	59,047100
1060,000000	58,992600
1059,000000	58,929600
1058,000000	58,866200
1057,000000	58,828500
1056,000000	58,774300
1055,000000	58,720900
1054,000000	58,678300
1053,000000	58,616000
1052,000000	58,566700
1051,000000	58,510200
1050,000000	58,453600
1049,000000	58,421600
1048,000000	58,382900
1047,000000	58,340400
1046,000000	58,289500
1045,000000	58,237500
1044,000000	58,198600
1043,000000	58,152800
1042,000000	58,112200
1041,000000	58,075200
1040,000000	58,047500
1039,000000	58,013600
1038,000000	57,966300
1037,000000	57,922500
1036,000000	57,881800
1035,000000	57,844500
1034,000000	57,809900
1033,000000	57,776100
1032,000000	57,735200
1031,000000	57,699400
1030,000000	57,675000
1029,000000	57,644900
1028,000000	57,610600
1027,000000	57,595000
1026,000000	57,571600
1025,000000	57,551800
1024,000000	57,543100
1023,000000	57,522200
1022,000000	57,509100
1021,000000	57,490400
1020,000000	57,474200
1019,000000	57,477300
1018,000000	57,475700
1017,000000	57,464500
1016,000000	57,455100
1015,000000	57,452500
1014,000000	57,468900
1013,000000	57,474000
1012,000000	57,491000
1011,000000	57,519800
1010,000000	57,513800
1009,000000	57,521000
1008,000000	57,539200
1007,000000	57,568500
1006,000000	57,598400
1005,000000	57,612400
1004,000000	57,646500
1003,000000	57,684300
1002,000000	57,696200
1001,000000	57,726400
1000,000000	57,772900
999,000000	57,803600
998,000000	57,836000
997,000000	57,883700
996,000000	57,920900
995,000000	57,966900
994,000000	58,004600
993,000000	58,055100
992,000000	58,126000
991,000000	58,185200
990,000000	58,224600
989,000000	58,291800
988,000000	58,346500
987,000000	58,406600
986,000000	58,468100
985,000000	58,546600
984,000000	58,621900
983,000000	58,692600
982,000000	58,760100
981,000000	58,841900
980,000000	58,922300
979,000000	59,005900
978,000000	59,066800
977,000000	59,145900
976,000000	59,226400
975,000000	59,322200
974,000000	59,398400
973,000000	59,480400
972,000000	59,569100
971,000000	59,691500
970,000000	59,777600
969,000000	59,860400
968,000000	59,979900
967,000000	60,070500
966,000000	60,178500
965,000000	60,258800
964,000000	60,362200
963,000000	60,486000
962,000000	60,572500
961,000000	60,689000
960,000000	60,782200
959,000000	60,888000
958,000000	61,014300
957,000000	61,098700
956,000000	61,212300
955,000000	61,333000
954,000000	61,433900
953,000000	61,532700
952,000000	61,674100
951,000000	61,773800
950,000000	61,913200
949,000000	62,023800
948,000000	62,141800
947,000000	62,278000
946,000000	62,391300
945,000000	62,506200
944,000000	62,615400
943,000000	62,730300
942,000000	62,843500
941,000000	62,957100
940,000000	63,097200
939,000000	63,208700
938,000000	63,335200
937,000000	63,461900
936,000000	63,595900
935,000000	63,729800
934,000000	63,873000
933,000000	63,991600
932,000000	64,150700
931,000000	64,270100
930,000000	64,390600
929,000000	64,529300
928,000000	64,673300
927,000000	64,809800
926,000000	64,970000
925,000000	65,120800
924,000000	65,268000
923,000000	65,429200
922,000000	65,553600
921,000000	65,699200
920,000000	65,851200
919,000000	66,009000
918,000000	66,170100
917,000000	66,298300
916,000000	66,473400
915,000000	66,629200
914,000000	66,772800
913,000000	66,932300
912,000000	67,090500
911,000000	67,245700
910,000000	67,434800
909,000000	67,600100
908,000000	67,758500
907,000000	67,864600
906,000000	68,009400
905,000000	68,192000
904,000000	68,351800
903,000000	68,494300
902,000000	68,634700
901,000000	68,776500
900,000000	68,918300
899,000000	69,057400
898,000000	69,210300
897,000000	69,373500
896,000000	69,508200
895,000000	69,686400
894,000000	69,843300
893,000000	69,984000
892,000000	70,158600
891,000000	70,356100
890,000000	70,533700
889,000000	70,710100
888,000000	70,867000
887,000000	71,068900
886,000000	71,241900
885,000000	71,424300
884,000000	71,609900
883,000000	71,815300
882,000000	72,012500
881,000000	72,210500
880,000000	72,405000
879,000000	72,610900
878,000000	72,822400
877,000000	73,037400
876,000000	73,279800
875,000000	73,498700
874,000000	73,753800
873,000000	74,008600
872,000000	74,280700
871,000000	74,530500
870,000000	74,797900
869,000000	75,049900
868,000000	75,327100
867,000000	75,573300
866,000000	75,838200
865,000000	76,054600
864,000000	76,270000
863,000000	76,455100
862,000000	76,686400
861,000000	76,847400
860,000000	77,009200
859,000000	77,322300
858,000000	77,535300
857,000000	76,868600
856,000000	77,358700
855,000000	77,740800
854,000000	78,533700
853,000000	79,178000
852,000000	79,209300
851,000000	79,782800
850,000000	79,886000
849,000000	80,734200
848,000000	80,937100
847,000000	81,340800
846,000000	81,806600
845,000000	82,141000
844,000000	82,721400
843,000000	83,210600
842,000000	83,708700
841,000000	84,181000
840,000000	84,583500
839,000000	85,031100
838,000000	85,572200
837,000000	86,018400
836,000000	86,628500
835,000000	87,026500
834,000000	87,470800
833,000000	87,914900
832,000000	88,352500
831,000000	88,673800
830,000000	89,090900
829,000000	89,552600
828,000000	89,986500
827,000000	90,172100
826,000000	90,297900
825,000000	90,719400
824,000000	91,214100
823,000000	91,402000
822,000000	91,652300
821,000000	91,822700
820,000000	92,128200
819,000000	92,180900
818,000000	92,287700
817,000000	92,617800
816,000000	92,845800
815,000000	93,175300
814,000000	93,237000
813,000000	93,215600
812,000000	93,454000
811,000000	93,592300
810,000000	93,674600
809,000000	93,737200
808,000000	93,871700
807,000000	93,770400
806,000000	94,032100
805,000000	94,226600
804,000000	94,275000
803,000000	94,339000
802,000000	94,351600
801,000000	94,334700
800,000000	94,392200
799,000000	94,633000
798,000000	94,702400
797,000000	94,764300
796,000000	94,791700
795,000000	94,876700
794,000000	95,093900
793,000000	95,080100
792,000000	95,153000
791,000000	95,184800
790,000000	95,286400
789,000000	95,350300
788,000000	95,476100
787,000000	95,591400
786,000000	95,771300
785,000000	95,882400
784,000000	95,948700
783,000000	96,060900
782,000000	96,046400
781,000000	96,119000
780,000000	96,167800
779,000000	96,259300
778,000000	96,266000
777,000000	96,200400
776,000000	96,225600
775,000000	96,225500
774,000000	96,266300
773,000000	96,279600
772,000000	96,244300
771,000000	96,204900
770,000000	96,123900
769,000000	96,136800
768,000000	96,207700
767,000000	96,161100
766,000000	96,087600
765,000000	96,070600
764,000000	95,937700
763,000000	95,795400
762,000000	95,648200
761,000000	95,496400
760,000000	95,329700
759,000000	95,201200
758,000000	95,010200
757,000000	94,744300
756,000000	94,556000
755,000000	94,334500
754,000000	94,084100
753,000000	93,915200
752,000000	93,704700
751,000000	93,386400
750,000000	93,153400
749,000000	92,945300
748,000000	92,637100
747,000000	92,371800
746,000000	92,022800
745,000000	91,708700
744,000000	91,417400
743,000000	91,016500
742,000000	90,596200
741,000000	90,214100
740,000000	89,907400
739,000000	89,420000
738,000000	88,835900
737,000000	88,419400
736,000000	87,913400
735,000000	87,396600
734,000000	86,905800
733,000000	86,363400
732,000000	85,792900
731,000000	85,207900
730,000000	84,733500
729,000000	84,243400
728,000000	83,687500
727,000000	83,254700
726,000000	82,813500
725,000000	82,354200
724,000000	81,868700
723,000000	81,401800
722,000000	80,985200
721,000000	80,526700
720,000000	80,074200
719,000000	79,691500
718,000000	79,284200
717,000000	78,826900
716,000000	78,467400
715,000000	78,082800
714,000000	77,694900
713,000000	77,342200
712,000000	76,938800
711,000000	76,629800
710,000000	76,359700
709,000000	76,035700
708,000000	75,780700
707,000000	75,494700
706,000000	75,253300
705,000000	74,990200
704,000000	74,737000
703,000000	74,492700
702,000000	74,263700
701,000000	74,051200
700,000000	73,796900
699,000000	73,458200
698,000000	73,087600
697,000000	72,791400
696,000000	72,459500
695,000000	71,994800
694,000000	71,503700
693,000000	71,073300
692,000000	70,570500
691,000000	70,083600
690,000000	69,523100
689,000000	69,025000
688,000000	68,523600
687,000000	68,077500
686,000000	67,601400
685,000000	67,192800
684,000000	66,771400
683,000000	66,385200
682,000000	66,025300
681,000000	65,676400
680,000000	65,325900
679,000000	64,997800
678,000000	64,673900
677,000000	64,347100
676,000000	64,030400
675,000000	63,719500
674,000000	63,395800
673,000000	63,105100
672,000000	62,735500
671,000000	62,425700
670,000000	62,150000
669,000000	61,871500
668,000000	61,622200
667,000000	61,416500
666,000000	61,283600
665,000000	61,205900
664,000000	61,088000
663,000000	61,098100
662,000000	61,110900
661,000000	61,095900
660,000000	61,146900
659,000000	61,184900
658,000000	61,212700
657,000000	61,193000
656,000000	61,256500
655,000000	61,224100
654,000000	61,105800
653,000000	60,985700
652,000000	60,795500
651,000000	60,606500
650,000000	60,411500
649,000000	60,204300
648,000000	59,973000
647,000000	59,808400
646,000000	59,654800
645,000000	59,526600
644,000000	59,451500
643,000000	59,366100
642,000000	59,347100
641,000000	59,368500
640,000000	59,343700
639,000000	59,414200
638,000000	59,493800
637,000000	59,576700
636,000000	59,609800
635,000000	59,699200
634,000000	59,718100
633,000000	59,736100
632,000000	59,801000
631,000000	59,809000
630,000000	59,886100
629,000000	59,945500
628,000000	59,982100
627,000000	60,107600
626,000000	60,215700
625,000000	60,390000
624,000000	60,624300
623,000000	60,859400
622,000000	61,180500
621,000000	61,547600
620,000000	61,921200
619,000000	62,315800
618,000000	62,810200
617,000000	63,227800
616,000000	63,721700
615,000000	64,191800
614,000000	64,720700
613,000000	65,212700
612,000000	65,654700
611,000000	66,172700
610,000000	66,646600
609,000000	67,107500
608,000000	67,614100
607,000000	68,153300
606,000000	68,613800
605,000000	69,124000
604,000000	69,604300
603,000000	70,136600
602,000000	70,601300
601,000000	71,112200
600,000000	71,566200
599,000000	72,040500
598,000000	72,485200
597,000000	72,949900
596,000000	73,444500
595,000000	73,849100
594,000000	74,245900
593,000000	74,635800
592,000000	74,975700
591,000000	75,264300
590,000000	75,515300
589,000000	75,765300
588,000000	75,891000
587,000000	76,083100
586,000000	76,163500
585,000000	76,310500
584,000000	76,382700
583,000000	76,411800
582,000000	76,397100
581,000000	76,398900
580,000000	76,411600
579,000000	76,284600
578,000000	76,182900
577,000000	76,072700
576,000000	75,946200
575,000000	75,796600
574,000000	75,654300
573,000000	75,519200
572,000000	75,379300
571,000000	75,225500
570,000000	75,065500
569,000000	74,860500
568,000000	74,616000
567,000000	74,322200
566,000000	74,062400
565,000000	73,798900
564,000000	73,507500
563,000000	73,210100
562,000000	72,857100
561,000000	72,552600
560,000000	72,158300
559,000000	71,721800
558,000000	71,303800
557,000000	70,859500
556,000000	70,440300
555,000000	69,946500
554,000000	69,483600
553,000000	69,008700
552,000000	68,446100
551,000000	67,858600
550,000000	67,262100
549,000000	66,619200
548,000000	65,961500
547,000000	65,266400
546,000000	64,544400
545,000000	63,783200
544,000000	63,005700
543,000000	62,166000
542,000000	61,305000
541,000000	60,408700
540,000000	59,486000
539,000000	58,534900
538,000000	57,593200
537,000000	56,662700
536,000000	55,707200
535,000000	54,736400
534,000000	53,795500
533,000000	52,852100
532,000000	51,904600
531,000000	51,004300
530,000000	50,121300
529,000000	49,288800
528,000000	48,482200
527,000000	47,704600
526,000000	46,955800
525,000000	46,230700
524,000000	45,517600
523,000000	44,814900
522,000000	44,144700
521,000000	43,501300
520,000000	42,869200
519,000000	42,262200
518,000000	41,639000
517,000000	41,039600
516,000000	40,427800
515,000000	39,820300
514,000000	39,185000
513,000000	38,560700
512,000000	37,934800
511,000000	37,293500
510,000000	36,645200
509,000000	36,002300
508,000000	35,324900
507,000000	34,655500
506,000000	33,980500
505,000000	33,315300
504,000000	32,655100
503,000000	31,984800
502,000000	31,345700
501,000000	30,735400
500,000000	30,157700
499,000000	29,609500
498,000000	29,128900
497,000000	28,698900
496,000000	28,299600
495,000000	27,974500
494,000000	27,714200
493,000000	27,499700
492,000000	27,320900
491,000000	27,216100
490,000000	27,195100
489,000000	27,199700
488,000000	27,263600
487,000000	27,358900
486,000000	27,484000
485,000000	27,636700
484,000000	27,828500
483,000000	28,030500
482,000000	28,236000
481,000000	28,447800
480,000000	28,642500
479,000000	28,837400
478,000000	29,023700
477,000000	29,189100
476,000000	29,359300
475,000000	29,511300
474,000000	29,622800
473,000000	29,732000
472,000000	29,815200
471,000000	29,868900
470,000000	29,900900
469,000000	29,930700
468,000000	29,946000
467,000000	29,927500
466,000000	29,879000
465,000000	29,807300
464,000000	29,742200
463,000000	29,648700
462,000000	29,522700
461,000000	29,413600
460,000000	29,289300
459,000000	29,135900
458,000000	28,950000
457,000000	28,760200
456,000000	28,577400
455,000000	28,379900
454,000000	28,152500
453,000000	27,905300
452,000000	27,659300
451,000000	27,411800
450,000000	27,145200
449,000000	26,843200
448,000000	26,542300
447,000000	26,245200
446,000000	25,927400
445,000000	25,583100
444,000000	25,207900
443,000000	24,838700
442,000000	24,449800
441,000000	24,025700
440,000000	23,618000
439,000000	23,197600
438,000000	22,749700
437,000000	22,301400
436,000000	21,829000
435,000000	21,334800
434,000000	20,838500
433,000000	20,335900
432,000000	19,814900
431,000000	19,280700
430,000000	18,752800
429,000000	18,234400
428,000000	17,698100
427,000000	17,168400
426,000000	16,630900
425,000000	16,102000
424,000000	15,577700
423,000000	15,063500
422,000000	14,556800
421,000000	14,061700
420,000000	13,585300
419,000000	13,129500
418,000000	12,682600
417,000000	12,251200
416,000000	11,852100
415,000000	11,462700
414,000000	11,094600
413,000000	10,750600
412,000000	10,409300
411,000000	10,099000
410,000000	9,807500
409,000000	9,537100
408,000000	9,293500
407,000000	9,060000
406,000000	8,842100
405,000000	8,641500
404,000000	8,468600
403,000000	8,302200
402,000000	8,127300
401,000000	7,987300
400,000000	7,870100
399,000000	7,735200
398,000000	7,624600
397,000000	7,522500
396,000000	7,442800
395,000000	7,349500
394,000000	7,264700
393,000000	7,169400
392,000000	7,099400
391,000000	7,046200
390,000000	6,984300
389,000000	6,928000
388,000000	6,880000
387,000000	6,849600
386,000000	6,807700
385,000000	6,755900
384,000000	6,688900
383,000000	6,650500
382,000000	6,625100
381,000000	6,596600
380,000000	6,555300
379,000000	6,529800
378,000000	6,504500
377,000000	6,490100
376,000000	6,441300
375,000000	6,144800
374,000000	5,955600
373,000000	6,076700
372,000000	6,151800
371,000000	6,095400
370,000000	6,012100
369,000000	6,024300
368,000000	6,191300
367,000000	6,168200
366,000000	6,110500
365,000000	6,096900
364,000000	6,123300
363,000000	6,064100
362,000000	6,142100
361,000000	6,209700
360,000000	6,071200
359,000000	5,999900
358,000000	6,109600
357,000000	6,093300
356,000000	6,074100
355,000000	6,060200
354,000000	6,016500
353,000000	6,048400
352,000000	5,901500
351,000000	5,983100
350,000000	6,060500
349,000000	5,946500
348,000000	5,986900
347,000000	6,026500
346,000000	6,023900
345,000000	5,844300
344,000000	6,018600
343,000000	5,990900
342,000000	5,996100
341,000000	6,007600
340,000000	5,932300
339,000000	5,879000
338,000000	5,937600
337,000000	5,976000
336,000000	6,021600
335,000000	5,815000
334,000000	6,081200
333,000000	6,003500
332,000000	5,890600
331,000000	6,226000
330,000000	6,164400
329,000000	6,032700
328,000000	6,044300
327,000000	6,147700
326,000000	6,028900
325,000000	6,379000
324,000000	6,320400
323,000000	5,957200
322,000000	6,400500
321,000000	6,257500
320,000000	6,501700
319,000000	6,413200
318,000000	6,128600
317,000000	6,286200
316,000000	5,885600
315,000000	5,783100
314,000000	5,787200
313,000000	5,826000
312,000000	5,753800
311,000000	5,827700
310,000000	5,845700
309,000000	5,810800
308,000000	5,857400
307,000000	5,893100
306,000000	5,854100
305,000000	5,804000
304,000000	5,742600
303,000000	5,799200
302,000000	5,840700
301,000000	5,767800
300,000000	5,801800
299,000000	5,842400
298,000000	5,842300
297,000000	5,816500
296,000000	5,850000
295,000000	5,866500
294,000000	5,839700
293,000000	5,822400
292,000000	5,871300
291,000000	5,875000
290,000000	5,855700
289,000000	5,843000
288,000000	5,881100
287,000000	5,923100
286,000000	5,950400
285,000000	5,895000
284,000000	5,921300
283,000000	5,878700
282,000000	5,925800
281,000000	5,943300
280,000000	6,008800
279,000000	5,921000
278,000000	5,939700
277,000000	5,937600
276,000000	5,964200
275,000000	5,987600
274,000000	5,963300
273,000000	5,918400
272,000000	5,969000
271,000000	5,983300
270,000000	6,058500
269,000000	6,056200
268,000000	6,083400
267,000000	6,071700
266,000000	6,111200
265,000000	6,126300
264,000000	6,158700
263,000000	6,183000
262,000000	6,242800
261,000000	6,215800
260,000000	6,269600
259,000000	6,286200
258,000000	6,198100
257,000000	6,304100
256,000000	6,301700
255,000000	6,279800
254,000000	6,332500
253,000000	6,323200
252,000000	6,365400
251,000000	6,319900
250,000000	6,297300
