PE UV       SUBTECH     SPECTRUM    ASCII       PEDS        4.00        
   -1
CICIMAUCR0113-4.Sample.ASC
24/04/18
17:16:39.00
24/04/18
17:16:39.00
Vinicio Soto Monge
C. kalinini
250,000000
1
Lambda 1050
1050L1511233
PerkinElmer UV WinLab 6.3.2.0749 / 2.02.05 Lambda 900 UV/VIS/NIR, Aug  7 2015 09:38:08

0
0
3350/servo 860,8/2
0
0
UV/VIS
1
1
1
DoubleDePol,CommonBeamDepol,RBeamAtt,SBeamAtt,60mm sphere, WB InGaAs Detector
0
0
0
0
Program
Program
3350/servo 860,8/2
3350/0,2 860,8/0,2
3350/0,2 860,8/0,2
0
15.00
 
 
 
0
 
860,8
319,2
860,8
Front
100
on
S:100 R:100
0
0
0
0
 
0
 
 
 
0
 
 
0
0
0
0
0
 
 
 
 
0
0


0
0
#HDR
-1
-1
#GR
nm
%R
1.0
0.0
2500,000000
-1,000000
2251
8
46,046400
2,843400
#DATA
2500,000000	5,348500
2499,000000	5,247100
2498,000000	5,238800
2497,000000	5,185300
2496,000000	5,158900
2495,000000	5,169400
2494,000000	5,089700
2493,000000	5,076500
2492,000000	5,031400
2491,000000	5,060900
2490,000000	4,977000
2489,000000	5,057200
2488,000000	5,085200
2487,000000	5,038300
2486,000000	5,035300
2485,000000	5,024700
2484,000000	5,061900
2483,000000	5,069900
2482,000000	5,037100
2481,000000	5,037400
2480,000000	5,057700
2479,000000	4,990100
2478,000000	4,970700
2477,000000	4,994100
2476,000000	4,997200
2475,000000	4,996900
2474,000000	4,980500
2473,000000	4,965800
2472,000000	4,977500
2471,000000	4,952300
2470,000000	4,998500
2469,000000	4,965500
2468,000000	4,994100
2467,000000	4,995000
2466,000000	5,013300
2465,000000	5,035400
2464,000000	5,035000
2463,000000	5,057000
2462,000000	5,083500
2461,000000	5,112800
2460,000000	5,135900
2459,000000	5,158900
2458,000000	5,201200
2457,000000	5,232900
2456,000000	5,245600
2455,000000	5,274600
2454,000000	5,321300
2453,000000	5,382400
2452,000000	5,412100
2451,000000	5,456100
2450,000000	5,504800
2449,000000	5,543900
2448,000000	5,605600
2447,000000	5,620300
2446,000000	5,660900
2445,000000	5,737000
2444,000000	5,784900
2443,000000	5,822300
2442,000000	5,877900
2441,000000	5,896600
2440,000000	5,935100
2439,000000	5,959500
2438,000000	6,024100
2437,000000	6,054900
2436,000000	6,104700
2435,000000	6,128900
2434,000000	6,175500
2433,000000	6,191700
2432,000000	6,209600
2431,000000	6,237700
2430,000000	6,282300
2429,000000	6,323700
2428,000000	6,332300
2427,000000	6,352900
2426,000000	6,382400
2425,000000	6,399100
2424,000000	6,413800
2423,000000	6,432500
2422,000000	6,447300
2421,000000	6,462800
2420,000000	6,492300
2419,000000	6,497500
2418,000000	6,521600
2417,000000	6,550800
2416,000000	6,577600
2415,000000	6,600500
2414,000000	6,626800
2413,000000	6,638400
2412,000000	6,659600
2411,000000	6,675100
2410,000000	6,701900
2409,000000	6,713800
2408,000000	6,709500
2407,000000	6,729300
2406,000000	6,756100
2405,000000	6,765000
2404,000000	6,775500
2403,000000	6,794700
2402,000000	6,813300
2401,000000	6,836700
2400,000000	6,836800
2399,000000	6,849800
2398,000000	6,874700
2397,000000	6,903200
2396,000000	6,917200
2395,000000	6,919200
2394,000000	6,936600
2393,000000	6,941400
2392,000000	6,947600
2391,000000	6,960200
2390,000000	6,973600
2389,000000	6,974600
2388,000000	6,972400
2387,000000	6,980800
2386,000000	6,991800
2385,000000	6,987000
2384,000000	6,991900
2383,000000	6,967400
2382,000000	6,961600
2381,000000	6,966500
2380,000000	6,956100
2379,000000	6,948500
2378,000000	6,924900
2377,000000	6,914600
2376,000000	6,923400
2375,000000	6,910300
2374,000000	6,887900
2373,000000	6,865000
2372,000000	6,847100
2371,000000	6,833900
2370,000000	6,811100
2369,000000	6,786500
2368,000000	6,761800
2367,000000	6,732300
2366,000000	6,707300
2365,000000	6,668200
2364,000000	6,644100
2363,000000	6,621600
2362,000000	6,574400
2361,000000	6,538000
2360,000000	6,520300
2359,000000	6,497000
2358,000000	6,482400
2357,000000	6,461300
2356,000000	6,435100
2355,000000	6,407600
2354,000000	6,390000
2353,000000	6,401700
2352,000000	6,419000
2351,000000	6,411000
2350,000000	6,430700
2349,000000	6,468200
2348,000000	6,486100
2347,000000	6,507700
2346,000000	6,540700
2345,000000	6,560300
2344,000000	6,576900
2343,000000	6,605500
2342,000000	6,635700
2341,000000	6,650000
2340,000000	6,648500
2339,000000	6,651200
2338,000000	6,666600
2337,000000	6,657900
2336,000000	6,645900
2335,000000	6,651900
2334,000000	6,635700
2333,000000	6,611900
2332,000000	6,601500
2331,000000	6,576100
2330,000000	6,560100
2329,000000	6,520400
2328,000000	6,499400
2327,000000	6,478800
2326,000000	6,428100
2325,000000	6,386700
2324,000000	6,335700
2323,000000	6,287100
2322,000000	6,247000
2321,000000	6,194900
2320,000000	6,138200
2319,000000	6,069000
2318,000000	5,987800
2317,000000	5,930400
2316,000000	5,857300
2315,000000	5,802900
2314,000000	5,734600
2313,000000	5,671000
2312,000000	5,608200
2311,000000	5,574900
2310,000000	5,550200
2309,000000	5,526700
2308,000000	5,517900
2307,000000	5,513900
2306,000000	5,526100
2305,000000	5,544800
2304,000000	5,562200
2303,000000	5,597500
2302,000000	5,644800
2301,000000	5,692400
2300,000000	5,748900
2299,000000	5,810800
2298,000000	5,845400
2297,000000	5,906500
2296,000000	5,954200
2295,000000	6,006100
2294,000000	6,031600
2293,000000	6,076800
2292,000000	6,103500
2291,000000	6,126800
2290,000000	6,128400
2289,000000	6,122100
2288,000000	6,128600
2287,000000	6,132600
2286,000000	6,133800
2285,000000	6,121500
2284,000000	6,103400
2283,000000	6,079000
2282,000000	6,055500
2281,000000	6,033200
2280,000000	6,008600
2279,000000	5,978200
2278,000000	5,958100
2277,000000	5,939600
2276,000000	5,923700
2275,000000	5,899000
2274,000000	5,923200
2273,000000	5,922200
2272,000000	5,933400
2271,000000	5,941300
2270,000000	5,988600
2269,000000	6,016200
2268,000000	6,073200
2267,000000	6,134500
2266,000000	6,213100
2265,000000	6,309500
2264,000000	6,397400
2263,000000	6,513500
2262,000000	6,658200
2261,000000	6,792900
2260,000000	6,919000
2259,000000	7,094700
2258,000000	7,248700
2257,000000	7,423500
2256,000000	7,586900
2255,000000	7,739900
2254,000000	7,900000
2253,000000	8,057300
2252,000000	8,221900
2251,000000	8,358900
2250,000000	8,481500
2249,000000	8,612700
2248,000000	8,734700
2247,000000	8,863000
2246,000000	8,966600
2245,000000	9,048800
2244,000000	9,150200
2243,000000	9,212800
2242,000000	9,310700
2241,000000	9,398000
2240,000000	9,459300
2239,000000	9,501700
2238,000000	9,551400
2237,000000	9,627500
2236,000000	9,665000
2235,000000	9,704200
2234,000000	9,726400
2233,000000	9,748600
2232,000000	9,758000
2231,000000	9,786600
2230,000000	9,770800
2229,000000	9,758300
2228,000000	9,776000
2227,000000	9,769100
2226,000000	9,758400
2225,000000	9,743900
2224,000000	9,739800
2223,000000	9,728000
2222,000000	9,707100
2221,000000	9,682200
2220,000000	9,629800
2219,000000	9,576700
2218,000000	9,558200
2217,000000	9,514000
2216,000000	9,481300
2215,000000	9,447400
2214,000000	9,424800
2213,000000	9,398200
2212,000000	9,366300
2211,000000	9,344300
2210,000000	9,325000
2209,000000	9,314300
2208,000000	9,292000
2207,000000	9,289300
2206,000000	9,249700
2205,000000	9,273500
2204,000000	9,262200
2203,000000	9,225400
2202,000000	9,216200
2201,000000	9,225200
2200,000000	9,216400
2199,000000	9,208200
2198,000000	9,206400
2197,000000	9,189300
2196,000000	9,198200
2195,000000	9,156700
2194,000000	9,149700
2193,000000	9,148600
2192,000000	9,118600
2191,000000	9,108300
2190,000000	9,086800
2189,000000	9,082800
2188,000000	9,065800
2187,000000	9,047700
2186,000000	9,047500
2185,000000	9,044200
2184,000000	9,031200
2183,000000	9,025100
2182,000000	9,025400
2181,000000	8,989100
2180,000000	8,977800
2179,000000	8,964800
2178,000000	8,957800
2177,000000	8,947200
2176,000000	8,931000
2175,000000	8,938000
2174,000000	8,922800
2173,000000	8,931400
2172,000000	8,927300
2171,000000	8,933200
2170,000000	8,951900
2169,000000	8,921500
2168,000000	8,940800
2167,000000	8,959500
2166,000000	8,989400
2165,000000	8,965100
2164,000000	8,999000
2163,000000	9,025000
2162,000000	9,026600
2161,000000	9,054100
2160,000000	9,087300
2159,000000	9,114900
2158,000000	9,178000
2157,000000	9,206800
2156,000000	9,230100
2155,000000	9,268000
2154,000000	9,336100
2153,000000	9,372300
2152,000000	9,411500
2151,000000	9,475400
2150,000000	9,543700
2149,000000	9,576900
2148,000000	9,619400
2147,000000	9,686500
2146,000000	9,706500
2145,000000	9,761500
2144,000000	9,838000
2143,000000	9,862900
2142,000000	9,879800
2141,000000	9,932000
2140,000000	9,987900
2139,000000	10,038900
2138,000000	10,083500
2137,000000	10,135000
2136,000000	10,164700
2135,000000	10,205300
2134,000000	10,250700
2133,000000	10,294500
2132,000000	10,336800
2131,000000	10,371600
2130,000000	10,400700
2129,000000	10,446700
2128,000000	10,470100
2127,000000	10,501000
2126,000000	10,528000
2125,000000	10,551300
2124,000000	10,571100
2123,000000	10,589300
2122,000000	10,598400
2121,000000	10,603100
2120,000000	10,631400
2119,000000	10,646000
2118,000000	10,655000
2117,000000	10,658700
2116,000000	10,665600
2115,000000	10,684100
2114,000000	10,709300
2113,000000	10,710900
2112,000000	10,690200
2111,000000	10,671300
2110,000000	10,667400
2109,000000	10,683100
2108,000000	10,680300
2107,000000	10,666400
2106,000000	10,651400
2105,000000	10,658300
2104,000000	10,669300
2103,000000	10,664000
2102,000000	10,652100
2101,000000	10,651100
2100,000000	10,652300
2099,000000	10,636400
2098,000000	10,632700
2097,000000	10,628400
2096,000000	10,623500
2095,000000	10,648400
2094,000000	10,650500
2093,000000	10,624600
2092,000000	10,630100
2091,000000	10,619400
2090,000000	10,624700
2089,000000	10,651000
2088,000000	10,640000
2087,000000	10,626400
2086,000000	10,623200
2085,000000	10,625100
2084,000000	10,616900
2083,000000	10,601000
2082,000000	10,584900
2081,000000	10,585300
2080,000000	10,575900
2079,000000	10,562100
2078,000000	10,552500
2077,000000	10,509100
2076,000000	10,456000
2075,000000	10,436000
2074,000000	10,412100
2073,000000	10,370000
2072,000000	10,337300
2071,000000	10,286600
2070,000000	10,249400
2069,000000	10,221800
2068,000000	10,184200
2067,000000	10,139700
2066,000000	10,110100
2065,000000	10,063300
2064,000000	10,017300
2063,000000	9,990600
2062,000000	9,963500
2061,000000	9,943000
2060,000000	9,914200
2059,000000	9,892200
2058,000000	9,894800
2057,000000	9,889300
2056,000000	9,877000
2055,000000	9,891400
2054,000000	9,937800
2053,000000	9,982900
2052,000000	10,020900
2051,000000	10,075400
2050,000000	10,145800
2049,000000	10,245200
2048,000000	10,330900
2047,000000	10,415800
2046,000000	10,524000
2045,000000	10,623900
2044,000000	10,740800
2043,000000	10,867100
2042,000000	10,991300
2041,000000	11,113100
2040,000000	11,217200
2039,000000	11,340200
2038,000000	11,450400
2037,000000	11,539100
2036,000000	11,638400
2035,000000	11,736500
2034,000000	11,821900
2033,000000	11,898000
2032,000000	12,007300
2031,000000	12,105900
2030,000000	12,162500
2029,000000	12,243600
2028,000000	12,316000
2027,000000	12,382800
2026,000000	12,463900
2025,000000	12,520400
2024,000000	12,597100
2023,000000	12,665800
2022,000000	12,712200
2021,000000	12,753600
2020,000000	12,798700
2019,000000	12,864400
2018,000000	12,929800
2017,000000	12,953600
2016,000000	12,988600
2015,000000	13,033000
2014,000000	13,082300
2013,000000	13,132700
2012,000000	13,131300
2011,000000	13,161200
2010,000000	13,172900
2009,000000	13,186700
2008,000000	13,205500
2007,000000	13,209700
2006,000000	13,192600
2005,000000	13,203700
2004,000000	13,214900
2003,000000	13,196700
2002,000000	13,210200
2001,000000	13,212700
2000,000000	13,192500
1999,000000	13,189400
1998,000000	13,161600
1997,000000	13,143900
1996,000000	13,124600
1995,000000	13,097200
1994,000000	13,039600
1993,000000	13,030600
1992,000000	12,975400
1991,000000	12,925800
1990,000000	12,895300
1989,000000	12,840900
1988,000000	12,775300
1987,000000	12,752600
1986,000000	12,704500
1985,000000	12,653200
1984,000000	12,636800
1983,000000	12,561400
1982,000000	12,495700
1981,000000	12,463300
1980,000000	12,377200
1979,000000	12,318600
1978,000000	12,284600
1977,000000	12,229500
1976,000000	12,167800
1975,000000	12,095900
1974,000000	12,076600
1973,000000	12,001300
1972,000000	11,936600
1971,000000	11,894200
1970,000000	11,865800
1969,000000	11,796600
1968,000000	11,739900
1967,000000	11,716200
1966,000000	11,649800
1965,000000	11,619300
1964,000000	11,552400
1963,000000	11,512100
1962,000000	11,472700
1961,000000	11,414300
1960,000000	11,352700
1959,000000	11,301000
1958,000000	11,252400
1957,000000	11,201300
1956,000000	11,139400
1955,000000	11,093200
1954,000000	11,052900
1953,000000	10,999300
1952,000000	10,943100
1951,000000	10,901200
1950,000000	10,841000
1949,000000	10,794000
1948,000000	10,753100
1947,000000	10,692800
1946,000000	10,662100
1945,000000	10,671900
1944,000000	10,636400
1943,000000	10,606700
1942,000000	10,539700
1941,000000	10,518700
1940,000000	10,488600
1939,000000	10,488500
1938,000000	10,537700
1937,000000	10,580200
1936,000000	10,587100
1935,000000	10,591400
1934,000000	10,597300
1933,000000	10,617400
1932,000000	10,656800
1931,000000	10,694600
1930,000000	10,694700
1929,000000	10,784100
1928,000000	10,881600
1927,000000	10,999000
1926,000000	11,098800
1925,000000	11,208500
1924,000000	11,264000
1923,000000	11,301300
1922,000000	11,412500
1921,000000	11,594800
1920,000000	11,823500
1919,000000	12,018400
1918,000000	12,172500
1917,000000	12,260200
1916,000000	12,323400
1915,000000	12,375500
1914,000000	12,574500
1913,000000	12,904800
1912,000000	13,196400
1911,000000	13,428400
1910,000000	13,610200
1909,000000	13,672200
1908,000000	13,763100
1907,000000	13,951700
1906,000000	14,227500
1905,000000	14,610800
1904,000000	14,959100
1903,000000	15,226500
1902,000000	15,444300
1901,000000	15,628400
1900,000000	15,966900
1899,000000	16,427400
1898,000000	16,806600
1897,000000	17,139100
1896,000000	17,335300
1895,000000	17,443200
1894,000000	17,634300
1893,000000	17,894600
1892,000000	18,225700
1891,000000	18,635900
1890,000000	18,991100
1889,000000	19,284900
1888,000000	19,566200
1887,000000	19,787700
1886,000000	20,036700
1885,000000	20,333000
1884,000000	20,742500
1883,000000	21,124400
1882,000000	21,444500
1881,000000	21,752100
1880,000000	21,959800
1879,000000	22,139100
1878,000000	22,345000
1877,000000	22,525200
1876,000000	22,683700
1875,000000	22,844100
1874,000000	23,010300
1873,000000	23,223500
1872,000000	23,430700
1871,000000	23,640100
1870,000000	23,978600
1869,000000	24,241800
1868,000000	24,444200
1867,000000	24,604100
1866,000000	24,637500
1865,000000	24,644300
1864,000000	24,626600
1863,000000	24,547200
1862,000000	24,500600
1861,000000	24,506800
1860,000000	24,550800
1859,000000	24,631100
1858,000000	24,726500
1857,000000	24,770700
1856,000000	24,714300
1855,000000	24,688600
1854,000000	24,773000
1853,000000	24,810500
1852,000000	24,774700
1851,000000	24,670400
1850,000000	24,452800
1849,000000	24,298600
1848,000000	24,447600
1847,000000	24,753100
1846,000000	24,868600
1845,000000	24,731000
1844,000000	24,458400
1843,000000	24,225000
1842,000000	24,240300
1841,000000	24,400100
1840,000000	24,454500
1839,000000	24,383800
1838,000000	24,261200
1837,000000	24,261700
1836,000000	24,378600
1835,000000	24,484700
1834,000000	24,434100
1833,000000	24,248800
1832,000000	24,114600
1831,000000	24,057000
1830,000000	24,087300
1829,000000	24,083800
1828,000000	24,020500
1827,000000	23,992600
1826,000000	24,040400
1825,000000	24,048900
1824,000000	23,962500
1823,000000	23,777000
1822,000000	23,703200
1821,000000	23,806500
1820,000000	23,953000
1819,000000	23,995500
1818,000000	23,912400
1817,000000	23,808700
1816,000000	23,806800
1815,000000	23,858400
1814,000000	23,858000
1813,000000	23,820100
1812,000000	23,778600
1811,000000	23,808800
1810,000000	23,818400
1809,000000	23,770500
1808,000000	23,705000
1807,000000	23,675800
1806,000000	23,691900
1805,000000	23,696200
1804,000000	23,660200
1803,000000	23,580900
1802,000000	23,546100
1801,000000	23,571000
1800,000000	23,595600
1799,000000	23,562500
1798,000000	23,507800
1797,000000	23,472200
1796,000000	23,453000
1795,000000	23,440400
1794,000000	23,421000
1793,000000	23,397700
1792,000000	23,371000
1791,000000	23,344700
1790,000000	23,338900
1789,000000	23,292500
1788,000000	23,238700
1787,000000	23,227100
1786,000000	23,195900
1785,000000	23,161700
1784,000000	23,119300
1783,000000	23,080900
1782,000000	23,048500
1781,000000	23,004100
1780,000000	22,970000
1779,000000	22,915000
1778,000000	22,871200
1777,000000	22,811500
1776,000000	22,749400
1775,000000	22,684900
1774,000000	22,595800
1773,000000	22,521500
1772,000000	22,432100
1771,000000	22,342600
1770,000000	22,268700
1769,000000	22,197000
1768,000000	22,121200
1767,000000	22,026900
1766,000000	21,964700
1765,000000	21,925900
1764,000000	21,898700
1763,000000	21,880900
1762,000000	21,896900
1761,000000	21,910300
1760,000000	21,910200
1759,000000	21,934600
1758,000000	21,965100
1757,000000	22,002100
1756,000000	22,029500
1755,000000	22,041300
1754,000000	22,036400
1753,000000	22,023600
1752,000000	22,003700
1751,000000	21,994800
1750,000000	21,938700
1749,000000	21,914700
1748,000000	21,836700
1747,000000	21,760800
1746,000000	21,691500
1745,000000	21,594900
1744,000000	21,481200
1743,000000	21,356200
1742,000000	21,241100
1741,000000	21,073800
1740,000000	20,928500
1739,000000	20,757400
1738,000000	20,619600
1737,000000	20,478300
1736,000000	20,382300
1735,000000	20,293100
1734,000000	20,241900
1733,000000	20,241100
1732,000000	20,249200
1731,000000	20,276600
1730,000000	20,315000
1729,000000	20,355600
1728,000000	20,393200
1727,000000	20,436700
1726,000000	20,452100
1725,000000	20,487800
1724,000000	20,488100
1723,000000	20,523900
1722,000000	20,544100
1721,000000	20,591200
1720,000000	20,626600
1719,000000	20,700300
1718,000000	20,789600
1717,000000	20,876400
1716,000000	20,957600
1715,000000	21,051400
1714,000000	21,145100
1713,000000	21,251000
1712,000000	21,290500
1711,000000	21,365800
1710,000000	21,387600
1709,000000	21,412300
1708,000000	21,435300
1707,000000	21,452800
1706,000000	21,436900
1705,000000	21,440400
1704,000000	21,413800
1703,000000	21,374200
1702,000000	21,298100
1701,000000	21,193000
1700,000000	21,130500
1699,000000	21,026200
1698,000000	20,947500
1697,000000	20,859600
1696,000000	20,813500
1695,000000	20,791300
1694,000000	20,822700
1693,000000	20,859500
1692,000000	20,926900
1691,000000	21,008100
1690,000000	21,071900
1689,000000	21,125400
1688,000000	21,205500
1687,000000	21,227000
1686,000000	21,269800
1685,000000	21,352300
1684,000000	21,457500
1683,000000	21,661500
1682,000000	21,895800
1681,000000	22,212400
1680,000000	22,567500
1679,000000	22,944000
1678,000000	23,275700
1677,000000	23,609500
1676,000000	23,913400
1675,000000	24,174200
1674,000000	24,423000
1673,000000	24,638000
1672,000000	24,823800
1671,000000	25,011600
1670,000000	25,174600
1669,000000	25,323300
1668,000000	25,480100
1667,000000	25,676600
1666,000000	25,789300
1665,000000	25,893500
1664,000000	26,012600
1663,000000	26,085900
1662,000000	26,173400
1661,000000	26,235800
1660,000000	26,331800
1659,000000	26,400700
1658,000000	26,454300
1657,000000	26,512900
1656,000000	26,559300
1655,000000	26,582000
1654,000000	26,570400
1653,000000	26,577600
1652,000000	26,609100
1651,000000	26,629400
1650,000000	26,621900
1649,000000	26,596000
1648,000000	26,575700
1647,000000	26,549400
1646,000000	26,527200
1645,000000	26,519200
1644,000000	26,501300
1643,000000	26,484800
1642,000000	26,480800
1641,000000	26,452200
1640,000000	26,448800
1639,000000	26,405600
1638,000000	26,357700
1637,000000	26,338600
1636,000000	26,305300
1635,000000	26,286900
1634,000000	26,234500
1633,000000	26,190800
1632,000000	26,147500
1631,000000	26,096500
1630,000000	26,046600
1629,000000	26,020800
1628,000000	25,992000
1627,000000	25,943200
1626,000000	25,895900
1625,000000	25,823800
1624,000000	25,760400
1623,000000	25,699400
1622,000000	25,676500
1621,000000	25,633700
1620,000000	25,603700
1619,000000	25,542500
1618,000000	25,492200
1617,000000	25,464000
1616,000000	25,438100
1615,000000	25,388100
1614,000000	25,352500
1613,000000	25,316000
1612,000000	25,264900
1611,000000	25,209900
1610,000000	25,158700
1609,000000	25,105100
1608,000000	25,050000
1607,000000	24,992600
1606,000000	24,966600
1605,000000	24,929100
1604,000000	24,868600
1603,000000	24,822500
1602,000000	24,773400
1601,000000	24,719500
1600,000000	24,651600
1599,000000	24,587300
1598,000000	24,531800
1597,000000	24,500100
1596,000000	24,451700
1595,000000	24,386000
1594,000000	24,343000
1593,000000	24,284100
1592,000000	24,244300
1591,000000	24,215800
1590,000000	24,173900
1589,000000	24,129200
1588,000000	24,105100
1587,000000	24,082900
1586,000000	24,067900
1585,000000	24,056500
1584,000000	24,018400
1583,000000	23,965500
1582,000000	23,926600
1581,000000	23,904800
1580,000000	23,890800
1579,000000	23,884400
1578,000000	23,872800
1577,000000	23,858900
1576,000000	23,842800
1575,000000	23,836600
1574,000000	23,869800
1573,000000	23,873500
1572,000000	23,863000
1571,000000	23,894700
1570,000000	23,929100
1569,000000	23,958900
1568,000000	23,991200
1567,000000	24,004500
1566,000000	24,025400
1565,000000	24,056200
1564,000000	24,080600
1563,000000	24,098500
1562,000000	24,140200
1561,000000	24,156500
1560,000000	24,148700
1559,000000	24,157500
1558,000000	24,160900
1557,000000	24,150500
1556,000000	24,155000
1555,000000	24,160000
1554,000000	24,142300
1553,000000	24,121400
1552,000000	24,083100
1551,000000	24,066100
1550,000000	24,054000
1549,000000	23,993100
1548,000000	23,952700
1547,000000	23,939400
1546,000000	23,925800
1545,000000	23,911100
1544,000000	23,896900
1543,000000	23,883300
1542,000000	23,874400
1541,000000	23,864000
1540,000000	23,870300
1539,000000	23,870400
1538,000000	23,854400
1537,000000	23,866100
1536,000000	23,867700
1535,000000	23,840900
1534,000000	23,816600
1533,000000	23,804300
1532,000000	23,800600
1531,000000	23,809900
1530,000000	23,808000
1529,000000	23,784200
1528,000000	23,755200
1527,000000	23,741300
1526,000000	23,716500
1525,000000	23,690300
1524,000000	23,663600
1523,000000	23,652300
1522,000000	23,630400
1521,000000	23,619300
1520,000000	23,594500
1519,000000	23,569700
1518,000000	23,540000
1517,000000	23,510800
1516,000000	23,486800
1515,000000	23,446800
1514,000000	23,422100
1513,000000	23,405400
1512,000000	23,374800
1511,000000	23,337700
1510,000000	23,296000
1509,000000	23,257100
1508,000000	23,235000
1507,000000	23,204400
1506,000000	23,170100
1505,000000	23,140100
1504,000000	23,110900
1503,000000	23,097800
1502,000000	23,062900
1501,000000	23,032200
1500,000000	23,020700
1499,000000	23,004400
1498,000000	23,001100
1497,000000	22,980400
1496,000000	22,973300
1495,000000	22,971600
1494,000000	22,976700
1493,000000	22,982200
1492,000000	23,012900
1491,000000	23,007000
1490,000000	23,003000
1489,000000	23,016600
1488,000000	23,016800
1487,000000	23,056200
1486,000000	23,080200
1485,000000	23,104600
1484,000000	23,097400
1483,000000	23,119100
1482,000000	23,151000
1481,000000	23,177800
1480,000000	23,206500
1479,000000	23,235000
1478,000000	23,266500
1477,000000	23,288300
1476,000000	23,332400
1475,000000	23,362000
1474,000000	23,408500
1473,000000	23,434600
1472,000000	23,496100
1471,000000	23,553800
1470,000000	23,600100
1469,000000	23,646900
1468,000000	23,673900
1467,000000	23,756600
1466,000000	23,789900
1465,000000	23,843000
1464,000000	23,874100
1463,000000	23,943000
1462,000000	23,999100
1461,000000	24,042300
1460,000000	24,115000
1459,000000	24,205700
1458,000000	24,272900
1457,000000	24,351800
1456,000000	24,404800
1455,000000	24,515600
1454,000000	24,587600
1453,000000	24,683500
1452,000000	24,748900
1451,000000	24,850200
1450,000000	24,975800
1449,000000	25,089800
1448,000000	25,110700
1447,000000	25,191800
1446,000000	25,304600
1445,000000	25,476100
1444,000000	25,576900
1443,000000	25,577900
1442,000000	25,699900
1441,000000	25,828700
1440,000000	25,946600
1439,000000	26,053000
1438,000000	26,155500
1437,000000	26,286400
1436,000000	26,403500
1435,000000	26,501000
1434,000000	26,605000
1433,000000	26,722100
1432,000000	26,868100
1431,000000	27,007900
1430,000000	27,129000
1429,000000	27,233400
1428,000000	27,424400
1427,000000	27,594200
1426,000000	27,744900
1425,000000	27,926000
1424,000000	28,078100
1423,000000	28,321300
1422,000000	28,508100
1421,000000	28,644300
1420,000000	28,849500
1419,000000	29,096400
1418,000000	29,363000
1417,000000	29,484400
1416,000000	29,601700
1415,000000	29,779400
1414,000000	30,121700
1413,000000	30,386800
1412,000000	30,524400
1411,000000	30,627300
1410,000000	30,894100
1409,000000	31,230000
1408,000000	31,497200
1407,000000	31,759200
1406,000000	31,980100
1405,000000	32,257800
1404,000000	32,590300
1403,000000	32,858600
1402,000000	32,851500
1401,000000	33,107700
1400,000000	33,664700
1399,000000	33,932900
1398,000000	33,836600
1397,000000	33,790600
1396,000000	34,071000
1395,000000	34,446500
1394,000000	34,582000
1393,000000	34,533400
1392,000000	34,717900
1391,000000	34,967700
1390,000000	35,018800
1389,000000	35,018300
1388,000000	35,322400
1387,000000	35,603800
1386,000000	35,715100
1385,000000	35,831700
1384,000000	36,029600
1383,000000	36,205200
1382,000000	36,524000
1381,000000	36,801300
1380,000000	36,880700
1379,000000	36,920100
1378,000000	36,937700
1377,000000	36,969300
1376,000000	37,029400
1375,000000	37,116900
1374,000000	37,178100
1373,000000	37,262400
1372,000000	37,394300
1371,000000	37,610400
1370,000000	37,803300
1369,000000	37,850300
1368,000000	38,026600
1367,000000	38,231900
1366,000000	38,260600
1365,000000	38,338500
1364,000000	38,493500
1363,000000	38,457300
1362,000000	38,491600
1361,000000	38,749000
1360,000000	38,868800
1359,000000	38,827100
1358,000000	38,835800
1357,000000	38,900100
1356,000000	38,973000
1355,000000	39,208100
1354,000000	39,466200
1353,000000	39,652900
1352,000000	39,852200
1351,000000	40,080100
1350,000000	40,297000
1349,000000	40,483900
1348,000000	40,677400
1347,000000	40,898900
1346,000000	41,045300
1345,000000	41,169500
1344,000000	41,375500
1343,000000	41,533400
1342,000000	41,645900
1341,000000	41,756700
1340,000000	41,884100
1339,000000	42,022500
1338,000000	42,148400
1337,000000	42,261400
1336,000000	42,362400
1335,000000	42,473300
1334,000000	42,563100
1333,000000	42,653900
1332,000000	42,734400
1331,000000	42,805400
1330,000000	42,887600
1329,000000	42,974600
1328,000000	43,051300
1327,000000	43,109600
1326,000000	43,142500
1325,000000	43,183300
1324,000000	43,230000
1323,000000	43,289100
1322,000000	43,347200
1321,000000	43,386800
1320,000000	43,413200
1319,000000	43,442700
1318,000000	43,473300
1317,000000	43,525500
1316,000000	43,588300
1315,000000	43,624200
1314,000000	43,636500
1313,000000	43,652800
1312,000000	43,679100
1311,000000	43,711200
1310,000000	43,722600
1309,000000	43,716100
1308,000000	43,719900
1307,000000	43,742300
1306,000000	43,744700
1305,000000	43,739300
1304,000000	43,740800
1303,000000	43,736700
1302,000000	43,735500
1301,000000	43,717500
1300,000000	43,703200
1299,000000	43,683800
1298,000000	43,660300
1297,000000	43,654100
1296,000000	43,648500
1295,000000	43,623000
1294,000000	43,581700
1293,000000	43,550800
1292,000000	43,546000
1291,000000	43,536300
1290,000000	43,505400
1289,000000	43,481500
1288,000000	43,448500
1287,000000	43,404800
1286,000000	43,362000
1285,000000	43,329300
1284,000000	43,290400
1283,000000	43,256400
1282,000000	43,234100
1281,000000	43,206800
1280,000000	43,185300
1279,000000	43,143300
1278,000000	43,076700
1277,000000	43,030500
1276,000000	43,013800
1275,000000	42,991300
1274,000000	42,962200
1273,000000	42,956300
1272,000000	42,962200
1271,000000	42,959800
1270,000000	42,945300
1269,000000	42,928700
1268,000000	42,920700
1267,000000	42,887100
1266,000000	42,867100
1265,000000	42,869700
1264,000000	42,862000
1263,000000	42,847400
1262,000000	42,824500
1261,000000	42,794200
1260,000000	42,776500
1259,000000	42,769900
1258,000000	42,723300
1257,000000	42,683400
1256,000000	42,662600
1255,000000	42,637800
1254,000000	42,608900
1253,000000	42,570900
1252,000000	42,552400
1251,000000	42,527300
1250,000000	42,506200
1249,000000	42,452700
1248,000000	42,398000
1247,000000	42,360800
1246,000000	42,317100
1245,000000	42,273000
1244,000000	42,208100
1243,000000	42,166600
1242,000000	42,141000
1241,000000	42,123500
1240,000000	42,081100
1239,000000	42,013800
1238,000000	41,952300
1237,000000	41,921400
1236,000000	41,875100
1235,000000	41,808900
1234,000000	41,736400
1233,000000	41,693800
1232,000000	41,640400
1231,000000	41,539800
1230,000000	41,467500
1229,000000	41,406900
1228,000000	41,346300
1227,000000	41,264100
1226,000000	41,204100
1225,000000	41,165200
1224,000000	41,090700
1223,000000	41,015900
1222,000000	40,930300
1221,000000	40,849500
1220,000000	40,776500
1219,000000	40,708900
1218,000000	40,638000
1217,000000	40,571200
1216,000000	40,507000
1215,000000	40,447700
1214,000000	40,367300
1213,000000	40,294600
1212,000000	40,245600
1211,000000	40,151800
1210,000000	40,069800
1209,000000	40,017200
1208,000000	39,944000
1207,000000	39,847500
1206,000000	39,766200
1205,000000	39,727400
1204,000000	39,705300
1203,000000	39,680100
1202,000000	39,626700
1201,000000	39,555500
1200,000000	39,507800
1199,000000	39,469200
1198,000000	39,403900
1197,000000	39,321000
1196,000000	39,223500
1195,000000	39,100200
1194,000000	38,976300
1193,000000	38,820700
1192,000000	38,648600
1191,000000	38,457500
1190,000000	38,287700
1189,000000	38,121400
1188,000000	38,004700
1187,000000	37,878700
1186,000000	37,847200
1185,000000	37,875800
1184,000000	37,942400
1183,000000	38,034100
1182,000000	38,186700
1181,000000	38,339500
1180,000000	38,508600
1179,000000	38,648800
1178,000000	38,793100
1177,000000	38,927700
1176,000000	39,036400
1175,000000	39,117600
1174,000000	39,227700
1173,000000	39,334900
1172,000000	39,424400
1171,000000	39,520200
1170,000000	39,623200
1169,000000	39,756000
1168,000000	39,909500
1167,000000	40,040300
1166,000000	40,141600
1165,000000	40,265800
1164,000000	40,409000
1163,000000	40,550100
1162,000000	40,667500
1161,000000	40,783800
1160,000000	40,908500
1159,000000	41,038100
1158,000000	41,124300
1157,000000	41,195600
1156,000000	41,301000
1155,000000	41,387800
1154,000000	41,398700
1153,000000	41,440600
1152,000000	41,457900
1151,000000	41,449600
1150,000000	41,427100
1149,000000	41,413300
1148,000000	41,403300
1147,000000	41,405400
1146,000000	41,433200
1145,000000	41,500800
1144,000000	41,561600
1143,000000	41,601400
1142,000000	41,672000
1141,000000	41,749200
1140,000000	41,832800
1139,000000	41,910900
1138,000000	42,000300
1137,000000	42,049700
1136,000000	42,136300
1135,000000	42,272300
1134,000000	42,430700
1133,000000	42,530900
1132,000000	42,539700
1131,000000	42,537900
1130,000000	42,599000
1129,000000	42,681700
1128,000000	42,738700
1127,000000	42,726000
1126,000000	42,747100
1125,000000	42,750300
1124,000000	42,732400
1123,000000	42,737700
1122,000000	42,762200
1121,000000	42,758700
1120,000000	42,741400
1119,000000	42,697900
1118,000000	42,683100
1117,000000	42,671700
1116,000000	42,646900
1115,000000	42,599600
1114,000000	42,573500
1113,000000	42,531200
1112,000000	42,487000
1111,000000	42,427900
1110,000000	42,389000
1109,000000	42,348500
1108,000000	42,315000
1107,000000	42,272400
1106,000000	42,231600
1105,000000	42,170300
1104,000000	42,110600
1103,000000	42,094900
1102,000000	42,053600
1101,000000	42,002700
1100,000000	41,952700
1099,000000	41,912600
1098,000000	41,888200
1097,000000	41,833700
1096,000000	41,772800
1095,000000	41,715200
1094,000000	41,674900
1093,000000	41,622200
1092,000000	41,545800
1091,000000	41,514200
1090,000000	41,450000
1089,000000	41,396100
1088,000000	41,321700
1087,000000	41,265000
1086,000000	41,196300
1085,000000	41,140300
1084,000000	41,072200
1083,000000	41,015900
1082,000000	40,971600
1081,000000	40,915500
1080,000000	40,876300
1079,000000	40,804300
1078,000000	40,738900
1077,000000	40,664200
1076,000000	40,594000
1075,000000	40,552500
1074,000000	40,511800
1073,000000	40,449200
1072,000000	40,405300
1071,000000	40,350500
1070,000000	40,292500
1069,000000	40,219800
1068,000000	40,160300
1067,000000	40,098800
1066,000000	40,045900
1065,000000	39,997000
1064,000000	39,941600
1063,000000	39,878000
1062,000000	39,814700
1061,000000	39,762500
1060,000000	39,696800
1059,000000	39,636400
1058,000000	39,571100
1057,000000	39,485500
1056,000000	39,422800
1055,000000	39,358500
1054,000000	39,285600
1053,000000	39,218500
1052,000000	39,147800
1051,000000	39,066900
1050,000000	39,000200
1049,000000	38,935300
1048,000000	38,855700
1047,000000	38,784500
1046,000000	38,735100
1045,000000	38,676500
1044,000000	38,598300
1043,000000	38,533900
1042,000000	38,465100
1041,000000	38,380100
1040,000000	38,308100
1039,000000	38,235400
1038,000000	38,146000
1037,000000	38,067000
1036,000000	37,993600
1035,000000	37,931400
1034,000000	37,868400
1033,000000	37,788000
1032,000000	37,701700
1031,000000	37,619900
1030,000000	37,534500
1029,000000	37,470600
1028,000000	37,406900
1027,000000	37,327300
1026,000000	37,255700
1025,000000	37,178300
1024,000000	37,087800
1023,000000	37,000400
1022,000000	36,901200
1021,000000	36,823600
1020,000000	36,761100
1019,000000	36,700100
1018,000000	36,638000
1017,000000	36,558300
1016,000000	36,463900
1015,000000	36,401200
1014,000000	36,355400
1013,000000	36,300700
1012,000000	36,243100
1011,000000	36,169200
1010,000000	36,069400
1009,000000	36,004800
1008,000000	35,961300
1007,000000	35,911600
1006,000000	35,842900
1005,000000	35,772100
1004,000000	35,724300
1003,000000	35,655500
1002,000000	35,575000
1001,000000	35,507800
1000,000000	35,420500
999,000000	35,352400
998,000000	35,258100
997,000000	35,172300
996,000000	35,114700
995,000000	35,039000
994,000000	34,957100
993,000000	34,868900
992,000000	34,791000
991,000000	34,703300
990,000000	34,620200
989,000000	34,552200
988,000000	34,483300
987,000000	34,387500
986,000000	34,304000
985,000000	34,228900
984,000000	34,139500
983,000000	34,062400
982,000000	33,965200
981,000000	33,908000
980,000000	33,826400
979,000000	33,761300
978,000000	33,663600
977,000000	33,553300
976,000000	33,494600
975,000000	33,441300
974,000000	33,327300
973,000000	33,226700
972,000000	33,147000
971,000000	33,075800
970,000000	32,962000
969,000000	32,849400
968,000000	32,780700
967,000000	32,715800
966,000000	32,589400
965,000000	32,488000
964,000000	32,366500
963,000000	32,300300
962,000000	32,250200
961,000000	32,108200
960,000000	32,004600
959,000000	31,900600
958,000000	31,845000
957,000000	31,781700
956,000000	31,656800
955,000000	31,538900
954,000000	31,465100
953,000000	31,382600
952,000000	31,262500
951,000000	31,162300
950,000000	31,093200
949,000000	30,986400
948,000000	30,928300
947,000000	30,789600
946,000000	30,661400
945,000000	30,551100
944,000000	30,489300
943,000000	30,376100
942,000000	30,296400
941,000000	30,175700
940,000000	30,050900
939,000000	29,925700
938,000000	29,817300
937,000000	29,754800
936,000000	29,626300
935,000000	29,511200
934,000000	29,428700
933,000000	29,373600
932,000000	29,254600
931,000000	29,165900
930,000000	29,073500
929,000000	28,967000
928,000000	28,846800
927,000000	28,727300
926,000000	28,664300
925,000000	28,551200
924,000000	28,443900
923,000000	28,334000
922,000000	28,246600
921,000000	28,225000
920,000000	28,138900
919,000000	28,012200
918,000000	27,943600
917,000000	27,874100
916,000000	27,799800
915,000000	27,735900
914,000000	27,626500
913,000000	27,557900
912,000000	27,496300
911,000000	27,430200
910,000000	27,337100
909,000000	27,304000
908,000000	27,260800
907,000000	27,236200
906,000000	27,178100
905,000000	27,159600
904,000000	27,108400
903,000000	27,039800
902,000000	27,016000
901,000000	27,034300
900,000000	27,005400
899,000000	26,986500
898,000000	26,979700
897,000000	26,958700
896,000000	26,984500
895,000000	26,984300
894,000000	27,005900
893,000000	27,037300
892,000000	27,040100
891,000000	27,071200
890,000000	27,102500
889,000000	27,099900
888,000000	27,107000
887,000000	27,154300
886,000000	27,184100
885,000000	27,238300
884,000000	27,285200
883,000000	27,324200
882,000000	27,395500
881,000000	27,467300
880,000000	27,532000
879,000000	27,585400
878,000000	27,655700
877,000000	27,747000
876,000000	27,823400
875,000000	27,902300
874,000000	28,001000
873,000000	28,072000
872,000000	28,164900
871,000000	28,287200
870,000000	28,381800
869,000000	28,464700
868,000000	28,556400
867,000000	28,666400
866,000000	28,783600
865,000000	28,871900
864,000000	28,978500
863,000000	29,094500
862,000000	29,190300
861,000000	29,314200
860,000000	29,372300
859,000000	29,402300
858,000000	29,766300
857,000000	31,697200
856,000000	31,789100
855,000000	31,877500
854,000000	32,185600
853,000000	32,452400
852,000000	32,382000
851,000000	32,584400
850,000000	32,862400
849,000000	33,064700
848,000000	32,993500
847,000000	33,253800
846,000000	33,480500
845,000000	33,474800
844,000000	33,641900
843,000000	33,680100
842,000000	33,916200
841,000000	34,100600
840,000000	34,259000
839,000000	34,137700
838,000000	34,491100
837,000000	34,568300
836,000000	34,840400
835,000000	34,816300
834,000000	35,005500
833,000000	35,172100
832,000000	35,245100
831,000000	35,462600
830,000000	35,690000
829,000000	35,722400
828,000000	35,865000
827,000000	35,903500
826,000000	36,057000
825,000000	36,194800
824,000000	36,228900
823,000000	36,313400
822,000000	36,526700
821,000000	36,577900
820,000000	36,645900
819,000000	36,845900
818,000000	37,017000
817,000000	37,113300
816,000000	37,274900
815,000000	37,441400
814,000000	37,635600
813,000000	37,787200
812,000000	37,813900
811,000000	37,930900
810,000000	38,086600
809,000000	38,356400
808,000000	38,453900
807,000000	38,584300
806,000000	38,806200
805,000000	38,974400
804,000000	39,054300
803,000000	39,197600
802,000000	39,416800
801,000000	39,627900
800,000000	39,788900
799,000000	39,945900
798,000000	40,101500
797,000000	40,345500
796,000000	40,561800
795,000000	40,669900
794,000000	40,841300
793,000000	41,080800
792,000000	41,242900
791,000000	41,467200
790,000000	41,575300
789,000000	41,708500
788,000000	41,948300
787,000000	42,131900
786,000000	42,291900
785,000000	42,465400
784,000000	42,599500
783,000000	42,687300
782,000000	42,858200
781,000000	42,994500
780,000000	43,179900
779,000000	43,383700
778,000000	43,514900
777,000000	43,635300
776,000000	43,738700
775,000000	43,805500
774,000000	43,931100
773,000000	44,097200
772,000000	44,222600
771,000000	44,323000
770,000000	44,440000
769,000000	44,585000
768,000000	44,686600
767,000000	44,709800
766,000000	44,756000
765,000000	44,827600
764,000000	44,916600
763,000000	45,017100
762,000000	45,080500
761,000000	45,195200
760,000000	45,296700
759,000000	45,338000
758,000000	45,397900
757,000000	45,416600
756,000000	45,480700
755,000000	45,567800
754,000000	45,611900
753,000000	45,603600
752,000000	45,699700
751,000000	45,811500
750,000000	45,804300
749,000000	45,812400
748,000000	45,866900
747,000000	45,898400
746,000000	45,921200
745,000000	45,957500
744,000000	45,995800
743,000000	45,985900
742,000000	46,004700
741,000000	46,039300
740,000000	46,032100
739,000000	46,046400
738,000000	46,001500
737,000000	45,979700
736,000000	46,018400
735,000000	46,007500
734,000000	45,943900
733,000000	45,856200
732,000000	45,809400
731,000000	45,773300
730,000000	45,735800
729,000000	45,701200
728,000000	45,622800
727,000000	45,587900
726,000000	45,545800
725,000000	45,437500
724,000000	45,304700
723,000000	45,193900
722,000000	45,114100
721,000000	45,025100
720,000000	44,955700
719,000000	44,892600
718,000000	44,774300
717,000000	44,641700
716,000000	44,556900
715,000000	44,454200
714,000000	44,314400
713,000000	44,190800
712,000000	44,081700
711,000000	43,934100
710,000000	43,774500
709,000000	43,683300
708,000000	43,604800
707,000000	43,490800
706,000000	43,299200
705,000000	43,156500
704,000000	43,031100
703,000000	42,874900
702,000000	42,727500
701,000000	42,586700
700,000000	42,456400
699,000000	42,329600
698,000000	42,141900
697,000000	41,949600
696,000000	41,747800
695,000000	41,558500
694,000000	41,373300
693,000000	41,181300
692,000000	40,992700
691,000000	40,765400
690,000000	40,524600
689,000000	40,297600
688,000000	40,089600
687,000000	39,968000
686,000000	39,746400
685,000000	39,507600
684,000000	39,251300
683,000000	38,978400
682,000000	38,730700
681,000000	38,492200
680,000000	38,228800
679,000000	37,957000
678,000000	37,715000
677,000000	37,467800
676,000000	37,186700
675,000000	36,954500
674,000000	36,740400
673,000000	36,533800
672,000000	36,315100
671,000000	36,099700
670,000000	35,890100
669,000000	35,673400
668,000000	35,509000
667,000000	35,304200
666,000000	35,121600
665,000000	34,948600
664,000000	34,795800
663,000000	34,636300
662,000000	34,510200
661,000000	34,382200
660,000000	34,264600
659,000000	34,162900
658,000000	34,073800
657,000000	33,995800
656,000000	33,941200
655,000000	33,879000
654,000000	33,834700
653,000000	33,829100
652,000000	33,803900
651,000000	33,787500
650,000000	33,733400
649,000000	33,679000
648,000000	33,639600
647,000000	33,574000
646,000000	33,537000
645,000000	33,493400
644,000000	33,449200
643,000000	33,398700
642,000000	33,344600
641,000000	33,298500
640,000000	33,237900
639,000000	33,189300
638,000000	33,101400
637,000000	33,022600
636,000000	32,909200
635,000000	32,819000
634,000000	32,709000
633,000000	32,626300
632,000000	32,504700
631,000000	32,347700
630,000000	32,201300
629,000000	32,067700
628,000000	31,915600
627,000000	31,788400
626,000000	31,631200
625,000000	31,514000
624,000000	31,337900
623,000000	31,168500
622,000000	30,991900
621,000000	30,800900
620,000000	30,653100
619,000000	30,496000
618,000000	30,321800
617,000000	30,168800
616,000000	30,078000
615,000000	29,970300
614,000000	29,824800
613,000000	29,713600
612,000000	29,667800
611,000000	29,623700
610,000000	29,544400
609,000000	29,502900
608,000000	29,477300
607,000000	29,461100
606,000000	29,475700
605,000000	29,461900
604,000000	29,453400
603,000000	29,466600
602,000000	29,489000
601,000000	29,503900
600,000000	29,544300
599,000000	29,604200
598,000000	29,649400
597,000000	29,695900
596,000000	29,776200
595,000000	29,862100
594,000000	29,928200
593,000000	29,999200
592,000000	30,065800
591,000000	30,129800
590,000000	30,218200
589,000000	30,301600
588,000000	30,361700
587,000000	30,484200
586,000000	30,550500
585,000000	30,643200
584,000000	30,698200
583,000000	30,814100
582,000000	30,918000
581,000000	31,006900
580,000000	31,080500
579,000000	31,138500
578,000000	31,176000
577,000000	31,272800
576,000000	31,328300
575,000000	31,393600
574,000000	31,462900
573,000000	31,564500
572,000000	31,635600
571,000000	31,684500
570,000000	31,722800
569,000000	31,759200
568,000000	31,778100
567,000000	31,755300
566,000000	31,737700
565,000000	31,703400
564,000000	31,720900
563,000000	31,705800
562,000000	31,662100
561,000000	31,621900
560,000000	31,616200
559,000000	32,012500
558,000000	32,007300
557,000000	31,981000
556,000000	31,968500
555,000000	31,927200
554,000000	31,817300
553,000000	31,745400
552,000000	31,709600
551,000000	31,634300
550,000000	31,559100
549,000000	31,454700
548,000000	31,343400
547,000000	31,234900
546,000000	31,119700
545,000000	31,009700
544,000000	30,888100
543,000000	30,764800
542,000000	30,640800
541,000000	30,548100
540,000000	30,414500
539,000000	30,281000
538,000000	30,109700
537,000000	29,946200
536,000000	29,789600
535,000000	29,591300
534,000000	29,361900
533,000000	29,142500
532,000000	28,959800
531,000000	28,741900
530,000000	28,512900
529,000000	28,285500
528,000000	28,070300
527,000000	27,835000
526,000000	27,630200
525,000000	27,385500
524,000000	27,142600
523,000000	26,908400
522,000000	26,672700
521,000000	26,427300
520,000000	26,176700
519,000000	25,935700
518,000000	25,679900
517,000000	25,421600
516,000000	25,172100
515,000000	24,909800
514,000000	24,632700
513,000000	24,374200
512,000000	24,088200
511,000000	23,794100
510,000000	23,520000
509,000000	23,217200
508,000000	22,918800
507,000000	22,618400
506,000000	22,325100
505,000000	22,029900
504,000000	21,727200
503,000000	21,413000
502,000000	21,100300
501,000000	20,800800
500,000000	20,505300
499,000000	20,177900
498,000000	19,877000
497,000000	19,575700
496,000000	19,277200
495,000000	18,961400
494,000000	18,659600
493,000000	18,357100
492,000000	18,047900
491,000000	17,739700
490,000000	17,426100
489,000000	17,116500
488,000000	16,824100
487,000000	16,540500
486,000000	16,237000
485,000000	15,957900
484,000000	15,699700
483,000000	15,435900
482,000000	15,127000
481,000000	14,806600
480,000000	14,510200
479,000000	14,289900
478,000000	14,123500
477,000000	13,977200
476,000000	13,858200
475,000000	13,757700
474,000000	13,674200
473,000000	13,598600
472,000000	13,539000
471,000000	13,501900
470,000000	13,476900
469,000000	13,451200
468,000000	13,433800
467,000000	13,434400
466,000000	13,424500
465,000000	13,424100
464,000000	13,445200
463,000000	13,465500
462,000000	13,468600
461,000000	13,470700
460,000000	13,476800
459,000000	13,471600
458,000000	13,464800
457,000000	13,454700
456,000000	13,443700
455,000000	13,415800
454,000000	13,401100
453,000000	13,393600
452,000000	13,340800
451,000000	13,277700
450,000000	13,243900
449,000000	13,211100
448,000000	13,164500
447,000000	13,099600
446,000000	13,041200
445,000000	13,012900
444,000000	12,949000
443,000000	12,829800
442,000000	12,722300
441,000000	12,628500
440,000000	12,540700
439,000000	12,435300
438,000000	12,305200
437,000000	12,204300
436,000000	12,106300
435,000000	11,988300
434,000000	11,864800
433,000000	11,740000
432,000000	11,620400
431,000000	11,505900
430,000000	11,389100
429,000000	11,249400
428,000000	11,128900
427,000000	11,002800
426,000000	10,856500
425,000000	10,697800
424,000000	10,553800
423,000000	10,418700
422,000000	10,279500
421,000000	10,135400
420,000000	9,983200
419,000000	9,809800
418,000000	9,635000
417,000000	9,462100
416,000000	9,292500
415,000000	9,128100
414,000000	8,955000
413,000000	8,771900
412,000000	8,583000
411,000000	8,401200
410,000000	8,212100
409,000000	8,014100
408,000000	7,821500
407,000000	7,631300
406,000000	7,447700
405,000000	7,260400
404,000000	7,059500
403,000000	6,870400
402,000000	6,689300
401,000000	6,483500
400,000000	6,293000
399,000000	6,120400
398,000000	5,940900
397,000000	5,761800
396,000000	5,598900
395,000000	5,443800
394,000000	5,283500
393,000000	5,133700
392,000000	4,985400
391,000000	4,844000
390,000000	4,729400
389,000000	4,622900
388,000000	4,504500
387,000000	4,401000
386,000000	4,309500
385,000000	4,219600
384,000000	4,138500
383,000000	4,065400
382,000000	3,987700
381,000000	3,916700
380,000000	3,860800
379,000000	3,794500
378,000000	3,738700
377,000000	3,702900
376,000000	3,839400
375,000000	3,752600
374,000000	3,618500
373,000000	3,585700
372,000000	3,637300
371,000000	3,582200
370,000000	3,463700
369,000000	3,460900
368,000000	3,522100
367,000000	3,526400
366,000000	3,517800
365,000000	3,461400
364,000000	3,460500
363,000000	3,409200
362,000000	3,443800
361,000000	3,413300
360,000000	3,384700
359,000000	3,415000
358,000000	3,407300
357,000000	3,366100
356,000000	3,306800
355,000000	3,192600
354,000000	3,182800
353,000000	3,183500
352,000000	3,187300
351,000000	3,242700
350,000000	3,268600
349,000000	3,195400
348,000000	3,123200
347,000000	3,190300
346,000000	3,060300
345,000000	3,170600
344,000000	3,168500
343,000000	3,177400
342,000000	3,255700
341,000000	3,385600
340,000000	3,038000
339,000000	3,173700
338,000000	3,195400
337,000000	3,184700
336,000000	3,098600
335,000000	3,261700
334,000000	3,138300
333,000000	3,137400
332,000000	3,180500
331,000000	3,190000
330,000000	3,071800
329,000000	2,962200
328,000000	3,027600
327,000000	3,220500
326,000000	2,995600
325,000000	3,506500
324,000000	3,384800
323,000000	2,901200
322,000000	3,172900
321,000000	3,470500
320,000000	3,625600
319,000000	3,128600
318,000000	3,321300
317,000000	3,709100
316,000000	3,024400
315,000000	2,985700
314,000000	2,843400
313,000000	2,955200
312,000000	2,904200
311,000000	2,864600
310,000000	2,921300
309,000000	2,876800
308,000000	2,925600
307,000000	2,864700
306,000000	2,877200
305,000000	2,927200
304,000000	2,869400
303,000000	2,868100
302,000000	2,860500
301,000000	2,869300
300,000000	2,921300
299,000000	2,928800
298,000000	2,896500
297,000000	2,901800
296,000000	2,911600
295,000000	2,917900
294,000000	2,939600
293,000000	2,916500
292,000000	2,938300
291,000000	2,937300
290,000000	2,888600
289,000000	2,877900
288,000000	2,895600
287,000000	2,947300
286,000000	2,910200
285,000000	2,913600
284,000000	2,868400
283,000000	2,944600
282,000000	2,904100
281,000000	2,928300
280,000000	2,945900
279,000000	2,937300
278,000000	2,903100
277,000000	2,905900
276,000000	2,901700
275,000000	2,955600
274,000000	2,955100
273,000000	2,900900
272,000000	2,941800
271,000000	2,936200
270,000000	2,976400
269,000000	3,015800
268,000000	2,947200
267,000000	2,962700
266,000000	2,972200
265,000000	3,017200
264,000000	3,011000
263,000000	3,043700
262,000000	3,044000
261,000000	3,029000
260,000000	3,044300
259,000000	3,072900
258,000000	3,049500
257,000000	3,059700
256,000000	3,090900
255,000000	3,119700
254,000000	3,060700
253,000000	3,042500
252,000000	3,092100
251,000000	3,090200
250,000000	3,043300
