Time1=100ms:Average1=5:Objective=10X:Aperture=1: (11/21/2018 3:05:22 PM)
11/21/2018 3:05:22 PM
Reflectance
10X
Ap#: 1
Avg1: 5.000000
Avg2: 0.000000
Int.Time1:100.000000
Int.Time2:0.000000
420.190645	6.683560
420.624620	6.591728
421.058582	6.497718
421.492531	6.414200
421.926468	6.331795
422.360391	6.249683
422.794301	6.188783
423.228199	6.137529
423.662083	6.087768
424.095955	6.034817
424.529813	5.986595
424.963658	5.952280
425.397491	5.909474
425.831310	5.861154
426.265116	5.826332
426.698909	5.787840
427.132689	5.752413
427.566455	5.726378
428.000209	5.703714
428.433949	5.682389
428.867676	5.660116
429.301389	5.643493
429.735090	5.619443
430.168777	5.597533
430.602451	5.587689
431.036111	5.561105
431.469759	5.538596
431.903392	5.525882
432.337013	5.511094
432.770620	5.486527
433.204213	5.465569
433.637794	5.460889
434.071360	5.450477
434.504914	5.439585
434.938453	5.433019
435.371979	5.429235
435.805492	5.435567
436.238991	5.435785
436.672477	5.427703
437.105949	5.440294
437.539407	5.435750
437.972852	5.437611
438.406283	5.438686
438.839700	5.442363
439.273104	5.448132
439.706494	5.448544
440.139871	5.452127
440.573233	5.455411
441.006582	5.451704
441.439917	5.450930
441.873238	5.451789
442.306546	5.452270
442.739839	5.444516
443.173119	5.433523
443.606385	5.427682
444.039636	5.418425
444.472874	5.414487
444.906099	5.412121
445.339309	5.412026
445.772505	5.411114
446.205687	5.415674
446.638855	5.418953
447.072009	5.417975
447.505149	5.415531
447.938275	5.420136
448.371387	5.424347
448.804485	5.422159
449.237569	5.418046
449.670638	5.416432
450.103694	5.416861
450.536735	5.407481
450.969762	5.401207
451.402774	5.388129
451.835773	5.371569
452.268757	5.366731
452.701727	5.361672
453.134683	5.359604
453.567624	5.358076
454.000551	5.354388
454.433464	5.353857
454.866362	5.349383
455.299246	5.347164
455.732116	5.346087
456.164971	5.346283
456.597811	5.349250
457.030638	5.346061
457.463449	5.349413
457.896246	5.349544
458.329029	5.346915
458.761797	5.344235
459.194551	5.339722
459.627290	5.328658
460.060014	5.320641
460.492724	5.311328
460.925419	5.305010
461.358099	5.299956
461.790765	5.292635
462.223416	5.285350
462.656052	5.274721
463.088674	5.261427
463.521281	5.249837
463.953873	5.244235
464.386450	5.235788
464.819012	5.232240
465.251560	5.233735
465.684093	5.226184
466.116611	5.224855
466.549114	5.225446
466.981602	5.232783
467.414075	5.237247
467.846533	5.246783
468.278977	5.255922
468.711405	5.270187
469.143818	5.287122
469.576216	5.306356
470.008600	5.328230
470.440968	5.345552
470.873321	5.366970
471.305659	5.386433
471.737982	5.412353
472.170289	5.442686
472.602582	5.470864
473.034859	5.505351
473.467122	5.542675
473.899369	5.583677
474.331600	5.628971
474.763817	5.674217
475.196018	5.723751
475.628204	5.782497
476.060375	5.845046
476.492530	5.910992
476.924670	5.981471
477.356795	6.052063
477.788904	6.132042
478.220998	6.209077
478.653076	6.284898
479.085139	6.366457
479.517186	6.447616
479.949219	6.522389
480.381235	6.594304
480.813236	6.668865
481.245221	6.746459
481.677191	6.822160
482.109146	6.892544
482.541084	6.967180
482.973008	7.040085
483.404915	7.114647
483.836807	7.192758
484.268683	7.269367
484.700544	7.348142
485.132388	7.425147
485.564217	7.498131
485.996031	7.575116
486.427828	7.649093
486.859610	7.718812
487.291376	7.787827
487.723126	7.856163
488.154860	7.923105
488.586579	7.990258
489.018281	8.056005
489.449968	8.124118
489.881639	8.195813
490.313293	8.262800
490.744932	8.327152
491.176555	8.392880
491.608162	8.462258
492.039753	8.533513
492.471328	8.599887
492.902886	8.667285
493.334429	8.735294
493.765956	8.801087
494.197466	8.867347
494.628960	8.929360
495.060439	8.994209
495.491901	9.060658
495.923347	9.122755
496.354776	9.189366
496.786190	9.256494
497.217587	9.331533
497.648968	9.405348
498.080332	9.487955
498.511681	9.569241
498.943013	9.654486
499.374328	9.745853
499.805628	9.839022
500.236911	9.937601
500.668177	10.034029
501.099427	10.129774
501.530661	10.226549
501.961878	10.322056
502.393079	10.413828
502.824264	10.504198
503.255431	10.593081
503.686583	10.676645
504.117717	10.764418
504.548835	10.848886
504.979937	10.931294
505.411022	11.012203
505.842090	11.095308
506.273142	11.178281
506.704177	11.262512
507.135195	11.345915
507.566197	11.429127
507.997182	11.510631
508.428150	11.592186
508.859102	11.670825
509.290036	11.748650
509.720954	11.821245
510.151855	11.895227
510.582739	11.962023
511.013607	12.033411
511.444457	12.096970
511.875291	12.162855
512.306107	12.230168
512.736907	12.294774
513.167690	12.363313
513.598456	12.432668
514.029205	12.508056
514.459936	12.589984
514.890651	12.678680
515.321349	12.770986
515.752030	12.877778
516.182693	12.990552
516.613340	13.109861
517.043969	13.246085
517.474582	13.390229
517.905177	13.547664
518.335755	13.716573
518.766315	13.894094
519.196859	14.081802
519.627385	14.276904
520.057894	14.480309
520.488386	14.691864
520.918860	14.913964
521.349318	15.150865
521.779757	15.396870
522.210180	15.654745
522.640585	15.925000
523.070973	16.207634
523.501343	16.495765
523.931696	16.795672
524.362031	17.099161
524.792349	17.417158
525.222650	17.744560
525.652933	18.080190
526.083198	18.423314
526.513446	18.770628
526.943677	19.127046
527.373890	19.487592
527.804085	19.855820
528.234262	20.226131
528.664422	20.604261
529.094565	20.978669
529.524689	21.358946
529.954796	21.749819
530.384885	22.141430
530.814957	22.537406
531.245011	22.936960
531.675047	23.339483
532.105065	23.754709
532.535065	24.177129
532.965048	24.605327
533.395013	25.043078
533.824959	25.484707
534.254888	25.927761
534.684799	26.387154
535.114693	26.848931
535.544568	27.311680
535.974425	27.771969
536.404264	28.232519
536.834086	28.690781
537.263889	29.143419
537.693674	29.590967
538.123441	30.030709
538.553190	30.460564
538.982921	30.882384
539.412634	31.297413
539.842329	31.703130
540.272006	32.103097
540.701664	32.491766
541.131304	32.865781
541.560926	33.234225
541.990530	33.593135
542.420116	33.945878
542.849683	34.284885
543.279232	34.609318
543.708763	34.926497
544.138275	35.227999
544.567769	35.520712
544.997245	35.798189
545.426702	36.063050
545.856141	36.314954
546.285562	36.563760
546.714964	36.796407
547.144347	37.032169
547.573713	37.259377
548.003059	37.478923
548.432387	37.698346
548.861697	37.912415
549.290988	38.123534
549.720260	38.333819
550.149514	38.535106
550.578750	38.736653
551.007966	38.943948
551.437164	39.152992
551.866344	39.368108
552.295504	39.584686
552.724646	39.801113
553.153769	40.027801
553.582874	40.250307
554.011960	40.472714
554.441027	40.699924
554.870075	40.925671
555.299104	41.147028
555.728115	41.364594
556.157106	41.587786
556.586079	41.801735
557.015033	42.008721
557.443968	42.215766
557.872884	42.419735
558.301781	42.624026
558.730659	42.810585
559.159518	43.003859
559.588358	43.192615
560.017180	43.378609
560.445982	43.551192
560.874765	43.722983
561.303528	43.892891
561.732273	44.050447
562.160999	44.209270
562.589705	44.363192
563.018393	44.512297
563.447061	44.656959
563.875710	44.800380
564.304340	44.937044
564.732950	45.066028
565.161542	45.189392
565.590114	45.311422
566.018666	45.430614
566.447200	45.543791
566.875714	45.661284
567.304208	45.775373
567.732684	45.886274
568.161140	45.990070
568.589576	46.095919
569.017993	46.197188
569.446391	46.289559
569.874769	46.383699
570.303128	46.475762
570.731467	46.563903
571.159787	46.642517
571.588087	46.711092
572.016368	46.795718
572.444629	46.865415
572.872870	46.929094
573.301092	46.999542
573.729294	47.060592
574.157476	47.118960
574.585639	47.171226
575.013782	47.224302
575.441906	47.273054
575.870009	47.324933
576.298093	47.377885
576.726157	47.435082
577.154202	47.484455
577.582226	47.538508
578.010231	47.597529
578.438216	47.657405
578.866181	47.719220
579.294126	47.778858
579.722051	47.841571
580.149957	47.899063
580.577842	47.964951
581.005707	48.023271
581.433553	48.092357
581.861378	48.155432
582.289184	48.225027
582.716969	48.292098
583.144734	48.355766
583.572479	48.426606
584.000205	48.489772
584.427910	48.553885
584.855594	48.623766
585.283259	48.676427
585.710904	48.729506
586.138528	48.781885
586.566132	48.817480
586.993716	48.855620
587.421280	48.883470
587.848823	48.906101
588.276346	48.921720
588.703849	48.931209
589.131332	48.923419
589.558794	48.903782
589.986236	48.871743
590.413657	48.838530
590.841058	48.787084
591.268438	48.723386
591.695799	48.645388
592.123138	48.562523
592.550458	48.475324
592.977756	48.380640
593.405034	48.280448
593.832292	48.170452
594.259529	48.059628
594.686746	47.937021
595.113942	47.820154
595.541117	47.693323
595.968272	47.571834
596.395406	47.449629
596.822519	47.321659
597.249612	47.197585
597.676684	47.078727
598.103735	46.959174
598.530766	46.846520
598.957775	46.736055
599.384764	46.626180
599.811733	46.528450
600.238680	46.432146
600.665606	46.344946
601.092512	46.255572
601.519397	46.175845
601.946261	46.095145
602.373104	46.021315
602.799926	45.957401
603.226727	45.897459
603.653507	45.835222
604.080266	45.777718
604.507004	45.726940
604.933721	45.682258
605.360417	45.633071
605.787092	45.584549
606.213746	45.537945
606.640379	45.488107
607.066991	45.440683
607.493581	45.394418
607.920150	45.354434
608.346699	45.301553
608.773226	45.255070
609.199731	45.197505
609.626216	45.136455
610.052679	45.068392
610.479121	44.996967
610.905542	44.913560
611.331941	44.827817
611.758319	44.734744
612.184676	44.639413
612.611011	44.534321
613.037325	44.417253
613.463617	44.296608
613.889888	44.160434
614.316138	44.023493
614.742366	43.872529
615.168573	43.713745
615.594758	43.542622
616.020921	43.361007
616.447063	43.170787
616.873184	42.974468
617.299283	42.769819
617.725360	42.553425
618.151416	42.330948
618.577450	42.095309
619.003462	41.856381
619.429453	41.606607
619.855422	41.356422
620.281369	41.105281
620.707295	40.837043
621.133199	40.559263
621.559081	40.280877
621.984941	39.990907
622.410779	39.696481
622.836596	39.392945
623.262391	39.083715
623.688163	38.765307
624.113914	38.440969
624.539644	38.105583
624.965351	37.764652
625.391036	37.412054
625.816699	37.051760
626.242340	36.681386
626.667960	36.298171
627.093557	35.914715
627.519132	35.521694
627.944685	35.121749
628.370216	34.719213
628.795725	34.321108
629.221212	33.912832
629.646677	33.511377
630.072119	33.115013
630.497540	32.720439
630.922938	32.333132
631.348314	31.950631
631.773668	31.582834
632.198999	31.226601
632.624308	30.881291
633.049595	30.548142
633.474860	30.223111
633.900102	29.923177
634.325322	29.639054
634.750520	29.369976
635.175695	29.119883
635.600848	28.888930
636.025978	28.678253
636.451086	28.485130
636.876171	28.308645
637.301234	28.147490
637.726275	28.002793
638.151293	27.878682
638.576288	27.769475
639.001261	27.676659
639.426211	27.601327
639.851139	27.547080
640.276044	27.509094
640.700927	27.485855
641.125787	27.480676
641.550624	27.491654
641.975438	27.519390
642.400230	27.565448
642.824999	27.622217
643.249745	27.689269
643.674469	27.773832
644.099169	27.865448
644.523847	27.972123
644.948502	28.086286
645.373135	28.204739
645.797744	28.331813
646.222330	28.465213
646.646894	28.600673
647.071435	28.736712
647.495953	28.873463
647.920447	29.012993
648.344919	29.149004
648.769368	29.282409
649.193794	29.416988
649.618197	29.542853
650.042576	29.672116
650.466933	29.803062
650.891267	29.933458
651.315577	30.059205
651.739864	30.187725
652.164129	30.318399
652.588370	30.448807
653.012587	30.576589
653.436782	30.709283
653.860953	30.843742
654.285102	30.983727
654.709226	31.129192
655.133328	31.271788
655.557406	31.420785
655.981461	31.573221
656.405493	31.737254
656.829501	31.897355
657.253486	32.069164
657.677448	32.236055
658.101386	32.411381
658.525301	32.590588
658.949192	32.768131
659.373060	32.947110
659.796904	33.125540
660.220725	33.304927
660.644522	33.483201
661.068296	33.660379
661.492046	33.836438
661.915772	34.015485
662.339475	34.186706
662.763154	34.359837
663.186810	34.527055
663.610442	34.688564
664.034050	34.844660
664.457635	34.996412
664.881196	35.142502
665.304733	35.282026
665.728247	35.415343
666.151736	35.544483
666.575202	35.663520
666.998644	35.777904
667.422062	35.882078
667.845457	35.970485
668.268827	36.050405
668.692174	36.118479
669.115496	36.176194
669.538795	36.216895
669.962070	36.253815
670.385321	36.270129
670.808547	36.281026
671.231750	36.274372
671.654929	36.257523
672.078084	36.238777
672.501214	36.202358
672.924321	36.168881
673.347404	36.127700
673.770462	36.080300
674.193496	36.023644
674.616506	35.967464
675.039492	35.903718
675.462454	35.842903
675.885391	35.779028
676.308305	35.712748
676.731194	35.644725
677.154058	35.577207
677.576899	35.510890
677.999715	35.445101
678.422507	35.378051
678.845274	35.312660
679.268017	35.254530
679.690736	35.199403
680.113430	35.146823
680.536100	35.104301
680.958746	35.072357
681.381367	35.052390
681.803963	35.038027
682.226535	35.034890
682.649083	35.041829
683.071605	35.058901
683.494104	35.089475
683.916578	35.129389
684.339027	35.184479
684.761451	35.248683
685.183851	35.318341
685.606227	35.404186
686.028577	35.493725
686.450903	35.596795
686.873204	35.704269
687.295481	35.822033
687.717733	35.944502
688.139959	36.069488
688.562162	36.201821
688.984339	36.343880
689.406492	36.489836
689.828619	36.637596
690.250722	36.789260
690.672800	36.941746
691.094853	37.095460
691.516881	37.252158
691.938884	37.410532
692.360863	37.560716
692.782816	37.707557
693.204744	37.853451
693.626647	37.986928
694.048526	38.118258
694.470379	38.238965
694.892207	38.356885
695.314010	38.463453
695.735788	38.565106
696.157540	38.650750
696.579268	38.731505
697.000970	38.804473
697.422648	38.868028
697.844300	38.920919
698.265926	38.967472
698.687528	39.006498
699.109104	39.034009
699.530655	39.048614
699.952181	39.062769
