PE UV       SUBTECH     SPECTRUM    ASCII       PEDS        4.00        
   -1
CICIMAUCR0097-1.ASC
24/04/03
15:09:17.00
24/04/03
15:09:17.00
Vinicio Soto Monge
C. kalinini
250,000000
1
Lambda 1050
1050L1511233
PerkinElmer UV WinLab 6.3.2.0749 / 2.02.05 Lambda 900 UV/VIS/NIR, Aug  7 2015 09:38:08

0
0
3350/servo 860,8/2
0
0
UV/VIS
1
1
1
DoubleDePol,CommonBeamDepol,RBeamAtt,SBeamAtt,60mm sphere, WB InGaAs Detector
0
0
0
0
Program
Program
3350/servo 860,8/2
3350/0,2 860,8/0,2
3350/0,2 860,8/0,2
0
15.00
 
 
 
0
 
860,8
319,2
860,8
Front
100
on
S:100 R:100
0
0
0
0
 
0
 
 
 
0
 
 
0
0
0
0
0
 
 
 
 
0
0


0
0
#HDR
-1
-1
#GR
nm
%R
1.0
0.0
2500,000000
-1,000000
2251
8
71,118700
4,659200
#DATA
2500,000000	4,879300
2499,000000	4,748400
2498,000000	4,917000
2497,000000	4,889800
2496,000000	4,778100
2495,000000	4,734200
2494,000000	4,808000
2493,000000	4,801600
2492,000000	4,763500
2491,000000	4,801900
2490,000000	4,785600
2489,000000	4,758500
2488,000000	4,691200
2487,000000	4,754100
2486,000000	4,799600
2485,000000	4,726400
2484,000000	4,748600
2483,000000	4,736000
2482,000000	4,738100
2481,000000	4,738000
2480,000000	4,747400
2479,000000	4,750900
2478,000000	4,727800
2477,000000	4,725700
2476,000000	4,743400
2475,000000	4,723700
2474,000000	4,662500
2473,000000	4,719100
2472,000000	4,694300
2471,000000	4,699500
2470,000000	4,697500
2469,000000	4,659200
2468,000000	4,732800
2467,000000	4,707300
2466,000000	4,684200
2465,000000	4,730100
2464,000000	4,738300
2463,000000	4,733500
2462,000000	4,738400
2461,000000	4,745900
2460,000000	4,787400
2459,000000	4,768900
2458,000000	4,797200
2457,000000	4,838500
2456,000000	4,846100
2455,000000	4,879000
2454,000000	4,904200
2453,000000	4,921700
2452,000000	4,945900
2451,000000	4,976700
2450,000000	5,007700
2449,000000	5,043000
2448,000000	5,073500
2447,000000	5,093700
2446,000000	5,116300
2445,000000	5,145400
2444,000000	5,185600
2443,000000	5,214000
2442,000000	5,234000
2441,000000	5,257600
2440,000000	5,298800
2439,000000	5,303800
2438,000000	5,363200
2437,000000	5,368100
2436,000000	5,388400
2435,000000	5,403700
2434,000000	5,427500
2433,000000	5,463000
2432,000000	5,476600
2431,000000	5,484600
2430,000000	5,506800
2429,000000	5,528000
2428,000000	5,566300
2427,000000	5,578800
2426,000000	5,602200
2425,000000	5,611500
2424,000000	5,616700
2423,000000	5,636100
2422,000000	5,658100
2421,000000	5,675400
2420,000000	5,667500
2419,000000	5,691900
2418,000000	5,695300
2417,000000	5,703600
2416,000000	5,715900
2415,000000	5,728100
2414,000000	5,744500
2413,000000	5,736600
2412,000000	5,744900
2411,000000	5,774700
2410,000000	5,770000
2409,000000	5,782500
2408,000000	5,790800
2407,000000	5,792400
2406,000000	5,832400
2405,000000	5,846900
2404,000000	5,847300
2403,000000	5,839200
2402,000000	5,846800
2401,000000	5,857900
2400,000000	5,874800
2399,000000	5,898200
2398,000000	5,926900
2397,000000	5,927900
2396,000000	5,933000
2395,000000	5,943700
2394,000000	5,961100
2393,000000	5,969600
2392,000000	5,988900
2391,000000	5,995800
2390,000000	5,995000
2389,000000	6,001500
2388,000000	6,023100
2387,000000	6,019100
2386,000000	6,012000
2385,000000	6,015000
2384,000000	6,016700
2383,000000	6,026100
2382,000000	6,031500
2381,000000	6,022900
2380,000000	6,018400
2379,000000	6,012700
2378,000000	6,004400
2377,000000	6,010600
2376,000000	6,011400
2375,000000	6,003100
2374,000000	5,978000
2373,000000	5,961900
2372,000000	5,955900
2371,000000	5,944500
2370,000000	5,941300
2369,000000	5,922800
2368,000000	5,893200
2367,000000	5,872500
2366,000000	5,853800
2365,000000	5,820200
2364,000000	5,789700
2363,000000	5,779100
2362,000000	5,759000
2361,000000	5,711300
2360,000000	5,678400
2359,000000	5,663900
2358,000000	5,647400
2357,000000	5,637800
2356,000000	5,616500
2355,000000	5,601200
2354,000000	5,591300
2353,000000	5,564500
2352,000000	5,565000
2351,000000	5,586200
2350,000000	5,587000
2349,000000	5,592100
2348,000000	5,620900
2347,000000	5,641100
2346,000000	5,658700
2345,000000	5,658800
2344,000000	5,668200
2343,000000	5,706500
2342,000000	5,717500
2341,000000	5,721900
2340,000000	5,742500
2339,000000	5,742000
2338,000000	5,746900
2337,000000	5,758700
2336,000000	5,757200
2335,000000	5,754600
2334,000000	5,735400
2333,000000	5,719200
2332,000000	5,707800
2331,000000	5,697600
2330,000000	5,675400
2329,000000	5,652700
2328,000000	5,622700
2327,000000	5,584100
2326,000000	5,567400
2325,000000	5,538100
2324,000000	5,500900
2323,000000	5,461300
2322,000000	5,425900
2321,000000	5,378100
2320,000000	5,336200
2319,000000	5,302000
2318,000000	5,261300
2317,000000	5,241500
2316,000000	5,200600
2315,000000	5,161300
2314,000000	5,119400
2313,000000	5,066200
2312,000000	5,037900
2311,000000	5,011400
2310,000000	5,002000
2309,000000	4,981800
2308,000000	4,959300
2307,000000	4,941700
2306,000000	4,946900
2305,000000	4,947300
2304,000000	4,961200
2303,000000	4,971800
2302,000000	4,974900
2301,000000	4,996400
2300,000000	5,012500
2299,000000	5,038300
2298,000000	5,063300
2297,000000	5,079000
2296,000000	5,092500
2295,000000	5,118200
2294,000000	5,125200
2293,000000	5,131700
2292,000000	5,140000
2291,000000	5,137400
2290,000000	5,155600
2289,000000	5,138800
2288,000000	5,125200
2287,000000	5,115400
2286,000000	5,108500
2285,000000	5,084500
2284,000000	5,076300
2283,000000	5,036700
2282,000000	5,002800
2281,000000	4,977900
2280,000000	4,951400
2279,000000	4,913900
2278,000000	4,881400
2277,000000	4,859800
2276,000000	4,822000
2275,000000	4,811200
2274,000000	4,789400
2273,000000	4,766400
2272,000000	4,739700
2271,000000	4,742300
2270,000000	4,734000
2269,000000	4,721400
2268,000000	4,709100
2267,000000	4,718500
2266,000000	4,744900
2265,000000	4,757700
2264,000000	4,781800
2263,000000	4,835300
2262,000000	4,856100
2261,000000	4,909000
2260,000000	4,934300
2259,000000	4,996600
2258,000000	5,049200
2257,000000	5,101900
2256,000000	5,193700
2255,000000	5,235700
2254,000000	5,303000
2253,000000	5,366600
2252,000000	5,421800
2251,000000	5,501800
2250,000000	5,557100
2249,000000	5,623800
2248,000000	5,671800
2247,000000	5,729000
2246,000000	5,771900
2245,000000	5,805300
2244,000000	5,847200
2243,000000	5,889800
2242,000000	5,925000
2241,000000	5,968100
2240,000000	5,981700
2239,000000	6,016900
2238,000000	6,022800
2237,000000	6,045700
2236,000000	6,045900
2235,000000	6,094200
2234,000000	6,104400
2233,000000	6,087300
2232,000000	6,087900
2231,000000	6,108100
2230,000000	6,083000
2229,000000	6,058700
2228,000000	6,047600
2227,000000	6,050700
2226,000000	6,013500
2225,000000	5,979300
2224,000000	5,943900
2223,000000	5,903400
2222,000000	5,859700
2221,000000	5,823400
2220,000000	5,764900
2219,000000	5,753200
2218,000000	5,715200
2217,000000	5,666400
2216,000000	5,630300
2215,000000	5,592700
2214,000000	5,598900
2213,000000	5,568800
2212,000000	5,555800
2211,000000	5,526700
2210,000000	5,515000
2209,000000	5,550600
2208,000000	5,561400
2207,000000	5,622400
2206,000000	5,657400
2205,000000	5,678300
2204,000000	5,738500
2203,000000	5,812600
2202,000000	5,876600
2201,000000	5,985000
2200,000000	6,065600
2199,000000	6,140000
2198,000000	6,240400
2197,000000	6,323500
2196,000000	6,397400
2195,000000	6,476200
2194,000000	6,562100
2193,000000	6,616600
2192,000000	6,689400
2191,000000	6,745700
2190,000000	6,816800
2189,000000	6,869900
2188,000000	6,914400
2187,000000	6,949600
2186,000000	7,008800
2185,000000	7,044200
2184,000000	7,084800
2183,000000	7,119300
2182,000000	7,121600
2181,000000	7,138500
2180,000000	7,155500
2179,000000	7,183800
2178,000000	7,198700
2177,000000	7,226700
2176,000000	7,233000
2175,000000	7,245000
2174,000000	7,271200
2173,000000	7,290800
2172,000000	7,297100
2171,000000	7,315800
2170,000000	7,346000
2169,000000	7,362700
2168,000000	7,376300
2167,000000	7,392600
2166,000000	7,401700
2165,000000	7,418000
2164,000000	7,459600
2163,000000	7,500800
2162,000000	7,524400
2161,000000	7,560400
2160,000000	7,581200
2159,000000	7,612100
2158,000000	7,652100
2157,000000	7,671900
2156,000000	7,696400
2155,000000	7,740500
2154,000000	7,792200
2153,000000	7,821800
2152,000000	7,859200
2151,000000	7,899700
2150,000000	7,925200
2149,000000	7,953200
2148,000000	7,971100
2147,000000	7,999500
2146,000000	8,036100
2145,000000	8,091200
2144,000000	8,111500
2143,000000	8,135300
2142,000000	8,158600
2141,000000	8,184100
2140,000000	8,208800
2139,000000	8,237700
2138,000000	8,252900
2137,000000	8,293500
2136,000000	8,318900
2135,000000	8,336200
2134,000000	8,364900
2133,000000	8,374300
2132,000000	8,392100
2131,000000	8,420200
2130,000000	8,437900
2129,000000	8,447400
2128,000000	8,446200
2127,000000	8,458700
2126,000000	8,478100
2125,000000	8,480900
2124,000000	8,489500
2123,000000	8,482600
2122,000000	8,488700
2121,000000	8,489800
2120,000000	8,486300
2119,000000	8,492600
2118,000000	8,491200
2117,000000	8,487600
2116,000000	8,486400
2115,000000	8,483000
2114,000000	8,477100
2113,000000	8,475200
2112,000000	8,468100
2111,000000	8,463100
2110,000000	8,453100
2109,000000	8,436100
2108,000000	8,427900
2107,000000	8,427900
2106,000000	8,425200
2105,000000	8,416800
2104,000000	8,411800
2103,000000	8,396800
2102,000000	8,391200
2101,000000	8,387400
2100,000000	8,373100
2099,000000	8,347900
2098,000000	8,329800
2097,000000	8,326600
2096,000000	8,330300
2095,000000	8,324600
2094,000000	8,317400
2093,000000	8,300300
2092,000000	8,281400
2091,000000	8,274500
2090,000000	8,266300
2089,000000	8,259900
2088,000000	8,251700
2087,000000	8,235500
2086,000000	8,231400
2085,000000	8,218600
2084,000000	8,193600
2083,000000	8,181100
2082,000000	8,168100
2081,000000	8,156900
2080,000000	8,146300
2079,000000	8,122300
2078,000000	8,099300
2077,000000	8,104400
2076,000000	8,091000
2075,000000	8,057000
2074,000000	8,039000
2073,000000	8,017800
2072,000000	8,001700
2071,000000	7,991500
2070,000000	7,957600
2069,000000	7,930900
2068,000000	7,920000
2067,000000	7,906000
2066,000000	7,872400
2065,000000	7,860500
2064,000000	7,839900
2063,000000	7,821000
2062,000000	7,804000
2061,000000	7,787200
2060,000000	7,787500
2059,000000	7,803200
2058,000000	7,792000
2057,000000	7,775200
2056,000000	7,777300
2055,000000	7,795500
2054,000000	7,802100
2053,000000	7,813000
2052,000000	7,845300
2051,000000	7,870700
2050,000000	7,897100
2049,000000	7,931900
2048,000000	7,975000
2047,000000	8,021600
2046,000000	8,051200
2045,000000	8,098100
2044,000000	8,151800
2043,000000	8,210900
2042,000000	8,262200
2041,000000	8,307000
2040,000000	8,375400
2039,000000	8,407000
2038,000000	8,447800
2037,000000	8,496500
2036,000000	8,549900
2035,000000	8,587900
2034,000000	8,628000
2033,000000	8,680700
2032,000000	8,708700
2031,000000	8,730800
2030,000000	8,777400
2029,000000	8,804800
2028,000000	8,813200
2027,000000	8,828500
2026,000000	8,856700
2025,000000	8,873500
2024,000000	8,891300
2023,000000	8,895900
2022,000000	8,927700
2021,000000	8,942000
2020,000000	8,948300
2019,000000	8,987200
2018,000000	8,998500
2017,000000	9,002600
2016,000000	9,009700
2015,000000	9,003000
2014,000000	9,011300
2013,000000	9,042700
2012,000000	9,035100
2011,000000	9,043800
2010,000000	9,045000
2009,000000	9,046000
2008,000000	9,030800
2007,000000	9,013500
2006,000000	9,009300
2005,000000	9,007700
2004,000000	8,992400
2003,000000	8,968700
2002,000000	8,966400
2001,000000	8,953900
2000,000000	8,918300
1999,000000	8,917400
1998,000000	8,904900
1997,000000	8,880300
1996,000000	8,860100
1995,000000	8,830700
1994,000000	8,804600
1993,000000	8,789600
1992,000000	8,794500
1991,000000	8,754600
1990,000000	8,754300
1989,000000	8,716100
1988,000000	8,680100
1987,000000	8,670000
1986,000000	8,647100
1985,000000	8,610200
1984,000000	8,587800
1983,000000	8,536400
1982,000000	8,543900
1981,000000	8,508300
1980,000000	8,475700
1979,000000	8,448900
1978,000000	8,417900
1977,000000	8,395300
1976,000000	8,357700
1975,000000	8,337400
1974,000000	8,315900
1973,000000	8,281200
1972,000000	8,259000
1971,000000	8,215500
1970,000000	8,194100
1969,000000	8,180600
1968,000000	8,171100
1967,000000	8,143400
1966,000000	8,126800
1965,000000	8,105900
1964,000000	8,071700
1963,000000	8,039100
1962,000000	8,037400
1961,000000	8,045300
1960,000000	8,002700
1959,000000	7,976400
1958,000000	7,965600
1957,000000	7,944900
1956,000000	7,928200
1955,000000	7,905000
1954,000000	7,902900
1953,000000	7,871600
1952,000000	7,843100
1951,000000	7,833200
1950,000000	7,804800
1949,000000	7,810500
1948,000000	7,791000
1947,000000	7,787700
1946,000000	7,759100
1945,000000	7,749000
1944,000000	7,738600
1943,000000	7,742100
1942,000000	7,743200
1941,000000	7,742900
1940,000000	7,746400
1939,000000	7,768400
1938,000000	7,782700
1937,000000	7,792900
1936,000000	7,810000
1935,000000	7,833400
1934,000000	7,829800
1933,000000	7,854800
1932,000000	7,897100
1931,000000	7,926200
1930,000000	7,957600
1929,000000	8,034200
1928,000000	8,074700
1927,000000	8,114000
1926,000000	8,163300
1925,000000	8,238600
1924,000000	8,277000
1923,000000	8,324300
1922,000000	8,418700
1921,000000	8,508200
1920,000000	8,591000
1919,000000	8,676900
1918,000000	8,748600
1917,000000	8,829800
1916,000000	8,893900
1915,000000	8,987100
1914,000000	9,113400
1913,000000	9,246400
1912,000000	9,366200
1911,000000	9,463300
1910,000000	9,573300
1909,000000	9,647800
1908,000000	9,729300
1907,000000	9,883100
1906,000000	10,014400
1905,000000	10,189800
1904,000000	10,335200
1903,000000	10,471300
1902,000000	10,604800
1901,000000	10,724800
1900,000000	10,895400
1899,000000	11,077500
1898,000000	11,249300
1897,000000	11,430800
1896,000000	11,559000
1895,000000	11,686000
1894,000000	11,842900
1893,000000	12,023900
1892,000000	12,225600
1891,000000	12,445500
1890,000000	12,634600
1889,000000	12,841400
1888,000000	13,057100
1887,000000	13,269500
1886,000000	13,515300
1885,000000	13,819000
1884,000000	14,143900
1883,000000	14,485700
1882,000000	14,827900
1881,000000	15,176700
1880,000000	15,511700
1879,000000	15,838200
1878,000000	16,141000
1877,000000	16,470400
1876,000000	16,779000
1875,000000	17,050200
1874,000000	17,294100
1873,000000	17,549000
1872,000000	17,777800
1871,000000	18,003800
1870,000000	18,180300
1869,000000	18,343200
1868,000000	18,480000
1867,000000	18,579000
1866,000000	18,653600
1865,000000	18,709500
1864,000000	18,765200
1863,000000	18,825000
1862,000000	18,882100
1861,000000	18,937100
1860,000000	18,974100
1859,000000	19,000200
1858,000000	19,022200
1857,000000	19,024100
1856,000000	19,012800
1855,000000	18,999000
1854,000000	18,980800
1853,000000	18,941500
1852,000000	18,911500
1851,000000	18,881900
1850,000000	18,855200
1849,000000	18,836200
1848,000000	18,809700
1847,000000	18,762600
1846,000000	18,690700
1845,000000	18,640100
1844,000000	18,597900
1843,000000	18,576300
1842,000000	18,589400
1841,000000	18,568600
1840,000000	18,524700
1839,000000	18,495900
1838,000000	18,449500
1837,000000	18,423900
1836,000000	18,391300
1835,000000	18,337700
1834,000000	18,273700
1833,000000	18,213800
1832,000000	18,157000
1831,000000	18,110500
1830,000000	18,066200
1829,000000	18,016600
1828,000000	17,958200
1827,000000	17,899300
1826,000000	17,850700
1825,000000	17,806400
1824,000000	17,771700
1823,000000	17,757200
1822,000000	17,754500
1821,000000	17,746400
1820,000000	17,738100
1819,000000	17,703100
1818,000000	17,697600
1817,000000	17,704800
1816,000000	17,707400
1815,000000	17,715800
1814,000000	17,736400
1813,000000	17,749300
1812,000000	17,735300
1811,000000	17,729500
1810,000000	17,698300
1809,000000	17,678000
1808,000000	17,678000
1807,000000	17,654800
1806,000000	17,624900
1805,000000	17,600500
1804,000000	17,564000
1803,000000	17,539900
1802,000000	17,519100
1801,000000	17,505400
1800,000000	17,476900
1799,000000	17,426700
1798,000000	17,408000
1797,000000	17,385000
1796,000000	17,360400
1795,000000	17,343200
1794,000000	17,315000
1793,000000	17,286800
1792,000000	17,242400
1791,000000	17,203700
1790,000000	17,135400
1789,000000	17,100200
1788,000000	17,069600
1787,000000	17,022300
1786,000000	16,986600
1785,000000	16,926400
1784,000000	16,844700
1783,000000	16,793900
1782,000000	16,734800
1781,000000	16,653300
1780,000000	16,587700
1779,000000	16,520700
1778,000000	16,459600
1777,000000	16,377400
1776,000000	16,277600
1775,000000	16,166100
1774,000000	16,059400
1773,000000	15,952300
1772,000000	15,826400
1771,000000	15,723900
1770,000000	15,620400
1769,000000	15,491500
1768,000000	15,395300
1767,000000	15,297900
1766,000000	15,221200
1765,000000	15,159500
1764,000000	15,099400
1763,000000	15,062300
1762,000000	15,071500
1761,000000	15,068300
1760,000000	15,116800
1759,000000	15,135300
1758,000000	15,181400
1757,000000	15,214300
1756,000000	15,235300
1755,000000	15,231500
1754,000000	15,236800
1753,000000	15,250800
1752,000000	15,212300
1751,000000	15,158500
1750,000000	15,091400
1749,000000	15,025800
1748,000000	14,943700
1747,000000	14,854500
1746,000000	14,759800
1745,000000	14,621800
1744,000000	14,499700
1743,000000	14,327100
1742,000000	14,181800
1741,000000	13,984900
1740,000000	13,772800
1739,000000	13,608100
1738,000000	13,425000
1737,000000	13,284100
1736,000000	13,172600
1735,000000	13,095200
1734,000000	13,057000
1733,000000	13,063400
1732,000000	13,090300
1731,000000	13,158400
1730,000000	13,224300
1729,000000	13,335900
1728,000000	13,415200
1727,000000	13,508200
1726,000000	13,604700
1725,000000	13,642700
1724,000000	13,699500
1723,000000	13,722100
1722,000000	13,746300
1721,000000	13,768400
1720,000000	13,759800
1719,000000	13,780500
1718,000000	13,815400
1717,000000	13,849200
1716,000000	13,871900
1715,000000	13,953600
1714,000000	13,987700
1713,000000	14,034000
1712,000000	14,109800
1711,000000	14,115000
1710,000000	14,132300
1709,000000	14,139500
1708,000000	14,140400
1707,000000	14,136200
1706,000000	14,089500
1705,000000	14,075900
1704,000000	14,021200
1703,000000	13,974300
1702,000000	13,883900
1701,000000	13,792000
1700,000000	13,676500
1699,000000	13,567100
1698,000000	13,461600
1697,000000	13,395900
1696,000000	13,347600
1695,000000	13,368700
1694,000000	13,417300
1693,000000	13,531400
1692,000000	13,689300
1691,000000	13,849500
1690,000000	13,987900
1689,000000	14,117800
1688,000000	14,205700
1687,000000	14,283900
1686,000000	14,321000
1685,000000	14,338800
1684,000000	14,456300
1683,000000	14,645900
1682,000000	14,920600
1681,000000	15,307000
1680,000000	15,745200
1679,000000	16,242500
1678,000000	16,730400
1677,000000	17,174100
1676,000000	17,576500
1675,000000	17,962700
1674,000000	18,307700
1673,000000	18,571300
1672,000000	18,813200
1671,000000	19,045700
1670,000000	19,211700
1669,000000	19,402700
1668,000000	19,546500
1667,000000	19,688400
1666,000000	19,785500
1665,000000	19,908300
1664,000000	19,988100
1663,000000	20,074100
1662,000000	20,120500
1661,000000	20,184200
1660,000000	20,209200
1659,000000	20,265100
1658,000000	20,269200
1657,000000	20,292800
1656,000000	20,308400
1655,000000	20,324100
1654,000000	20,304000
1653,000000	20,273500
1652,000000	20,250800
1651,000000	20,232900
1650,000000	20,206000
1649,000000	20,178000
1648,000000	20,142200
1647,000000	20,077500
1646,000000	20,030400
1645,000000	19,979600
1644,000000	19,930800
1643,000000	19,860000
1642,000000	19,786100
1641,000000	19,727200
1640,000000	19,675800
1639,000000	19,605200
1638,000000	19,551900
1637,000000	19,478400
1636,000000	19,395700
1635,000000	19,330800
1634,000000	19,265100
1633,000000	19,185700
1632,000000	19,115000
1631,000000	19,024700
1630,000000	18,938800
1629,000000	18,852900
1628,000000	18,777400
1627,000000	18,686500
1626,000000	18,599800
1625,000000	18,517400
1624,000000	18,434100
1623,000000	18,368700
1622,000000	18,292000
1621,000000	18,222400
1620,000000	18,145400
1619,000000	18,067800
1618,000000	17,988300
1617,000000	17,917100
1616,000000	17,850700
1615,000000	17,779700
1614,000000	17,704200
1613,000000	17,641000
1612,000000	17,571200
1611,000000	17,509100
1610,000000	17,437500
1609,000000	17,401700
1608,000000	17,337000
1607,000000	17,259100
1606,000000	17,189300
1605,000000	17,153800
1604,000000	17,104000
1603,000000	17,038600
1602,000000	16,981200
1601,000000	16,923200
1600,000000	16,869400
1599,000000	16,825700
1598,000000	16,768900
1597,000000	16,725400
1596,000000	16,679200
1595,000000	16,636000
1594,000000	16,599600
1593,000000	16,567100
1592,000000	16,527000
1591,000000	16,511300
1590,000000	16,489200
1589,000000	16,460500
1588,000000	16,440400
1587,000000	16,422500
1586,000000	16,405000
1585,000000	16,399400
1584,000000	16,392500
1583,000000	16,381200
1582,000000	16,379800
1581,000000	16,366600
1580,000000	16,375500
1579,000000	16,378800
1578,000000	16,372900
1577,000000	16,381500
1576,000000	16,399000
1575,000000	16,425300
1574,000000	16,434300
1573,000000	16,439900
1572,000000	16,476100
1571,000000	16,503900
1570,000000	16,516800
1569,000000	16,558000
1568,000000	16,599700
1567,000000	16,620400
1566,000000	16,654000
1565,000000	16,700900
1564,000000	16,733400
1563,000000	16,750800
1562,000000	16,771500
1561,000000	16,798300
1560,000000	16,819900
1559,000000	16,846100
1558,000000	16,860100
1557,000000	16,850400
1556,000000	16,851000
1555,000000	16,872100
1554,000000	16,870900
1553,000000	16,852500
1552,000000	16,832200
1551,000000	16,827300
1550,000000	16,809700
1549,000000	16,779000
1548,000000	16,768300
1547,000000	16,757100
1546,000000	16,737100
1545,000000	16,712100
1544,000000	16,691400
1543,000000	16,673800
1542,000000	16,660600
1541,000000	16,654100
1540,000000	16,647400
1539,000000	16,628500
1538,000000	16,604700
1537,000000	16,600900
1536,000000	16,582300
1535,000000	16,545900
1534,000000	16,517800
1533,000000	16,504100
1532,000000	16,471200
1531,000000	16,459400
1530,000000	16,437800
1529,000000	16,396700
1528,000000	16,366400
1527,000000	16,330400
1526,000000	16,301800
1525,000000	16,256800
1524,000000	16,218700
1523,000000	16,190400
1522,000000	16,146700
1521,000000	16,113700
1520,000000	16,078000
1519,000000	16,048600
1518,000000	16,028800
1517,000000	15,981200
1516,000000	15,948100
1515,000000	15,926800
1514,000000	15,903300
1513,000000	15,872300
1512,000000	15,844900
1511,000000	15,821400
1510,000000	15,802300
1509,000000	15,765600
1508,000000	15,740900
1507,000000	15,710300
1506,000000	15,692600
1505,000000	15,672000
1504,000000	15,652100
1503,000000	15,658600
1502,000000	15,682400
1501,000000	15,678600
1500,000000	15,653000
1499,000000	15,641900
1498,000000	15,648500
1497,000000	15,653300
1496,000000	15,649800
1495,000000	15,662400
1494,000000	15,672300
1493,000000	15,676300
1492,000000	15,677500
1491,000000	15,696400
1490,000000	15,708900
1489,000000	15,754100
1488,000000	15,769700
1487,000000	15,784200
1486,000000	15,793800
1485,000000	15,807600
1484,000000	15,838600
1483,000000	15,869800
1482,000000	15,898100
1481,000000	15,925000
1480,000000	15,958600
1479,000000	15,999400
1478,000000	16,008300
1477,000000	16,051200
1476,000000	16,070200
1475,000000	16,126900
1474,000000	16,139000
1473,000000	16,170200
1472,000000	16,223000
1471,000000	16,276900
1470,000000	16,297500
1469,000000	16,306600
1468,000000	16,343000
1467,000000	16,390600
1466,000000	16,429500
1465,000000	16,472000
1464,000000	16,474500
1463,000000	16,528100
1462,000000	16,586600
1461,000000	16,634800
1460,000000	16,690600
1459,000000	16,751300
1458,000000	16,804400
1457,000000	16,862700
1456,000000	16,933300
1455,000000	16,987800
1454,000000	17,068000
1453,000000	17,118600
1452,000000	17,184600
1451,000000	17,309500
1450,000000	17,342100
1449,000000	17,419200
1448,000000	17,494800
1447,000000	17,574700
1446,000000	17,666900
1445,000000	17,745600
1444,000000	17,821100
1443,000000	17,903300
1442,000000	17,981400
1441,000000	18,076200
1440,000000	18,147900
1439,000000	18,218300
1438,000000	18,331100
1437,000000	18,400400
1436,000000	18,485200
1435,000000	18,559600
1434,000000	18,682600
1433,000000	18,744400
1432,000000	18,824000
1431,000000	18,924800
1430,000000	19,040000
1429,000000	19,142300
1428,000000	19,301000
1427,000000	19,395400
1426,000000	19,571000
1425,000000	19,714200
1424,000000	19,910400
1423,000000	20,065300
1422,000000	20,194800
1421,000000	20,394600
1420,000000	20,582900
1419,000000	20,762800
1418,000000	20,940700
1417,000000	21,063600
1416,000000	21,264100
1415,000000	21,452300
1414,000000	21,643500
1413,000000	21,809400
1412,000000	21,973400
1411,000000	22,161800
1410,000000	22,404300
1409,000000	22,667700
1408,000000	22,933500
1407,000000	23,196900
1406,000000	23,457300
1405,000000	23,756100
1404,000000	24,035900
1403,000000	24,259700
1402,000000	24,528700
1401,000000	24,793400
1400,000000	25,039300
1399,000000	25,161500
1398,000000	25,269700
1397,000000	25,408700
1396,000000	25,553200
1395,000000	25,638700
1394,000000	25,641000
1393,000000	25,688700
1392,000000	25,755900
1391,000000	25,800600
1390,000000	25,879600
1389,000000	26,008800
1388,000000	26,193200
1387,000000	26,316500
1386,000000	26,509700
1385,000000	26,785000
1384,000000	27,104500
1383,000000	27,401600
1382,000000	27,721800
1381,000000	28,019400
1380,000000	28,283500
1379,000000	28,531200
1378,000000	28,815300
1377,000000	29,146000
1376,000000	29,521600
1375,000000	29,911000
1374,000000	30,359200
1373,000000	30,847000
1372,000000	31,326100
1371,000000	31,764200
1370,000000	32,141400
1369,000000	32,469700
1368,000000	32,746900
1367,000000	32,978100
1366,000000	33,185300
1365,000000	33,375100
1364,000000	33,529600
1363,000000	33,664300
1362,000000	33,797800
1361,000000	33,880100
1360,000000	33,902900
1359,000000	33,959500
1358,000000	34,039200
1357,000000	34,148800
1356,000000	34,363300
1355,000000	34,620800
1354,000000	34,941600
1353,000000	35,271300
1352,000000	35,650800
1351,000000	36,024500
1350,000000	36,366700
1349,000000	36,670100
1348,000000	36,949300
1347,000000	37,212900
1346,000000	37,432500
1345,000000	37,659600
1344,000000	37,890400
1343,000000	38,057900
1342,000000	38,261800
1341,000000	38,451300
1340,000000	38,627800
1339,000000	38,805000
1338,000000	38,960900
1337,000000	39,119900
1336,000000	39,273300
1335,000000	39,400700
1334,000000	39,529400
1333,000000	39,668400
1332,000000	39,787500
1331,000000	39,884600
1330,000000	39,997200
1329,000000	40,107400
1328,000000	40,201700
1327,000000	40,293200
1326,000000	40,382800
1325,000000	40,473800
1324,000000	40,547200
1323,000000	40,618500
1322,000000	40,684200
1321,000000	40,739300
1320,000000	40,804500
1319,000000	40,874300
1318,000000	40,922500
1317,000000	40,976400
1316,000000	41,030500
1315,000000	41,082000
1314,000000	41,133800
1313,000000	41,187500
1312,000000	41,221100
1311,000000	41,252200
1310,000000	41,271800
1309,000000	41,283100
1308,000000	41,320700
1307,000000	41,344100
1306,000000	41,346300
1305,000000	41,354500
1304,000000	41,363200
1303,000000	41,352200
1302,000000	41,342100
1301,000000	41,330800
1300,000000	41,320400
1299,000000	41,304300
1298,000000	41,285400
1297,000000	41,269900
1296,000000	41,233600
1295,000000	41,196900
1294,000000	41,165300
1293,000000	41,128400
1292,000000	41,092100
1291,000000	41,050200
1290,000000	40,995300
1289,000000	40,934000
1288,000000	40,880200
1287,000000	40,821300
1286,000000	40,760100
1285,000000	40,698000
1284,000000	40,636400
1283,000000	40,567400
1282,000000	40,493900
1281,000000	40,428800
1280,000000	40,357900
1279,000000	40,295700
1278,000000	40,244300
1277,000000	40,192100
1276,000000	40,138800
1275,000000	40,078200
1274,000000	40,026400
1273,000000	39,988800
1272,000000	39,951100
1271,000000	39,910300
1270,000000	39,870900
1269,000000	39,839200
1268,000000	39,792000
1267,000000	39,736300
1266,000000	39,714900
1265,000000	39,685700
1264,000000	39,628700
1263,000000	39,591700
1262,000000	39,556600
1261,000000	39,516500
1260,000000	39,471000
1259,000000	39,429900
1258,000000	39,380300
1257,000000	39,332900
1256,000000	39,280500
1255,000000	39,244300
1254,000000	39,194700
1253,000000	39,126200
1252,000000	39,081200
1251,000000	39,047100
1250,000000	38,981900
1249,000000	38,906200
1248,000000	38,857400
1247,000000	38,788500
1246,000000	38,711600
1245,000000	38,644100
1244,000000	38,566300
1243,000000	38,492200
1242,000000	38,405700
1241,000000	38,320900
1240,000000	38,241400
1239,000000	38,169500
1238,000000	38,076300
1237,000000	37,995700
1236,000000	37,903500
1235,000000	37,817000
1234,000000	37,727400
1233,000000	37,623100
1232,000000	37,528900
1231,000000	37,413900
1230,000000	37,294200
1229,000000	37,172000
1228,000000	37,079100
1227,000000	36,937400
1226,000000	36,814000
1225,000000	36,703000
1224,000000	36,558800
1223,000000	36,442400
1222,000000	36,291100
1221,000000	36,154400
1220,000000	36,037400
1219,000000	35,916300
1218,000000	35,786500
1217,000000	35,655300
1216,000000	35,525800
1215,000000	35,409000
1214,000000	35,308200
1213,000000	35,185900
1212,000000	35,087300
1211,000000	34,964100
1210,000000	34,864300
1209,000000	34,771200
1208,000000	34,670700
1207,000000	34,588700
1206,000000	34,505300
1205,000000	34,470400
1204,000000	34,416400
1203,000000	34,368300
1202,000000	34,300500
1201,000000	34,268800
1200,000000	34,210300
1199,000000	34,130900
1198,000000	34,046100
1197,000000	33,935400
1196,000000	33,800600
1195,000000	33,617400
1194,000000	33,418900
1193,000000	33,185900
1192,000000	32,902500
1191,000000	32,610600
1190,000000	32,329300
1189,000000	32,084800
1188,000000	31,873100
1187,000000	31,791600
1186,000000	31,744200
1185,000000	31,816200
1184,000000	31,926500
1183,000000	32,139500
1182,000000	32,395400
1181,000000	32,687800
1180,000000	32,983200
1179,000000	33,269100
1178,000000	33,500600
1177,000000	33,697200
1176,000000	33,867300
1175,000000	34,053200
1174,000000	34,181800
1173,000000	34,348800
1172,000000	34,487100
1171,000000	34,666900
1170,000000	34,814800
1169,000000	34,983800
1168,000000	35,133800
1167,000000	35,290900
1166,000000	35,460700
1165,000000	35,606600
1164,000000	35,777900
1163,000000	35,911200
1162,000000	36,084300
1161,000000	36,211700
1160,000000	36,371400
1159,000000	36,486700
1158,000000	36,592600
1157,000000	36,680700
1156,000000	36,779200
1155,000000	36,835600
1154,000000	36,869200
1153,000000	36,882700
1152,000000	36,867400
1151,000000	36,835900
1150,000000	36,801700
1149,000000	36,773600
1148,000000	36,753800
1147,000000	36,759600
1146,000000	36,793700
1145,000000	36,854600
1144,000000	36,945700
1143,000000	37,035200
1142,000000	37,136200
1141,000000	37,255800
1140,000000	37,405700
1139,000000	37,498200
1138,000000	37,618400
1137,000000	37,773600
1136,000000	37,922400
1135,000000	38,042600
1134,000000	38,132500
1133,000000	38,182500
1132,000000	38,282400
1131,000000	38,363400
1130,000000	38,425300
1129,000000	38,468700
1128,000000	38,491300
1127,000000	38,510500
1126,000000	38,504700
1125,000000	38,513200
1124,000000	38,494800
1123,000000	38,464400
1122,000000	38,446700
1121,000000	38,409500
1120,000000	38,359400
1119,000000	38,322100
1118,000000	38,289100
1117,000000	38,217500
1116,000000	38,156400
1115,000000	38,115400
1114,000000	38,077600
1113,000000	38,042000
1112,000000	37,985300
1111,000000	37,933800
1110,000000	37,884700
1109,000000	37,832400
1108,000000	37,778500
1107,000000	37,738400
1106,000000	37,679600
1105,000000	37,631400
1104,000000	37,596500
1103,000000	37,535400
1102,000000	37,517200
1101,000000	37,479400
1100,000000	37,428800
1099,000000	37,390000
1098,000000	37,350800
1097,000000	37,319000
1096,000000	37,286100
1095,000000	37,248300
1094,000000	37,196400
1093,000000	37,149900
1092,000000	37,118500
1091,000000	37,080600
1090,000000	37,048300
1089,000000	37,004200
1088,000000	36,962800
1087,000000	36,923900
1086,000000	36,896700
1085,000000	36,841100
1084,000000	36,798400
1083,000000	36,750700
1082,000000	36,698600
1081,000000	36,651700
1080,000000	36,592600
1079,000000	36,552100
1078,000000	36,493500
1077,000000	36,450600
1076,000000	36,395100
1075,000000	36,334600
1074,000000	36,291400
1073,000000	36,240200
1072,000000	36,202100
1071,000000	36,157200
1070,000000	36,083000
1069,000000	36,033000
1068,000000	35,986900
1067,000000	35,919300
1066,000000	35,866300
1065,000000	35,828300
1064,000000	35,774400
1063,000000	35,740800
1062,000000	35,701800
1061,000000	35,646000
1060,000000	35,609800
1059,000000	35,567900
1058,000000	35,538400
1057,000000	35,501800
1056,000000	35,459800
1055,000000	35,414700
1054,000000	35,388800
1053,000000	35,368100
1052,000000	35,347400
1051,000000	35,329900
1050,000000	35,301700
1049,000000	35,271500
1048,000000	35,248300
1047,000000	35,231500
1046,000000	35,227400
1045,000000	35,228700
1044,000000	35,220300
1043,000000	35,212700
1042,000000	35,219300
1041,000000	35,234200
1040,000000	35,234200
1039,000000	35,256500
1038,000000	35,282600
1037,000000	35,307000
1036,000000	35,343000
1035,000000	35,387600
1034,000000	35,432200
1033,000000	35,473200
1032,000000	35,521500
1031,000000	35,581800
1030,000000	35,654500
1029,000000	35,725300
1028,000000	35,798900
1027,000000	35,870800
1026,000000	35,961600
1025,000000	36,058300
1024,000000	36,141100
1023,000000	36,226700
1022,000000	36,304700
1021,000000	36,385900
1020,000000	36,468100
1019,000000	36,553200
1018,000000	36,624100
1017,000000	36,702700
1016,000000	36,793500
1015,000000	36,886300
1014,000000	36,966200
1013,000000	37,057800
1012,000000	37,152800
1011,000000	37,240200
1010,000000	37,339200
1009,000000	37,446100
1008,000000	37,561800
1007,000000	37,674000
1006,000000	37,797300
1005,000000	37,916800
1004,000000	38,028600
1003,000000	38,140100
1002,000000	38,274200
1001,000000	38,407000
1000,000000	38,533000
999,000000	38,664900
998,000000	38,814300
997,000000	38,953900
996,000000	39,090700
995,000000	39,250000
994,000000	39,403500
993,000000	39,562100
992,000000	39,731400
991,000000	39,895500
990,000000	40,070200
989,000000	40,244600
988,000000	40,427100
987,000000	40,613600
986,000000	40,791000
985,000000	40,954200
984,000000	41,118000
983,000000	41,304700
982,000000	41,492200
981,000000	41,640700
980,000000	41,827800
979,000000	42,002900
978,000000	42,160600
977,000000	42,316400
976,000000	42,475400
975,000000	42,630600
974,000000	42,780600
973,000000	42,929100
972,000000	43,103300
971,000000	43,257100
970,000000	43,423500
969,000000	43,575500
968,000000	43,746600
967,000000	43,913600
966,000000	44,100200
965,000000	44,275700
964,000000	44,469500
963,000000	44,676800
962,000000	44,865200
961,000000	45,070000
960,000000	45,261100
959,000000	45,441700
958,000000	45,648700
957,000000	45,831200
956,000000	45,997400
955,000000	46,184700
954,000000	46,360800
953,000000	46,524800
952,000000	46,702200
951,000000	46,873200
950,000000	47,042700
949,000000	47,180200
948,000000	47,316100
947,000000	47,490500
946,000000	47,638800
945,000000	47,787900
944,000000	47,929100
943,000000	48,094500
942,000000	48,258100
941,000000	48,412800
940,000000	48,580500
939,000000	48,706800
938,000000	48,869100
937,000000	49,043200
936,000000	49,184500
935,000000	49,350400
934,000000	49,464000
933,000000	49,589600
932,000000	49,756200
931,000000	49,882200
930,000000	50,064000
929,000000	50,174900
928,000000	50,302100
927,000000	50,429900
926,000000	50,547100
925,000000	50,720600
924,000000	50,852600
923,000000	50,980500
922,000000	51,137200
921,000000	51,286500
920,000000	51,418100
919,000000	51,553900
918,000000	51,647400
917,000000	51,777700
916,000000	51,939700
915,000000	52,050800
914,000000	52,162800
913,000000	52,269400
912,000000	52,360500
911,000000	52,478800
910,000000	52,594100
909,000000	52,675600
908,000000	52,793500
907,000000	52,888200
906,000000	53,021400
905,000000	53,111500
904,000000	53,193800
903,000000	53,268000
902,000000	53,358300
901,000000	53,455500
900,000000	53,578800
899,000000	53,655600
898,000000	53,759300
897,000000	53,869900
896,000000	53,970800
895,000000	54,055700
894,000000	54,177600
893,000000	54,307700
892,000000	54,419000
891,000000	54,532200
890,000000	54,649000
889,000000	54,801100
888,000000	54,929400
887,000000	55,103500
886,000000	55,276100
885,000000	55,433300
884,000000	55,633500
883,000000	55,822800
882,000000	56,039200
881,000000	56,228300
880,000000	56,478700
879,000000	56,698300
878,000000	56,940500
877,000000	57,205200
876,000000	57,452500
875,000000	57,732600
874,000000	57,997100
873,000000	58,296700
872,000000	58,575500
871,000000	58,893500
870,000000	59,217500
869,000000	59,519900
868,000000	59,831900
867,000000	60,154400
866,000000	60,462000
865,000000	60,728500
864,000000	60,985600
863,000000	61,191900
862,000000	61,416600
861,000000	61,579400
860,000000	61,784100
859,000000	61,992300
858,000000	62,313500
857,000000	62,866700
856,000000	62,806400
855,000000	63,624600
854,000000	63,700000
853,000000	63,941200
852,000000	64,204300
851,000000	64,788200
850,000000	65,286600
849,000000	65,272100
848,000000	65,460300
847,000000	66,077900
846,000000	66,032400
845,000000	66,152800
844,000000	66,418500
843,000000	66,547500
842,000000	66,786700
841,000000	67,162400
840,000000	67,286100
839,000000	67,597100
838,000000	67,640100
837,000000	67,987500
836,000000	68,015300
835,000000	68,154300
834,000000	68,307900
833,000000	68,322800
832,000000	68,435900
831,000000	68,632700
830,000000	68,638800
829,000000	68,923300
828,000000	69,195500
827,000000	69,330100
826,000000	69,150200
825,000000	69,247700
824,000000	69,500100
823,000000	69,500300
822,000000	69,611200
821,000000	69,691100
820,000000	69,884500
819,000000	69,917200
818,000000	70,067100
817,000000	70,029300
816,000000	70,081500
815,000000	70,013300
814,000000	70,122900
813,000000	70,252300
812,000000	70,407300
811,000000	70,430900
810,000000	70,389600
809,000000	70,568100
808,000000	70,594900
807,000000	70,519200
806,000000	70,640300
805,000000	70,690200
804,000000	70,704200
803,000000	70,786400
802,000000	70,671000
801,000000	70,627400
800,000000	70,601500
799,000000	70,527300
798,000000	70,711800
797,000000	70,767800
796,000000	70,731800
795,000000	70,706800
794,000000	70,679900
793,000000	70,736700
792,000000	70,828300
791,000000	70,747900
790,000000	70,720200
789,000000	70,748300
788,000000	70,844000
787,000000	70,887400
786,000000	70,841700
785,000000	70,829800
784,000000	70,911800
783,000000	71,017800
782,000000	70,917600
781,000000	70,925200
780,000000	70,991200
779,000000	70,952000
778,000000	71,012700
777,000000	71,118700
776,000000	71,058900
775,000000	70,935700
774,000000	70,867200
773,000000	70,898000
772,000000	70,897700
771,000000	70,936400
770,000000	70,929300
769,000000	70,897700
768,000000	70,849000
767,000000	70,741100
766,000000	70,657300
765,000000	70,566800
764,000000	70,519900
763,000000	70,427400
762,000000	70,346000
761,000000	70,281600
760,000000	70,090600
759,000000	69,918900
758,000000	69,852100
757,000000	69,733500
756,000000	69,542900
755,000000	69,397300
754,000000	69,280600
753,000000	69,114800
752,000000	68,893000
751,000000	68,677000
750,000000	68,493200
749,000000	68,247000
748,000000	68,043900
747,000000	67,881800
746,000000	67,633500
745,000000	67,322900
744,000000	67,062600
743,000000	66,858100
742,000000	66,571900
741,000000	66,244800
740,000000	65,932800
739,000000	65,627400
738,000000	65,331500
737,000000	65,000600
736,000000	64,642800
735,000000	64,251200
734,000000	63,896100
733,000000	63,574000
732,000000	63,171800
731,000000	62,774300
730,000000	62,362600
729,000000	61,986000
728,000000	61,627600
727,000000	61,230600
726,000000	60,810000
725,000000	60,388300
724,000000	59,999800
723,000000	59,568000
722,000000	59,163800
721,000000	58,779600
720,000000	58,398000
719,000000	58,052200
718,000000	57,668300
717,000000	57,304600
716,000000	56,932200
715,000000	56,603900
714,000000	56,220700
713,000000	55,871500
712,000000	55,579500
711,000000	55,254600
710,000000	54,930200
709,000000	54,542800
708,000000	54,259100
707,000000	53,925500
706,000000	53,557700
705,000000	53,247500
704,000000	52,956800
703,000000	52,579900
702,000000	52,238500
701,000000	51,893100
700,000000	51,573000
699,000000	51,210800
698,000000	50,806500
697,000000	50,446700
696,000000	50,162900
695,000000	49,830800
694,000000	49,502600
693,000000	49,211800
692,000000	48,884800
691,000000	48,609300
690,000000	48,395300
689,000000	48,140800
688,000000	47,923600
687,000000	47,744900
686,000000	47,565200
685,000000	47,435700
684,000000	47,337700
683,000000	47,260800
682,000000	47,153100
681,000000	47,060200
680,000000	47,010400
679,000000	46,978600
678,000000	46,913400
677,000000	46,845000
676,000000	46,835000
675,000000	46,755100
674,000000	46,701000
673,000000	46,665500
672,000000	46,577700
671,000000	46,460600
670,000000	46,335900
669,000000	46,221300
668,000000	46,026300
667,000000	45,926300
666,000000	45,738300
665,000000	45,557900
664,000000	45,377600
663,000000	45,169300
662,000000	44,972800
661,000000	44,746900
660,000000	44,559600
659,000000	44,366200
658,000000	44,145900
657,000000	43,976700
656,000000	43,819600
655,000000	43,658700
654,000000	43,501900
653,000000	43,422300
652,000000	43,280500
651,000000	43,229200
650,000000	43,166300
649,000000	43,154200
648,000000	43,189800
647,000000	43,250800
646,000000	43,382800
645,000000	43,555600
644,000000	43,750100
643,000000	44,016600
642,000000	44,305900
641,000000	44,689200
640,000000	45,055700
639,000000	45,513000
638,000000	45,936000
637,000000	46,423600
636,000000	46,919100
635,000000	47,472300
634,000000	48,013900
633,000000	48,617400
632,000000	49,182200
631,000000	49,706400
630,000000	50,242500
629,000000	50,738200
628,000000	51,207500
627,000000	51,652900
626,000000	52,054100
625,000000	52,396900
624,000000	52,760000
623,000000	53,073100
622,000000	53,362600
621,000000	53,646100
620,000000	53,862600
619,000000	54,057700
618,000000	54,245400
617,000000	54,401300
616,000000	54,599900
615,000000	54,722400
614,000000	54,871700
613,000000	55,017600
612,000000	55,113200
611,000000	55,274000
610,000000	55,405200
609,000000	55,561200
608,000000	55,701100
607,000000	55,782600
606,000000	55,910200
605,000000	56,016400
604,000000	56,117000
603,000000	56,194400
602,000000	56,264700
601,000000	56,284900
600,000000	56,369700
599,000000	56,365300
598,000000	56,416100
597,000000	56,426500
596,000000	56,432400
595,000000	56,376700
594,000000	56,359000
593,000000	56,254400
592,000000	56,170500
591,000000	56,042700
590,000000	55,891800
589,000000	55,749000
588,000000	55,600600
587,000000	55,468100
586,000000	55,285600
585,000000	55,133600
584,000000	54,918900
583,000000	54,784400
582,000000	54,551500
581,000000	54,394500
580,000000	54,146200
579,000000	53,963200
578,000000	53,723300
577,000000	53,523800
576,000000	53,289800
575,000000	53,068200
574,000000	52,837500
573,000000	52,586600
572,000000	52,321200
571,000000	52,070100
570,000000	51,753300
569,000000	51,430300
568,000000	51,106900
567,000000	50,761800
566,000000	50,365700
565,000000	49,969400
564,000000	49,582000
563,000000	49,132400
562,000000	48,686700
561,000000	48,186300
560,000000	47,683100
559,000000	47,209000
558,000000	46,687100
557,000000	46,130100
556,000000	45,576800
555,000000	44,965400
554,000000	44,401100
553,000000	43,801200
552,000000	43,191700
551,000000	42,524900
550,000000	41,856600
549,000000	41,214400
548,000000	40,559000
547,000000	39,876200
546,000000	39,219100
545,000000	38,533700
544,000000	37,853900
543,000000	37,137300
542,000000	36,437200
541,000000	35,767500
540,000000	35,127300
539,000000	34,490900
538,000000	33,874800
537,000000	33,297700
536,000000	32,735300
535,000000	32,207100
534,000000	31,701100
533,000000	31,228900
532,000000	30,780100
531,000000	30,370100
530,000000	29,982000
529,000000	29,598900
528,000000	29,245300
527,000000	28,910800
526,000000	28,586000
525,000000	28,260200
524,000000	27,935500
523,000000	27,618700
522,000000	27,314400
521,000000	27,000100
520,000000	26,684300
519,000000	26,385100
518,000000	26,067300
517,000000	25,732600
516,000000	25,397200
515,000000	25,050700
514,000000	24,711400
513,000000	24,349700
512,000000	23,994600
511,000000	23,634400
510,000000	23,271300
509,000000	22,910600
508,000000	22,570900
507,000000	22,232000
506,000000	21,899800
505,000000	21,560600
504,000000	21,242900
503,000000	20,967500
502,000000	20,704100
501,000000	20,427100
500,000000	20,193900
499,000000	19,968500
498,000000	19,783100
497,000000	19,623700
496,000000	19,463500
495,000000	19,344900
494,000000	19,247700
493,000000	19,154500
492,000000	19,083400
491,000000	19,047500
490,000000	19,028500
489,000000	19,020400
488,000000	19,024100
487,000000	19,041300
486,000000	19,070500
485,000000	19,104500
484,000000	19,160500
483,000000	19,212400
482,000000	19,276600
481,000000	19,338900
480,000000	19,390700
479,000000	19,447300
478,000000	19,488500
477,000000	19,523100
476,000000	19,558000
475,000000	19,610400
474,000000	19,650200
473,000000	19,669500
472,000000	19,690000
471,000000	19,713500
470,000000	19,724000
469,000000	19,724600
468,000000	19,720900
467,000000	19,706500
466,000000	19,669200
465,000000	19,652200
464,000000	19,621700
463,000000	19,556700
462,000000	19,493500
461,000000	19,429400
460,000000	19,360400
459,000000	19,279800
458,000000	19,187800
457,000000	19,097000
456,000000	19,001700
455,000000	18,883300
454,000000	18,749000
453,000000	18,611300
452,000000	18,454700
451,000000	18,323000
450,000000	18,171400
449,000000	17,977700
448,000000	17,797800
447,000000	17,632800
446,000000	17,421300
445,000000	17,211700
444,000000	16,997200
443,000000	16,761800
442,000000	16,530800
441,000000	16,272400
440,000000	16,004300
439,000000	15,738200
438,000000	15,468800
437,000000	15,189300
436,000000	14,910500
435,000000	14,633400
434,000000	14,327300
433,000000	14,027000
432,000000	13,732900
431,000000	13,412000
430,000000	13,092900
429,000000	12,791600
428,000000	12,492500
427,000000	12,182500
426,000000	11,866800
425,000000	11,564400
424,000000	11,268000
423,000000	10,975200
422,000000	10,692000
421,000000	10,394900
420,000000	10,116000
419,000000	9,864400
418,000000	9,605600
417,000000	9,344700
416,000000	9,100500
415,000000	8,868500
414,000000	8,651900
413,000000	8,442400
412,000000	8,252500
411,000000	8,057800
410,000000	7,864000
409,000000	7,700100
408,000000	7,553600
407,000000	7,402000
406,000000	7,262600
405,000000	7,127400
404,000000	7,001700
403,000000	6,884800
402,000000	6,759900
401,000000	6,659100
400,000000	6,566000
399,000000	6,490100
398,000000	6,404000
397,000000	6,326600
396,000000	6,259700
395,000000	6,196400
394,000000	6,137000
393,000000	6,081400
392,000000	6,040600
391,000000	5,988400
390,000000	5,931700
389,000000	5,887000
388,000000	5,850100
387,000000	5,814500
386,000000	5,781900
385,000000	5,757300
384,000000	5,737300
383,000000	5,711700
382,000000	5,672300
381,000000	5,641600
380,000000	5,617400
379,000000	5,605600
378,000000	5,579300
377,000000	5,565800
376,000000	5,737200
375,000000	5,623100
374,000000	5,460400
373,000000	5,466600
372,000000	5,559400
371,000000	5,621800
370,000000	5,594200
369,000000	5,489700
368,000000	5,479100
367,000000	5,504400
366,000000	5,554100
365,000000	5,526000
364,000000	5,521800
363,000000	5,584400
362,000000	5,491800
361,000000	5,469000
360,000000	5,488500
359,000000	5,466700
358,000000	5,428700
357,000000	5,522400
356,000000	5,585300
355,000000	5,541600
354,000000	5,458700
353,000000	5,433800
352,000000	5,362500
351,000000	5,436300
350,000000	5,412500
349,000000	5,383100
348,000000	5,423400
347,000000	5,347600
346,000000	5,460200
345,000000	5,411700
344,000000	5,456200
343,000000	5,481500
342,000000	5,344000
341,000000	5,405800
340,000000	5,436200
339,000000	5,500800
338,000000	5,392600
337,000000	5,357100
336,000000	5,463800
335,000000	5,464300
334,000000	5,452400
333,000000	5,445400
332,000000	5,483500
331,000000	5,442200
330,000000	5,334200
329,000000	5,178600
328,000000	5,315600
327,000000	5,694400
326,000000	5,556500
325,000000	5,796100
324,000000	5,593100
323,000000	5,470700
322,000000	5,625200
321,000000	5,444300
320,000000	5,412900
319,000000	5,845100
318,000000	5,585600
317,000000	5,509500
316,000000	5,292600
315,000000	5,234100
314,000000	5,248700
313,000000	5,268900
312,000000	5,314000
311,000000	5,315900
310,000000	5,315200
309,000000	5,305800
308,000000	5,222500
307,000000	5,231500
306,000000	5,253600
305,000000	5,306100
304,000000	5,292200
303,000000	5,251400
302,000000	5,322700
301,000000	5,350900
300,000000	5,316200
299,000000	5,284700
298,000000	5,310700
297,000000	5,282800
296,000000	5,293200
295,000000	5,366100
294,000000	5,334400
293,000000	5,344700
292,000000	5,306800
291,000000	5,338300
290,000000	5,334400
289,000000	5,397600
288,000000	5,334300
287,000000	5,378200
286,000000	5,339400
285,000000	5,359400
284,000000	5,380600
283,000000	5,353300
282,000000	5,410000
281,000000	5,390100
280,000000	5,417100
279,000000	5,454500
278,000000	5,409800
277,000000	5,453900
276,000000	5,461000
275,000000	5,479900
274,000000	5,515000
273,000000	5,477100
272,000000	5,511700
271,000000	5,504400
270,000000	5,598000
269,000000	5,558200
268,000000	5,628400
267,000000	5,595300
266,000000	5,687200
265,000000	5,711100
264,000000	5,675000
263,000000	5,748600
262,000000	5,749900
261,000000	5,761500
260,000000	5,821600
259,000000	5,840600
258,000000	5,871300
257,000000	5,899400
256,000000	5,878900
255,000000	5,886600
254,000000	5,901500
253,000000	5,929200
252,000000	5,949800
251,000000	5,997100
250,000000	6,017900
