PE UV       SUBTECH     SPECTRUM    ASCII       PEDS        4.00        
   -1
INBUCR0137-2.Sample.ASC
24/04/26
11:39:22.00
24/04/26
11:39:22.00
Vinicio Soto Monge
C. cupreomarginata
250,000000
1
Lambda 1050
1050L1511233
PerkinElmer UV WinLab 6.3.2.0749 / 2.02.05 Lambda 900 UV/VIS/NIR, Aug  7 2015 09:38:08

0
0
3350/servo 860,8/2
0
0
UV/VIS
1
1
1
DoubleDePol,CommonBeamDepol,RBeamAtt,SBeamAtt,60mm sphere, WB InGaAs Detector
0
0
0
0
Program
Program
3350/servo 860,8/2
3350/0,2 860,8/0,2
3350/0,2 860,8/0,2
0
15.00
 
 
 
0
 
860,8
319,2
860,8
Front
100
on
S:100 R:100
0
0
0
0
 
0
 
 
 
0
 
 
0
0
0
0
0
 
 
 
 
0
0


0
0
#HDR
-1
-1
#GR
nm
%R
1.0
0.0
2500,000000
-1,000000
2251
8
78,622400
6,002300
#DATA
2500,000000	20,302800
2499,000000	20,490700
2498,000000	20,388300
2497,000000	20,451800
2496,000000	20,370300
2495,000000	20,290600
2494,000000	20,278100
2493,000000	20,214200
2492,000000	20,302000
2491,000000	20,293400
2490,000000	20,263400
2489,000000	20,235400
2488,000000	20,321500
2487,000000	20,268800
2486,000000	20,280400
2485,000000	20,237900
2484,000000	20,308500
2483,000000	20,301800
2482,000000	20,308500
2481,000000	20,366800
2480,000000	20,373200
2479,000000	20,344900
2478,000000	20,336200
2477,000000	20,397600
2476,000000	20,451200
2475,000000	20,441800
2474,000000	20,502500
2473,000000	20,531400
2472,000000	20,589000
2471,000000	20,587400
2470,000000	20,664900
2469,000000	20,726200
2468,000000	20,770800
2467,000000	20,822200
2466,000000	20,819500
2465,000000	20,906100
2464,000000	20,926800
2463,000000	21,037700
2462,000000	21,087300
2461,000000	21,160300
2460,000000	21,230500
2459,000000	21,315700
2458,000000	21,429400
2457,000000	21,496800
2456,000000	21,594000
2455,000000	21,671100
2454,000000	21,767800
2453,000000	21,883200
2452,000000	21,973800
2451,000000	22,095100
2450,000000	22,210000
2449,000000	22,323400
2448,000000	22,418500
2447,000000	22,533400
2446,000000	22,659400
2445,000000	22,765400
2444,000000	22,898100
2443,000000	23,022800
2442,000000	23,142700
2441,000000	23,252700
2440,000000	23,361000
2439,000000	23,470700
2438,000000	23,585600
2437,000000	23,715600
2436,000000	23,813800
2435,000000	23,927300
2434,000000	24,046700
2433,000000	24,160000
2432,000000	24,275800
2431,000000	24,354400
2430,000000	24,456400
2429,000000	24,544400
2428,000000	24,631300
2427,000000	24,742200
2426,000000	24,834100
2425,000000	24,929000
2424,000000	25,010100
2423,000000	25,080300
2422,000000	25,173900
2421,000000	25,252600
2420,000000	25,319500
2419,000000	25,392800
2418,000000	25,456800
2417,000000	25,510200
2416,000000	25,576400
2415,000000	25,634300
2414,000000	25,678600
2413,000000	25,721100
2412,000000	25,764900
2411,000000	25,814900
2410,000000	25,823900
2409,000000	25,853300
2408,000000	25,895200
2407,000000	25,921300
2406,000000	25,963800
2405,000000	25,983100
2404,000000	25,992700
2403,000000	26,022200
2402,000000	26,028300
2401,000000	26,042100
2400,000000	26,066800
2399,000000	26,081200
2398,000000	26,087700
2397,000000	26,084500
2396,000000	26,087600
2395,000000	26,098600
2394,000000	26,113300
2393,000000	26,108200
2392,000000	26,116000
2391,000000	26,119300
2390,000000	26,120100
2389,000000	26,118900
2388,000000	26,109400
2387,000000	26,090300
2386,000000	26,089000
2385,000000	26,073800
2384,000000	26,054800
2383,000000	26,047600
2382,000000	26,029100
2381,000000	25,989700
2380,000000	25,973000
2379,000000	25,961200
2378,000000	25,933400
2377,000000	25,893700
2376,000000	25,870100
2375,000000	25,850100
2374,000000	25,812800
2373,000000	25,789700
2372,000000	25,783100
2371,000000	25,747800
2370,000000	25,711900
2369,000000	25,697200
2368,000000	25,680900
2367,000000	25,661700
2366,000000	25,638600
2365,000000	25,618600
2364,000000	25,613800
2363,000000	25,592800
2362,000000	25,569600
2361,000000	25,540400
2360,000000	25,528200
2359,000000	25,523000
2358,000000	25,502600
2357,000000	25,470400
2356,000000	25,435800
2355,000000	25,414200
2354,000000	25,379800
2353,000000	25,348000
2352,000000	25,329300
2351,000000	25,299800
2350,000000	25,260900
2349,000000	25,228600
2348,000000	25,203700
2347,000000	25,176000
2346,000000	25,147400
2345,000000	25,120700
2344,000000	25,083300
2343,000000	25,061300
2342,000000	25,034000
2341,000000	25,008900
2340,000000	24,986900
2339,000000	24,965500
2338,000000	24,940200
2337,000000	24,935500
2336,000000	24,915100
2335,000000	24,901100
2334,000000	24,884200
2333,000000	24,870700
2332,000000	24,882700
2331,000000	24,894900
2330,000000	24,893700
2329,000000	24,896600
2328,000000	24,900500
2327,000000	24,918700
2326,000000	24,921900
2325,000000	24,934000
2324,000000	24,937800
2323,000000	24,949100
2322,000000	24,956200
2321,000000	24,954200
2320,000000	24,946500
2319,000000	24,920000
2318,000000	24,894000
2317,000000	24,879000
2316,000000	24,860300
2315,000000	24,825100
2314,000000	24,785800
2313,000000	24,753200
2312,000000	24,711900
2311,000000	24,664400
2310,000000	24,628700
2309,000000	24,571300
2308,000000	24,516000
2307,000000	24,486200
2306,000000	24,424600
2305,000000	24,386000
2304,000000	24,359900
2303,000000	24,310100
2302,000000	24,288200
2301,000000	24,278000
2300,000000	24,254700
2299,000000	24,238000
2298,000000	24,232900
2297,000000	24,225400
2296,000000	24,208800
2295,000000	24,227100
2294,000000	24,230900
2293,000000	24,244200
2292,000000	24,259800
2291,000000	24,273300
2290,000000	24,296700
2289,000000	24,325600
2288,000000	24,378100
2287,000000	24,395300
2286,000000	24,415700
2285,000000	24,451400
2284,000000	24,487000
2283,000000	24,533400
2282,000000	24,570400
2281,000000	24,609500
2280,000000	24,657300
2279,000000	24,709400
2278,000000	24,727000
2277,000000	24,772200
2276,000000	24,795300
2275,000000	24,832300
2274,000000	24,862300
2273,000000	24,887000
2272,000000	24,933000
2271,000000	24,962800
2270,000000	25,000700
2269,000000	25,032400
2268,000000	25,078800
2267,000000	25,114500
2266,000000	25,194900
2265,000000	25,269800
2264,000000	25,345800
2263,000000	25,459100
2262,000000	25,553500
2261,000000	25,671700
2260,000000	25,805700
2259,000000	25,939500
2258,000000	26,101400
2257,000000	26,245500
2256,000000	26,413800
2255,000000	26,567100
2254,000000	26,745100
2253,000000	26,912100
2252,000000	27,101600
2251,000000	27,245700
2250,000000	27,404700
2249,000000	27,569000
2248,000000	27,743900
2247,000000	27,875200
2246,000000	28,018900
2245,000000	28,157600
2244,000000	28,284900
2243,000000	28,366600
2242,000000	28,464000
2241,000000	28,558300
2240,000000	28,622700
2239,000000	28,680700
2238,000000	28,732400
2237,000000	28,789200
2236,000000	28,802500
2235,000000	28,831500
2234,000000	28,841200
2233,000000	28,832700
2232,000000	28,842300
2231,000000	28,819400
2230,000000	28,784800
2229,000000	28,758000
2228,000000	28,713100
2227,000000	28,650100
2226,000000	28,598200
2225,000000	28,543600
2224,000000	28,464100
2223,000000	28,400900
2222,000000	28,318600
2221,000000	28,224000
2220,000000	28,153100
2219,000000	28,064300
2218,000000	27,966700
2217,000000	27,894800
2216,000000	27,791400
2215,000000	27,715700
2214,000000	27,604500
2213,000000	27,540400
2212,000000	27,465400
2211,000000	27,376000
2210,000000	27,297500
2209,000000	27,229000
2208,000000	27,158100
2207,000000	27,082500
2206,000000	27,033800
2205,000000	26,975500
2204,000000	26,923000
2203,000000	26,876000
2202,000000	26,808200
2201,000000	26,766100
2200,000000	26,728100
2199,000000	26,673800
2198,000000	26,610400
2197,000000	26,599500
2196,000000	26,556000
2195,000000	26,493300
2194,000000	26,474900
2193,000000	26,443300
2192,000000	26,395000
2191,000000	26,366700
2190,000000	26,362600
2189,000000	26,335900
2188,000000	26,301800
2187,000000	26,268100
2186,000000	26,244500
2185,000000	26,222300
2184,000000	26,194400
2183,000000	26,165100
2182,000000	26,133900
2181,000000	26,115200
2180,000000	26,098200
2179,000000	26,081100
2178,000000	26,050300
2177,000000	26,056500
2176,000000	26,039900
2175,000000	26,027900
2174,000000	26,024700
2173,000000	26,023300
2172,000000	26,036000
2171,000000	26,068100
2170,000000	26,082200
2169,000000	26,104600
2168,000000	26,146100
2167,000000	26,183300
2166,000000	26,214100
2165,000000	26,278100
2164,000000	26,321100
2163,000000	26,382300
2162,000000	26,458200
2161,000000	26,526900
2160,000000	26,592800
2159,000000	26,678400
2158,000000	26,780500
2157,000000	26,880900
2156,000000	26,974100
2155,000000	27,075100
2154,000000	27,194100
2153,000000	27,305800
2152,000000	27,421400
2151,000000	27,536700
2150,000000	27,668800
2149,000000	27,801100
2148,000000	27,915600
2147,000000	28,036000
2146,000000	28,171300
2145,000000	28,302300
2144,000000	28,425100
2143,000000	28,543100
2142,000000	28,671600
2141,000000	28,797900
2140,000000	28,911000
2139,000000	29,034600
2138,000000	29,150000
2137,000000	29,238900
2136,000000	29,342500
2135,000000	29,444400
2134,000000	29,565100
2133,000000	29,654800
2132,000000	29,722800
2131,000000	29,809400
2130,000000	29,894700
2129,000000	29,965000
2128,000000	30,019500
2127,000000	30,075700
2126,000000	30,150200
2125,000000	30,213900
2124,000000	30,246600
2123,000000	30,299800
2122,000000	30,355700
2121,000000	30,390300
2120,000000	30,431900
2119,000000	30,469000
2118,000000	30,493300
2117,000000	30,513500
2116,000000	30,532700
2115,000000	30,560000
2114,000000	30,564800
2113,000000	30,567400
2112,000000	30,579900
2111,000000	30,589100
2110,000000	30,599300
2109,000000	30,595800
2108,000000	30,606000
2107,000000	30,608200
2106,000000	30,587900
2105,000000	30,585400
2104,000000	30,575800
2103,000000	30,575700
2102,000000	30,577700
2101,000000	30,565400
2100,000000	30,564900
2099,000000	30,566000
2098,000000	30,578100
2097,000000	30,591600
2096,000000	30,583100
2095,000000	30,585100
2094,000000	30,594800
2093,000000	30,609600
2092,000000	30,617800
2091,000000	30,641100
2090,000000	30,658100
2089,000000	30,655100
2088,000000	30,666900
2087,000000	30,663000
2086,000000	30,657000
2085,000000	30,650000
2084,000000	30,623300
2083,000000	30,591900
2082,000000	30,563200
2081,000000	30,517100
2080,000000	30,471600
2079,000000	30,430500
2078,000000	30,355700
2077,000000	30,272900
2076,000000	30,194200
2075,000000	30,122500
2074,000000	30,025900
2073,000000	29,919800
2072,000000	29,806600
2071,000000	29,681500
2070,000000	29,562900
2069,000000	29,443900
2068,000000	29,304700
2067,000000	29,169600
2066,000000	29,029500
2065,000000	28,903700
2064,000000	28,765000
2063,000000	28,629800
2062,000000	28,515000
2061,000000	28,390900
2060,000000	28,269600
2059,000000	28,167100
2058,000000	28,091100
2057,000000	28,022800
2056,000000	27,973600
2055,000000	27,936500
2054,000000	27,931300
2053,000000	27,952000
2052,000000	27,966800
2051,000000	28,006000
2050,000000	28,079400
2049,000000	28,178800
2048,000000	28,297700
2047,000000	28,418100
2046,000000	28,568500
2045,000000	28,719200
2044,000000	28,878500
2043,000000	29,053900
2042,000000	29,220500
2041,000000	29,387600
2040,000000	29,565200
2039,000000	29,742800
2038,000000	29,899400
2037,000000	30,046800
2036,000000	30,192100
2035,000000	30,350500
2034,000000	30,496800
2033,000000	30,610400
2032,000000	30,740900
2031,000000	30,871100
2030,000000	30,993000
2029,000000	31,094900
2028,000000	31,202800
2027,000000	31,303200
2026,000000	31,392300
2025,000000	31,495500
2024,000000	31,577400
2023,000000	31,654600
2022,000000	31,735300
2021,000000	31,806600
2020,000000	31,861900
2019,000000	31,919100
2018,000000	31,982400
2017,000000	32,031300
2016,000000	32,066100
2015,000000	32,102300
2014,000000	32,146200
2013,000000	32,138300
2012,000000	32,167700
2011,000000	32,162300
2010,000000	32,168200
2009,000000	32,166200
2008,000000	32,155700
2007,000000	32,149200
2006,000000	32,110400
2005,000000	32,076500
2004,000000	32,027000
2003,000000	31,994000
2002,000000	31,951400
2001,000000	31,901800
2000,000000	31,824900
1999,000000	31,758800
1998,000000	31,691700
1997,000000	31,631600
1996,000000	31,552700
1995,000000	31,474200
1994,000000	31,389800
1993,000000	31,314900
1992,000000	31,228800
1991,000000	31,145300
1990,000000	31,039400
1989,000000	30,965500
1988,000000	30,868000
1987,000000	30,747300
1986,000000	30,671700
1985,000000	30,558700
1984,000000	30,430600
1983,000000	30,346900
1982,000000	30,241100
1981,000000	30,146800
1980,000000	30,039800
1979,000000	29,944900
1978,000000	29,840900
1977,000000	29,746100
1976,000000	29,646500
1975,000000	29,550600
1974,000000	29,471100
1973,000000	29,368000
1972,000000	29,268600
1971,000000	29,189200
1970,000000	29,087300
1969,000000	28,997900
1968,000000	28,911300
1967,000000	28,799900
1966,000000	28,735600
1965,000000	28,628500
1964,000000	28,553600
1963,000000	28,442200
1962,000000	28,354100
1961,000000	28,252200
1960,000000	28,154800
1959,000000	28,047800
1958,000000	27,966400
1957,000000	27,867000
1956,000000	27,762200
1955,000000	27,676500
1954,000000	27,571300
1953,000000	27,482000
1952,000000	27,395100
1951,000000	27,291200
1950,000000	27,200700
1949,000000	27,125300
1948,000000	27,068400
1947,000000	26,942300
1946,000000	26,890100
1945,000000	26,844700
1944,000000	26,758500
1943,000000	26,723500
1942,000000	26,675300
1941,000000	26,627600
1940,000000	26,599500
1939,000000	26,563800
1938,000000	26,581900
1937,000000	26,564400
1936,000000	26,554500
1935,000000	26,567500
1934,000000	26,579700
1933,000000	26,619000
1932,000000	26,669000
1931,000000	26,735500
1930,000000	26,793700
1929,000000	26,908100
1928,000000	26,990600
1927,000000	27,099700
1926,000000	27,221900
1925,000000	27,359800
1924,000000	27,481000
1923,000000	27,624300
1922,000000	27,795300
1921,000000	28,055700
1920,000000	28,299400
1919,000000	28,482000
1918,000000	28,733500
1917,000000	28,964400
1916,000000	29,166500
1915,000000	29,436800
1914,000000	29,790700
1913,000000	30,167100
1912,000000	30,531800
1911,000000	30,856500
1910,000000	31,218800
1909,000000	31,532300
1908,000000	31,917300
1907,000000	32,363400
1906,000000	32,873300
1905,000000	33,451100
1904,000000	33,981300
1903,000000	34,496700
1902,000000	35,028900
1901,000000	35,588800
1900,000000	36,204400
1899,000000	36,832500
1898,000000	37,478600
1897,000000	38,049200
1896,000000	38,578100
1895,000000	39,099900
1894,000000	39,648400
1893,000000	40,269700
1892,000000	40,905700
1891,000000	41,541200
1890,000000	42,104900
1889,000000	42,601700
1888,000000	43,143800
1887,000000	43,630600
1886,000000	44,095800
1885,000000	44,566400
1884,000000	45,027200
1883,000000	45,422000
1882,000000	45,781900
1881,000000	46,154100
1880,000000	46,453000
1879,000000	46,772000
1878,000000	47,088500
1877,000000	47,356900
1876,000000	47,629400
1875,000000	47,909600
1874,000000	48,182500
1873,000000	48,428600
1872,000000	48,647900
1871,000000	48,836200
1870,000000	48,970100
1869,000000	49,098800
1868,000000	49,232900
1867,000000	49,309900
1866,000000	49,360700
1865,000000	49,418800
1864,000000	49,471000
1863,000000	49,536600
1862,000000	49,642800
1861,000000	49,747200
1860,000000	49,835600
1859,000000	49,907000
1858,000000	49,965600
1857,000000	50,016400
1856,000000	50,037000
1855,000000	50,071400
1854,000000	50,091500
1853,000000	50,080200
1852,000000	50,096600
1851,000000	50,133200
1850,000000	50,188200
1849,000000	50,256000
1848,000000	50,278500
1847,000000	50,248200
1846,000000	50,183100
1845,000000	50,129200
1844,000000	50,095400
1843,000000	50,118100
1842,000000	50,155900
1841,000000	50,145600
1840,000000	50,112400
1839,000000	50,080700
1838,000000	50,052600
1837,000000	50,012400
1836,000000	49,952800
1835,000000	49,877700
1834,000000	49,800900
1833,000000	49,744900
1832,000000	49,714900
1831,000000	49,701600
1830,000000	49,684500
1829,000000	49,648200
1828,000000	49,591000
1827,000000	49,566700
1826,000000	49,544700
1825,000000	49,505300
1824,000000	49,488000
1823,000000	49,533100
1822,000000	49,589200
1821,000000	49,615100
1820,000000	49,602900
1819,000000	49,553100
1818,000000	49,515300
1817,000000	49,497600
1816,000000	49,505700
1815,000000	49,500400
1814,000000	49,484800
1813,000000	49,469200
1812,000000	49,453700
1811,000000	49,431200
1810,000000	49,398600
1809,000000	49,368400
1808,000000	49,340900
1807,000000	49,348200
1806,000000	49,331400
1805,000000	49,285200
1804,000000	49,266100
1803,000000	49,274700
1802,000000	49,276700
1801,000000	49,255200
1800,000000	49,221900
1799,000000	49,169900
1798,000000	49,149900
1797,000000	49,147000
1796,000000	49,134500
1795,000000	49,116700
1794,000000	49,090300
1793,000000	49,081500
1792,000000	49,086200
1791,000000	49,078000
1790,000000	49,071100
1789,000000	49,073500
1788,000000	49,082600
1787,000000	49,102800
1786,000000	49,112200
1785,000000	49,121500
1784,000000	49,106000
1783,000000	49,109700
1782,000000	49,101300
1781,000000	49,094600
1780,000000	49,078900
1779,000000	49,075300
1778,000000	49,050200
1777,000000	49,020900
1776,000000	48,975800
1775,000000	48,942500
1774,000000	48,912800
1773,000000	48,883000
1772,000000	48,844800
1771,000000	48,811600
1770,000000	48,774000
1769,000000	48,741700
1768,000000	48,707300
1767,000000	48,674000
1766,000000	48,637900
1765,000000	48,622100
1764,000000	48,605100
1763,000000	48,579200
1762,000000	48,574300
1761,000000	48,564100
1760,000000	48,556300
1759,000000	48,554900
1758,000000	48,559200
1757,000000	48,550100
1756,000000	48,522700
1755,000000	48,527900
1754,000000	48,543400
1753,000000	48,535600
1752,000000	48,531600
1751,000000	48,506900
1750,000000	48,458300
1749,000000	48,441800
1748,000000	48,404400
1747,000000	48,349300
1746,000000	48,274600
1745,000000	48,211000
1744,000000	48,141100
1743,000000	48,066300
1742,000000	47,987000
1741,000000	47,914600
1740,000000	47,846400
1739,000000	47,755900
1738,000000	47,699400
1737,000000	47,628300
1736,000000	47,576300
1735,000000	47,535900
1734,000000	47,481600
1733,000000	47,449600
1732,000000	47,398600
1731,000000	47,350600
1730,000000	47,295500
1729,000000	47,261100
1728,000000	47,219800
1727,000000	47,183600
1726,000000	47,155500
1725,000000	47,165400
1724,000000	47,167800
1723,000000	47,213200
1722,000000	47,307800
1721,000000	47,439200
1720,000000	47,614900
1719,000000	47,820200
1718,000000	48,046700
1717,000000	48,278200
1716,000000	48,494800
1715,000000	48,719800
1714,000000	48,911100
1713,000000	49,100500
1712,000000	49,260200
1711,000000	49,409100
1710,000000	49,542700
1709,000000	49,655000
1708,000000	49,748800
1707,000000	49,856800
1706,000000	49,910100
1705,000000	49,959700
1704,000000	50,001100
1703,000000	50,027600
1702,000000	50,030200
1701,000000	50,042100
1700,000000	50,055400
1699,000000	50,061300
1698,000000	50,048800
1697,000000	50,025100
1696,000000	49,978300
1695,000000	49,928400
1694,000000	49,867600
1693,000000	49,797400
1692,000000	49,710200
1691,000000	49,633800
1690,000000	49,569100
1689,000000	49,535200
1688,000000	49,548600
1687,000000	49,627100
1686,000000	49,726300
1685,000000	49,908000
1684,000000	50,076500
1683,000000	50,290000
1682,000000	50,495800
1681,000000	50,715300
1680,000000	50,921800
1679,000000	51,120200
1678,000000	51,317900
1677,000000	51,507600
1676,000000	51,702800
1675,000000	51,835800
1674,000000	52,001200
1673,000000	52,165500
1672,000000	52,336500
1671,000000	52,496200
1670,000000	52,676800
1669,000000	52,839500
1668,000000	53,009700
1667,000000	53,168500
1666,000000	53,304300
1665,000000	53,452300
1664,000000	53,585000
1663,000000	53,715600
1662,000000	53,842800
1661,000000	53,971700
1660,000000	54,080600
1659,000000	54,179400
1658,000000	54,265200
1657,000000	54,338600
1656,000000	54,414300
1655,000000	54,457000
1654,000000	54,507700
1653,000000	54,551300
1652,000000	54,586300
1651,000000	54,614000
1650,000000	54,636400
1649,000000	54,643600
1648,000000	54,647000
1647,000000	54,637600
1646,000000	54,603000
1645,000000	54,610600
1644,000000	54,609900
1643,000000	54,603300
1642,000000	54,596600
1641,000000	54,602200
1640,000000	54,571100
1639,000000	54,581000
1638,000000	54,572700
1637,000000	54,569600
1636,000000	54,550500
1635,000000	54,522000
1634,000000	54,507500
1633,000000	54,472500
1632,000000	54,439400
1631,000000	54,411000
1630,000000	54,368500
1629,000000	54,340000
1628,000000	54,301100
1627,000000	54,272500
1626,000000	54,237400
1625,000000	54,207100
1624,000000	54,167400
1623,000000	54,145700
1622,000000	54,131700
1621,000000	54,107800
1620,000000	54,069100
1619,000000	54,052400
1618,000000	54,032400
1617,000000	54,006500
1616,000000	53,972000
1615,000000	53,949700
1614,000000	53,912900
1613,000000	53,882200
1612,000000	53,859000
1611,000000	53,823500
1610,000000	53,782900
1609,000000	53,731600
1608,000000	53,669800
1607,000000	53,624400
1606,000000	53,571400
1605,000000	53,510900
1604,000000	53,451100
1603,000000	53,386200
1602,000000	53,329400
1601,000000	53,278200
1600,000000	53,215600
1599,000000	53,157100
1598,000000	53,097000
1597,000000	53,052700
1596,000000	53,000200
1595,000000	52,945500
1594,000000	52,898000
1593,000000	52,862600
1592,000000	52,819700
1591,000000	52,785900
1590,000000	52,744700
1589,000000	52,704200
1588,000000	52,679000
1587,000000	52,647100
1586,000000	52,607300
1585,000000	52,575600
1584,000000	52,546100
1583,000000	52,514000
1582,000000	52,477100
1581,000000	52,459100
1580,000000	52,439000
1579,000000	52,424400
1578,000000	52,415500
1577,000000	52,406200
1576,000000	52,400400
1575,000000	52,404700
1574,000000	52,414800
1573,000000	52,417400
1572,000000	52,426500
1571,000000	52,447800
1570,000000	52,476500
1569,000000	52,490000
1568,000000	52,512300
1567,000000	52,552700
1566,000000	52,579600
1565,000000	52,604900
1564,000000	52,632400
1563,000000	52,639700
1562,000000	52,653900
1561,000000	52,662600
1560,000000	52,654700
1559,000000	52,642700
1558,000000	52,611000
1557,000000	52,571500
1556,000000	52,545900
1555,000000	52,504500
1554,000000	52,449600
1553,000000	52,388300
1552,000000	52,322700
1551,000000	52,246500
1550,000000	52,172500
1549,000000	52,105900
1548,000000	52,033900
1547,000000	51,962000
1546,000000	51,894000
1545,000000	51,834000
1544,000000	51,780700
1543,000000	51,733800
1542,000000	51,686000
1541,000000	51,641000
1540,000000	51,605900
1539,000000	51,568900
1538,000000	51,530000
1537,000000	51,493800
1536,000000	51,454900
1535,000000	51,407000
1534,000000	51,360600
1533,000000	51,312500
1532,000000	51,266500
1531,000000	51,209100
1530,000000	51,145000
1529,000000	51,077100
1528,000000	51,023400
1527,000000	50,963100
1526,000000	50,900000
1525,000000	50,839600
1524,000000	50,772000
1523,000000	50,702800
1522,000000	50,626900
1521,000000	50,565200
1520,000000	50,508300
1519,000000	50,437500
1518,000000	50,365300
1517,000000	50,295400
1516,000000	50,206700
1515,000000	50,135600
1514,000000	50,068900
1513,000000	50,010800
1512,000000	49,938600
1511,000000	49,859300
1510,000000	49,773600
1509,000000	49,712800
1508,000000	49,640900
1507,000000	49,560700
1506,000000	49,491100
1505,000000	49,430300
1504,000000	49,378000
1503,000000	49,335300
1502,000000	49,286100
1501,000000	49,228400
1500,000000	49,193800
1499,000000	49,161200
1498,000000	49,137500
1497,000000	49,129300
1496,000000	49,128500
1495,000000	49,129600
1494,000000	49,144100
1493,000000	49,150500
1492,000000	49,176700
1491,000000	49,201700
1490,000000	49,236800
1489,000000	49,267600
1488,000000	49,324800
1487,000000	49,374300
1486,000000	49,417100
1485,000000	49,458100
1484,000000	49,479900
1483,000000	49,540000
1482,000000	49,594900
1481,000000	49,639100
1480,000000	49,679000
1479,000000	49,738100
1478,000000	49,780900
1477,000000	49,852000
1476,000000	49,889800
1475,000000	49,941400
1474,000000	50,023900
1473,000000	50,118900
1472,000000	50,205000
1471,000000	50,300800
1470,000000	50,377500
1469,000000	50,428400
1468,000000	50,517700
1467,000000	50,615400
1466,000000	50,726500
1465,000000	50,803900
1464,000000	50,899700
1463,000000	50,994700
1462,000000	51,094600
1461,000000	51,192400
1460,000000	51,291500
1459,000000	51,384700
1458,000000	51,498300
1457,000000	51,617000
1456,000000	51,727400
1455,000000	51,809700
1454,000000	51,907300
1453,000000	52,025300
1452,000000	52,175100
1451,000000	52,275300
1450,000000	52,355100
1449,000000	52,417900
1448,000000	52,507900
1447,000000	52,659600
1446,000000	52,802200
1445,000000	52,876800
1444,000000	52,949300
1443,000000	53,070500
1442,000000	53,189300
1441,000000	53,268700
1440,000000	53,407700
1439,000000	53,493300
1438,000000	53,655300
1437,000000	53,769900
1436,000000	53,882300
1435,000000	54,015300
1434,000000	54,178600
1433,000000	54,330600
1432,000000	54,488500
1431,000000	54,637000
1430,000000	54,774300
1429,000000	54,953100
1428,000000	55,138800
1427,000000	55,304300
1426,000000	55,499900
1425,000000	55,720700
1424,000000	55,963100
1423,000000	56,154500
1422,000000	56,358700
1421,000000	56,636700
1420,000000	56,932400
1419,000000	57,198700
1418,000000	57,430900
1417,000000	57,609700
1416,000000	57,943900
1415,000000	58,297300
1414,000000	58,638800
1413,000000	58,903500
1412,000000	59,135300
1411,000000	59,536400
1410,000000	59,959000
1409,000000	60,314800
1408,000000	60,654000
1407,000000	60,971800
1406,000000	61,318400
1405,000000	61,653200
1404,000000	61,903500
1403,000000	62,253100
1402,000000	62,614400
1401,000000	63,097400
1400,000000	63,325500
1399,000000	63,488700
1398,000000	63,695600
1397,000000	64,028600
1396,000000	64,420800
1395,000000	64,642800
1394,000000	64,786000
1393,000000	64,977600
1392,000000	65,234300
1391,000000	65,405900
1390,000000	65,611000
1389,000000	65,877600
1388,000000	66,154500
1387,000000	66,339300
1386,000000	66,537200
1385,000000	66,761400
1384,000000	67,041100
1383,000000	67,193100
1382,000000	67,329400
1381,000000	67,379800
1380,000000	67,312200
1379,000000	67,482100
1378,000000	67,537500
1377,000000	67,609600
1376,000000	67,671500
1375,000000	67,745000
1374,000000	67,830100
1373,000000	67,951500
1372,000000	68,077300
1371,000000	68,164600
1370,000000	68,241600
1369,000000	68,353800
1368,000000	68,413200
1367,000000	68,455300
1366,000000	68,540300
1365,000000	68,639900
1364,000000	68,701700
1363,000000	68,806400
1362,000000	68,877900
1361,000000	68,898100
1360,000000	68,877500
1359,000000	68,873200
1358,000000	68,912600
1357,000000	68,962100
1356,000000	69,048200
1355,000000	69,143600
1354,000000	69,179400
1353,000000	69,206400
1352,000000	69,354300
1351,000000	69,461600
1350,000000	69,580500
1349,000000	69,703500
1348,000000	69,823500
1347,000000	69,917000
1346,000000	70,018300
1345,000000	70,139400
1344,000000	70,261900
1343,000000	70,339200
1342,000000	70,438200
1341,000000	70,547300
1340,000000	70,632500
1339,000000	70,709700
1338,000000	70,784600
1337,000000	70,873900
1336,000000	70,942100
1335,000000	71,001300
1334,000000	71,062800
1333,000000	71,128400
1332,000000	71,188300
1331,000000	71,249400
1330,000000	71,297500
1329,000000	71,337600
1328,000000	71,370200
1327,000000	71,413500
1326,000000	71,448100
1325,000000	71,478600
1324,000000	71,518100
1323,000000	71,550600
1322,000000	71,583100
1321,000000	71,615400
1320,000000	71,645200
1319,000000	71,663400
1318,000000	71,689300
1317,000000	71,711600
1316,000000	71,741700
1315,000000	71,766500
1314,000000	71,778800
1313,000000	71,808400
1312,000000	71,831300
1311,000000	71,841600
1310,000000	71,860500
1309,000000	71,873600
1308,000000	71,893600
1307,000000	71,918100
1306,000000	71,929100
1305,000000	71,941600
1304,000000	71,952000
1303,000000	71,953700
1302,000000	71,966200
1301,000000	71,975700
1300,000000	71,980200
1299,000000	71,980500
1298,000000	71,984700
1297,000000	71,980900
1296,000000	71,969300
1295,000000	71,962600
1294,000000	71,958700
1293,000000	71,959000
1292,000000	71,945200
1291,000000	71,921200
1290,000000	71,901600
1289,000000	71,879700
1288,000000	71,852600
1287,000000	71,833000
1286,000000	71,821800
1285,000000	71,797500
1284,000000	71,762200
1283,000000	71,743300
1282,000000	71,730100
1281,000000	71,701200
1280,000000	71,678000
1279,000000	71,650800
1278,000000	71,631600
1277,000000	71,625300
1276,000000	71,610900
1275,000000	71,594300
1274,000000	71,593700
1273,000000	71,590900
1272,000000	71,582200
1271,000000	71,570800
1270,000000	71,570200
1269,000000	71,563900
1268,000000	71,557700
1267,000000	71,552100
1266,000000	71,541300
1265,000000	71,533600
1264,000000	71,529500
1263,000000	71,516500
1262,000000	71,519400
1261,000000	71,519500
1260,000000	71,498900
1259,000000	71,482800
1258,000000	71,475900
1257,000000	71,463200
1256,000000	71,455500
1255,000000	71,442200
1254,000000	71,417300
1253,000000	71,405000
1252,000000	71,389200
1251,000000	71,341000
1250,000000	71,314600
1249,000000	71,256300
1248,000000	71,221700
1247,000000	71,194000
1246,000000	71,140800
1245,000000	71,102100
1244,000000	71,068000
1243,000000	71,012800
1242,000000	70,956600
1241,000000	70,916300
1240,000000	70,867200
1239,000000	70,830400
1238,000000	70,779900
1237,000000	70,747700
1236,000000	70,718900
1235,000000	70,682400
1234,000000	70,635500
1233,000000	70,602100
1232,000000	70,572700
1231,000000	70,534800
1230,000000	70,496900
1229,000000	70,467200
1228,000000	70,421700
1227,000000	70,398500
1226,000000	70,356900
1225,000000	70,344200
1224,000000	70,321300
1223,000000	70,306100
1222,000000	70,264700
1221,000000	70,236400
1220,000000	70,224400
1219,000000	70,195200
1218,000000	70,164200
1217,000000	70,148900
1216,000000	70,129500
1215,000000	70,093300
1214,000000	70,069200
1213,000000	70,048300
1212,000000	70,029500
1211,000000	69,991700
1210,000000	69,939100
1209,000000	69,903800
1208,000000	69,859100
1207,000000	69,811700
1206,000000	69,779000
1205,000000	69,745700
1204,000000	69,702100
1203,000000	69,660500
1202,000000	69,609400
1201,000000	69,557400
1200,000000	69,510800
1199,000000	69,451100
1198,000000	69,407100
1197,000000	69,354000
1196,000000	69,290400
1195,000000	69,225500
1194,000000	69,179600
1193,000000	69,114900
1192,000000	69,045900
1191,000000	69,014900
1190,000000	68,964000
1189,000000	68,928500
1188,000000	68,891800
1187,000000	68,883600
1186,000000	68,874000
1185,000000	68,855500
1184,000000	68,863200
1183,000000	68,876200
1182,000000	68,899800
1181,000000	68,919800
1180,000000	68,945300
1179,000000	68,967800
1178,000000	68,999600
1177,000000	69,018300
1176,000000	69,054400
1175,000000	69,066100
1174,000000	69,090600
1173,000000	69,112700
1172,000000	69,160700
1171,000000	69,205600
1170,000000	69,248700
1169,000000	69,302900
1168,000000	69,361000
1167,000000	69,414300
1166,000000	69,472400
1165,000000	69,543300
1164,000000	69,627500
1163,000000	69,685100
1162,000000	69,737100
1161,000000	69,798200
1160,000000	69,864200
1159,000000	69,930000
1158,000000	69,986300
1157,000000	70,027600
1156,000000	70,066400
1155,000000	70,110200
1154,000000	70,161400
1153,000000	70,196400
1152,000000	70,198500
1151,000000	70,235600
1150,000000	70,240100
1149,000000	70,261400
1148,000000	70,266900
1147,000000	70,302800
1146,000000	70,304100
1145,000000	70,297300
1144,000000	70,304300
1143,000000	70,327400
1142,000000	70,338100
1141,000000	70,365800
1140,000000	70,384500
1139,000000	70,435300
1138,000000	70,478900
1137,000000	70,550600
1136,000000	70,591700
1135,000000	70,648200
1134,000000	70,671600
1133,000000	70,652500
1132,000000	70,696500
1131,000000	70,733700
1130,000000	70,789300
1129,000000	70,815400
1128,000000	70,837400
1127,000000	70,846900
1126,000000	70,859700
1125,000000	70,865700
1124,000000	70,890000
1123,000000	70,900900
1122,000000	70,890200
1121,000000	70,871500
1120,000000	70,858700
1119,000000	70,841700
1118,000000	70,823100
1117,000000	70,812200
1116,000000	70,787400
1115,000000	70,771000
1114,000000	70,768200
1113,000000	70,735000
1112,000000	70,720600
1111,000000	70,712900
1110,000000	70,698900
1109,000000	70,673100
1108,000000	70,657700
1107,000000	70,631700
1106,000000	70,617400
1105,000000	70,605500
1104,000000	70,570500
1103,000000	70,556400
1102,000000	70,527700
1101,000000	70,500200
1100,000000	70,485000
1099,000000	70,472600
1098,000000	70,450800
1097,000000	70,409400
1096,000000	70,390000
1095,000000	70,361700
1094,000000	70,347200
1093,000000	70,316300
1092,000000	70,281000
1091,000000	70,245800
1090,000000	70,204100
1089,000000	70,183800
1088,000000	70,152200
1087,000000	70,121300
1086,000000	70,079900
1085,000000	70,040600
1084,000000	70,009800
1083,000000	69,983800
1082,000000	69,941800
1081,000000	69,896600
1080,000000	69,847000
1079,000000	69,794000
1078,000000	69,758900
1077,000000	69,723300
1076,000000	69,690100
1075,000000	69,654300
1074,000000	69,621100
1073,000000	69,586500
1072,000000	69,552100
1071,000000	69,511100
1070,000000	69,457300
1069,000000	69,420700
1068,000000	69,384700
1067,000000	69,360400
1066,000000	69,317500
1065,000000	69,276600
1064,000000	69,239500
1063,000000	69,202900
1062,000000	69,166900
1061,000000	69,130700
1060,000000	69,109600
1059,000000	69,083900
1058,000000	69,034100
1057,000000	68,994800
1056,000000	68,974400
1055,000000	68,952300
1054,000000	68,913300
1053,000000	68,882700
1052,000000	68,862500
1051,000000	68,854500
1050,000000	68,824200
1049,000000	68,789600
1048,000000	68,765400
1047,000000	68,746600
1046,000000	68,727900
1045,000000	68,707800
1044,000000	68,686600
1043,000000	68,664300
1042,000000	68,648300
1041,000000	68,627000
1040,000000	68,615100
1039,000000	68,595700
1038,000000	68,575500
1037,000000	68,563000
1036,000000	68,547000
1035,000000	68,526100
1034,000000	68,503700
1033,000000	68,512100
1032,000000	68,501000
1031,000000	68,475800
1030,000000	68,476100
1029,000000	68,463800
1028,000000	68,431400
1027,000000	68,410900
1026,000000	68,410700
1025,000000	68,417300
1024,000000	68,410000
1023,000000	68,397100
1022,000000	68,373200
1021,000000	68,352700
1020,000000	68,356800
1019,000000	68,362500
1018,000000	68,355000
1017,000000	68,346400
1016,000000	68,357200
1015,000000	68,358100
1014,000000	68,350500
1013,000000	68,357300
1012,000000	68,351600
1011,000000	68,358300
1010,000000	68,364800
1009,000000	68,354600
1008,000000	68,362300
1007,000000	68,389500
1006,000000	68,410200
1005,000000	68,419100
1004,000000	68,425300
1003,000000	68,428700
1002,000000	68,443000
1001,000000	68,460000
1000,000000	68,472600
999,000000	68,470900
998,000000	68,486200
997,000000	68,512300
996,000000	68,529700
995,000000	68,541700
994,000000	68,554400
993,000000	68,579800
992,000000	68,621100
991,000000	68,654100
990,000000	68,679400
989,000000	68,699100
988,000000	68,736400
987,000000	68,778400
986,000000	68,807600
985,000000	68,854800
984,000000	68,912200
983,000000	68,967300
982,000000	69,004000
981,000000	69,055700
980,000000	69,128500
979,000000	69,197800
978,000000	69,256600
977,000000	69,318900
976,000000	69,401100
975,000000	69,460100
974,000000	69,536200
973,000000	69,610800
972,000000	69,692500
971,000000	69,767000
970,000000	69,860000
969,000000	69,925500
968,000000	70,016600
967,000000	70,125600
966,000000	70,211500
965,000000	70,289600
964,000000	70,380700
963,000000	70,477900
962,000000	70,577500
961,000000	70,667500
960,000000	70,777300
959,000000	70,873400
958,000000	70,967400
957,000000	71,061500
956,000000	71,147700
955,000000	71,255600
954,000000	71,366100
953,000000	71,451900
952,000000	71,551400
951,000000	71,664700
950,000000	71,733100
949,000000	71,848100
948,000000	71,935900
947,000000	72,006000
946,000000	72,115700
945,000000	72,221800
944,000000	72,304400
943,000000	72,383000
942,000000	72,488600
941,000000	72,560700
940,000000	72,642500
939,000000	72,733700
938,000000	72,852900
937,000000	72,927100
936,000000	73,008600
935,000000	73,108400
934,000000	73,186000
933,000000	73,260100
932,000000	73,371000
931,000000	73,433100
930,000000	73,506000
929,000000	73,618100
928,000000	73,646400
927,000000	73,745700
926,000000	73,814700
925,000000	73,912400
924,000000	73,949800
923,000000	74,024700
922,000000	74,086900
921,000000	74,147900
920,000000	74,196800
919,000000	74,265200
918,000000	74,304500
917,000000	74,426900
916,000000	74,462100
915,000000	74,454400
914,000000	74,486700
913,000000	74,530700
912,000000	74,643600
911,000000	74,653200
910,000000	74,661700
909,000000	74,639100
908,000000	74,657400
907,000000	74,680900
906,000000	74,780800
905,000000	74,766200
904,000000	74,756000
903,000000	74,703900
902,000000	74,698100
901,000000	74,687800
900,000000	74,667200
899,000000	74,661900
898,000000	74,655700
897,000000	74,627500
896,000000	74,577000
895,000000	74,536000
894,000000	74,431600
893,000000	74,425400
892,000000	74,355500
891,000000	74,304400
890,000000	74,238400
889,000000	74,093900
888,000000	74,042100
887,000000	73,968900
886,000000	73,894400
885,000000	73,717300
884,000000	73,636500
883,000000	73,480900
882,000000	73,416700
881,000000	73,335700
880,000000	73,212600
879,000000	73,034100
878,000000	72,915600
877,000000	72,744300
876,000000	72,620800
875,000000	72,433100
874,000000	72,289000
873,000000	72,093700
872,000000	71,914600
871,000000	71,646000
870,000000	71,389300
869,000000	71,162500
868,000000	70,956300
867,000000	70,648900
866,000000	70,372900
865,000000	70,139500
864,000000	70,065300
863,000000	70,079200
862,000000	70,060100
861,000000	70,077900
860,000000	70,060800
859,000000	70,062500
858,000000	71,262100
857,000000	78,466300
856,000000	78,470300
855,000000	77,842300
854,000000	78,231600
853,000000	78,597600
852,000000	78,200600
851,000000	78,622400
850,000000	78,600900
849,000000	78,450900
848,000000	78,061500
847,000000	78,000900
846,000000	77,831400
845,000000	77,870200
844,000000	77,709900
843,000000	77,682700
842,000000	77,827800
841,000000	77,408800
840,000000	77,521100
839,000000	77,681400
838,000000	77,453400
837,000000	77,237700
836,000000	77,102400
835,000000	77,083400
834,000000	76,811800
833,000000	76,633800
832,000000	76,601900
831,000000	76,577900
830,000000	76,398200
829,000000	76,362700
828,000000	76,063300
827,000000	75,896600
826,000000	76,005300
825,000000	75,742100
824,000000	75,469100
823,000000	75,456800
822,000000	75,319000
821,000000	75,066600
820,000000	74,934000
819,000000	74,865400
818,000000	74,688600
817,000000	74,502800
816,000000	74,419900
815,000000	74,283900
814,000000	74,226300
813,000000	74,081000
812,000000	73,945400
811,000000	73,914900
810,000000	73,792800
809,000000	73,546600
808,000000	73,442900
807,000000	73,352900
806,000000	73,267700
805,000000	73,157900
804,000000	72,947500
803,000000	72,736700
802,000000	72,627700
801,000000	72,453300
800,000000	72,173900
799,000000	72,068000
798,000000	72,023300
797,000000	72,013600
796,000000	71,820100
795,000000	71,608000
794,000000	71,486400
793,000000	71,320000
792,000000	71,188200
791,000000	70,993200
790,000000	70,814100
789,000000	70,759400
788,000000	70,651000
787,000000	70,636200
786,000000	70,549700
785,000000	70,335200
784,000000	70,194200
783,000000	70,087900
782,000000	69,924300
781,000000	69,737000
780,000000	69,672600
779,000000	69,557200
778,000000	69,376700
777,000000	69,174100
776,000000	69,049600
775,000000	68,903800
774,000000	68,689700
773,000000	68,541000
772,000000	68,411300
771,000000	68,230200
770,000000	68,091700
769,000000	67,959400
768,000000	67,847000
767,000000	67,640400
766,000000	67,478200
765,000000	67,365800
764,000000	67,272400
763,000000	67,122600
762,000000	66,969200
761,000000	66,786200
760,000000	66,632900
759,000000	66,534100
758,000000	66,374200
757,000000	66,225700
756,000000	66,095800
755,000000	65,995300
754,000000	65,868200
753,000000	65,682200
752,000000	65,582700
751,000000	65,436100
750,000000	65,234700
749,000000	65,139000
748,000000	65,011800
747,000000	64,856600
746,000000	64,710600
745,000000	64,526100
744,000000	64,393000
743,000000	64,209500
742,000000	63,965200
741,000000	63,881200
740,000000	63,723600
739,000000	63,502700
738,000000	63,340200
737,000000	63,139600
736,000000	62,965300
735,000000	62,807800
734,000000	62,618500
733,000000	62,407000
732,000000	62,233800
731,000000	62,036100
730,000000	61,799900
729,000000	61,665500
728,000000	61,509100
727,000000	61,265600
726,000000	61,107900
725,000000	60,942300
724,000000	60,656700
723,000000	60,427100
722,000000	60,214600
721,000000	59,992500
720,000000	59,784400
719,000000	59,624000
718,000000	59,433700
717,000000	59,221200
716,000000	59,049700
715,000000	58,837600
714,000000	58,613500
713,000000	58,411500
712,000000	58,145900
711,000000	57,958800
710,000000	57,739900
709,000000	57,500800
708,000000	57,334400
707,000000	57,133700
706,000000	56,936000
705,000000	56,733200
704,000000	56,529800
703,000000	56,341000
702,000000	56,123900
701,000000	55,962100
700,000000	55,741800
699,000000	55,515100
698,000000	55,314500
697,000000	55,067600
696,000000	54,832800
695,000000	54,625000
694,000000	54,358600
693,000000	54,133300
692,000000	53,854700
691,000000	53,626400
690,000000	53,374300
689,000000	53,045900
688,000000	52,760900
687,000000	52,496500
686,000000	52,197500
685,000000	51,959300
684,000000	51,662300
683,000000	51,417100
682,000000	51,148500
681,000000	50,848000
680,000000	50,577600
679,000000	50,375000
678,000000	50,110700
677,000000	49,842500
676,000000	49,670700
675,000000	49,425400
674,000000	49,246700
673,000000	49,046000
672,000000	48,807700
671,000000	48,620100
670,000000	48,401900
669,000000	48,198600
668,000000	48,007100
667,000000	47,822900
666,000000	47,606700
665,000000	47,381400
664,000000	47,225000
663,000000	47,038900
662,000000	46,834300
661,000000	46,641100
660,000000	46,482000
659,000000	46,328700
658,000000	46,206800
657,000000	46,062000
656,000000	45,892300
655,000000	45,797700
654,000000	45,723200
653,000000	45,603500
652,000000	45,501500
651,000000	45,464700
650,000000	45,386600
649,000000	45,323600
648,000000	45,233300
647,000000	45,215200
646,000000	45,150400
645,000000	45,101500
644,000000	45,053900
643,000000	44,999800
642,000000	44,944600
641,000000	44,880000
640,000000	44,824200
639,000000	44,748900
638,000000	44,722000
637,000000	44,652100
636,000000	44,568000
635,000000	44,471900
634,000000	44,350000
633,000000	44,273700
632,000000	44,119000
631,000000	43,996700
630,000000	43,871500
629,000000	43,724400
628,000000	43,616700
627,000000	43,493000
626,000000	43,416100
625,000000	43,323500
624,000000	43,257500
623,000000	43,181700
622,000000	43,133500
621,000000	43,109900
620,000000	43,060800
619,000000	43,065400
618,000000	43,112600
617,000000	43,154500
616,000000	43,236300
615,000000	43,343400
614,000000	43,509600
613,000000	43,688900
612,000000	43,917900
611,000000	44,175200
610,000000	44,487600
609,000000	44,879700
608,000000	45,300500
607,000000	45,762000
606,000000	46,276500
605,000000	46,909200
604,000000	47,519900
603,000000	48,192900
602,000000	48,892600
601,000000	49,609700
600,000000	50,351700
599,000000	51,089000
598,000000	51,800100
597,000000	52,521400
596,000000	53,253000
595,000000	53,993900
594,000000	54,667800
593,000000	55,404100
592,000000	56,058800
591,000000	56,708000
590,000000	57,287000
589,000000	57,851800
588,000000	58,340800
587,000000	58,792100
586,000000	59,155200
585,000000	59,617700
584,000000	59,878000
583,000000	60,188200
582,000000	60,395600
581,000000	60,625200
580,000000	60,782300
579,000000	60,972600
578,000000	61,066800
577,000000	61,186400
576,000000	61,332300
575,000000	61,418700
574,000000	61,536800
573,000000	61,659300
572,000000	61,785100
571,000000	61,857200
570,000000	62,022200
569,000000	62,146600
568,000000	62,189600
567,000000	62,265300
566,000000	62,364600
565,000000	62,428800
564,000000	62,440900
563,000000	62,474200
562,000000	62,471000
561,000000	62,496300
560,000000	62,429600
559,000000	62,321100
558,000000	62,262100
557,000000	62,176000
556,000000	62,107600
555,000000	62,011000
554,000000	61,887100
553,000000	61,729400
552,000000	61,618500
551,000000	61,449500
550,000000	61,292900
549,000000	61,095900
548,000000	60,850200
547,000000	60,612800
546,000000	60,303300
545,000000	59,962600
544,000000	59,561100
543,000000	59,151800
542,000000	58,674900
541,000000	58,175500
540,000000	57,623200
539,000000	57,044500
538,000000	56,452800
537,000000	55,857800
536,000000	55,214600
535,000000	54,551600
534,000000	53,875100
533,000000	53,120600
532,000000	52,367500
531,000000	51,577400
530,000000	50,766100
529,000000	49,920800
528,000000	49,056500
527,000000	48,179000
526,000000	47,255600
525,000000	46,315200
524,000000	45,326700
523,000000	44,348100
522,000000	43,336000
521,000000	42,270600
520,000000	41,217000
519,000000	40,162200
518,000000	39,104200
517,000000	38,078600
516,000000	37,041500
515,000000	36,002100
514,000000	34,995800
513,000000	34,010800
512,000000	33,069600
511,000000	32,150700
510,000000	31,279500
509,000000	30,444900
508,000000	29,661500
507,000000	28,893800
506,000000	28,146100
505,000000	27,464200
504,000000	26,768500
503,000000	26,097900
502,000000	25,479300
501,000000	24,873600
500,000000	24,259400
499,000000	23,670400
498,000000	23,124200
497,000000	22,608400
496,000000	22,079300
495,000000	21,572900
494,000000	21,110600
493,000000	20,650100
492,000000	20,246800
491,000000	19,872800
490,000000	19,506400
489,000000	19,173800
488,000000	18,903800
487,000000	18,654700
486,000000	18,434700
485,000000	18,245700
484,000000	18,079600
483,000000	17,939000
482,000000	17,837200
481,000000	17,741900
480,000000	17,644400
479,000000	17,576500
478,000000	17,515500
477,000000	17,434300
476,000000	17,381200
475,000000	17,320100
474,000000	17,248300
473,000000	17,173600
472,000000	17,103800
471,000000	17,024800
470,000000	16,924400
469,000000	16,829900
468,000000	16,738800
467,000000	16,647500
466,000000	16,555900
465,000000	16,457600
464,000000	16,358200
463,000000	16,255300
462,000000	16,146100
461,000000	16,041700
460,000000	15,946500
459,000000	15,830000
458,000000	15,706600
457,000000	15,584400
456,000000	15,456100
455,000000	15,334000
454,000000	15,190400
453,000000	15,039300
452,000000	14,897900
451,000000	14,733800
450,000000	14,557800
449,000000	14,397000
448,000000	14,219800
447,000000	14,052400
446,000000	13,866700
445,000000	13,659300
444,000000	13,464100
443,000000	13,284800
442,000000	13,100500
441,000000	12,892900
440,000000	12,679600
439,000000	12,471900
438,000000	12,268400
437,000000	12,060100
436,000000	11,872700
435,000000	11,679800
434,000000	11,467900
433,000000	11,270900
432,000000	11,068000
431,000000	10,864200
430,000000	10,675900
429,000000	10,496900
428,000000	10,322300
427,000000	10,126700
426,000000	9,951300
425,000000	9,767400
424,000000	9,584100
423,000000	9,417900
422,000000	9,235000
421,000000	9,051200
420,000000	8,876000
419,000000	8,711400
418,000000	8,549000
417,000000	8,406500
416,000000	8,255000
415,000000	8,116900
414,000000	7,999700
413,000000	7,859300
412,000000	7,728400
411,000000	7,626100
410,000000	7,507000
409,000000	7,399500
408,000000	7,286900
407,000000	7,195400
406,000000	7,122900
405,000000	7,028000
404,000000	6,961600
403,000000	6,900100
402,000000	6,841500
401,000000	6,784200
400,000000	6,721300
399,000000	6,671500
398,000000	6,632200
397,000000	6,616200
396,000000	6,572200
395,000000	6,544400
394,000000	6,521400
393,000000	6,494500
392,000000	6,462000
391,000000	6,424700
390,000000	6,421500
389,000000	6,418700
388,000000	6,400500
387,000000	6,376700
386,000000	6,356200
385,000000	6,352000
384,000000	6,340700
383,000000	6,330100
382,000000	6,320600
381,000000	6,317000
380,000000	6,301900
379,000000	6,290300
378,000000	6,283300
377,000000	6,298100
376,000000	6,386400
375,000000	6,213000
374,000000	6,002300
373,000000	6,144700
372,000000	6,242600
371,000000	6,152600
370,000000	6,079100
369,000000	6,171900
368,000000	6,140000
367,000000	6,140900
366,000000	6,204600
365,000000	6,287700
364,000000	6,282700
363,000000	6,234000
362,000000	6,312500
361,000000	6,084000
360,000000	6,240800
359,000000	6,253400
358,000000	6,179600
357,000000	6,277400
356,000000	6,312100
355,000000	6,305100
354,000000	6,305800
353,000000	6,297600
352,000000	6,305400
351,000000	6,345900
350,000000	6,254900
349,000000	6,404700
348,000000	6,177800
347,000000	6,273600
346,000000	6,352000
345,000000	6,459700
344,000000	6,401400
343,000000	6,417800
342,000000	6,287300
341,000000	6,209000
340,000000	6,335300
339,000000	6,315400
338,000000	6,261900
337,000000	6,313400
336,000000	6,303500
335,000000	6,171900
334,000000	6,220700
333,000000	6,440900
332,000000	6,653600
331,000000	6,523900
330,000000	6,603500
329,000000	6,708300
328,000000	6,492000
327,000000	6,549500
326,000000	6,753000
325,000000	6,424300
324,000000	7,251500
323,000000	6,798200
322,000000	6,677200
321,000000	7,179600
320,000000	7,021600
319,000000	7,057200
318,000000	7,162500
317,000000	6,978600
316,000000	6,352700
315,000000	6,324000
314,000000	6,297900
313,000000	6,444300
312,000000	6,394000
311,000000	6,372900
310,000000	6,375700
309,000000	6,346500
308,000000	6,432700
307,000000	6,419100
306,000000	6,471100
305,000000	6,474500
304,000000	6,368200
303,000000	6,399000
302,000000	6,426700
301,000000	6,456400
300,000000	6,484300
299,000000	6,421100
298,000000	6,473100
297,000000	6,489500
296,000000	6,512100
295,000000	6,469100
294,000000	6,428300
293,000000	6,483600
292,000000	6,411600
291,000000	6,451900
290,000000	6,517900
289,000000	6,447000
288,000000	6,477300
287,000000	6,453500
286,000000	6,483300
285,000000	6,565500
284,000000	6,499100
283,000000	6,482500
282,000000	6,504400
281,000000	6,466800
280,000000	6,552400
279,000000	6,532000
278,000000	6,546300
277,000000	6,556200
276,000000	6,551100
275,000000	6,616300
274,000000	6,618100
273,000000	6,581200
272,000000	6,638800
271,000000	6,703100
270,000000	6,723100
269,000000	6,736700
268,000000	6,748700
267,000000	6,791400
266,000000	6,826600
265,000000	6,916100
264,000000	6,846600
263,000000	6,918200
262,000000	6,977700
261,000000	7,010000
260,000000	7,042400
259,000000	7,072000
258,000000	7,108800
257,000000	7,133000
256,000000	7,153600
255,000000	7,171500
254,000000	7,198200
253,000000	7,205400
252,000000	7,284000
251,000000	7,261400
250,000000	7,325200
