Time1=100ms:Average1=5:Objective=10X:Aperture=1: (11/21/2018 2:16:04 PM)
11/21/2018 2:16:04 PM
Reflectance
10X
Ap#: 1
Avg1: 5.000000
Avg2: 0.000000
Int.Time1:100.000000

420.190645	10.228811
420.624620	10.301813
421.058582	10.391518
421.492531	10.488509
421.926468	10.588515
422.360391	10.694215
422.794301	10.810182
423.228199	10.935402
423.662083	11.069939
424.095955	11.221475
424.529813	11.372222
424.963658	11.527637
425.397491	11.684947
425.831310	11.844706
426.265116	12.001162
426.698909	12.169824
427.132689	12.333345
427.566455	12.511380
428.000209	12.697260
428.433949	12.878076
428.867676	13.056351
429.301389	13.235412
429.735090	13.420590
430.168777	13.593669
430.602451	13.769024
431.036111	13.947517
431.469759	14.131294
431.903392	14.319537
432.337013	14.501152
432.770620	14.690303
433.204213	14.862731
433.637794	15.050550
434.071360	15.230765
434.504914	15.409879
434.938453	15.587191
435.371979	15.770935
435.805492	15.950802
436.238991	16.131071
436.672477	16.303006
437.105949	16.474293
437.539407	16.637235
437.972852	16.793529
438.406283	16.953933
438.839700	17.103465
439.273104	17.256605
439.706494	17.403614
440.139871	17.554818
440.573233	17.695019
441.006582	17.838853
441.439917	17.973100
441.873238	18.106016
442.306546	18.237618
442.739839	18.361198
443.173119	18.482183
443.606385	18.614274
444.039636	18.745408
444.472874	18.875415
444.906099	18.989975
445.339309	19.113159
445.772505	19.235528
446.205687	19.356416
446.638855	19.472424
447.072009	19.580467
447.505149	19.680420
447.938275	19.772543
448.371387	19.870945
448.804485	19.961000
449.237569	20.041798
449.670638	20.125408
450.103694	20.204202
450.536735	20.284025
450.969762	20.359608
451.402774	20.432416
451.835773	20.499454
452.268757	20.583633
452.701727	20.652762
453.134683	20.730823
453.567624	20.802600
454.000551	20.875313
454.433464	20.940536
454.866362	21.012575
455.299246	21.086893
455.732116	21.157845
456.164971	21.226856
456.597811	21.297691
457.030638	21.359316
457.463449	21.433133
457.896246	21.482329
458.329029	21.531834
458.761797	21.575517
459.194551	21.621343
459.627290	21.656596
460.060014	21.690761
460.492724	21.724144
460.925419	21.755768
461.358099	21.800185
461.790765	21.824235
462.223416	21.839778
462.656052	21.861462
463.088674	21.877502
463.521281	21.901273
463.953873	21.924629
464.386450	21.929887
464.819012	21.948447
465.251560	21.964552
465.684093	21.970591
466.116611	21.982508
466.549114	21.992003
466.981602	21.995288
467.414075	21.987360
467.846533	21.972370
468.278977	21.946596
468.711405	21.918312
469.143818	21.892107
469.576216	21.864236
470.008600	21.822674
470.440968	21.776606
470.873321	21.716772
471.305659	21.657284
471.737982	21.594485
472.170289	21.524016
472.602582	21.445683
473.034859	21.365478
473.467122	21.278736
473.899369	21.184413
474.331600	21.094782
474.763817	20.991293
475.196018	20.895343
475.628204	20.799178
476.060375	20.698125
476.492530	20.583622
476.924670	20.470136
477.356795	20.348101
477.788904	20.238891
478.220998	20.111092
478.653076	19.977094
479.085139	19.840143
479.517186	19.700225
479.949219	19.548960
480.381235	19.406384
480.813236	19.269866
481.245221	19.133484
481.677191	18.996276
482.109146	18.843928
482.541084	18.688907
482.973008	18.529386
483.404915	18.377378
483.836807	18.221679
484.268683	18.068210
484.700544	17.913642
485.132388	17.769108
485.564217	17.632335
485.996031	17.499796
486.427828	17.374500
486.859610	17.258826
487.291376	17.153823
487.723126	17.059810
488.154860	16.970837
488.586579	16.889730
489.018281	16.821590
489.449968	16.760203
489.881639	16.717563
490.313293	16.678184
490.744932	16.650102
491.176555	16.632177
491.608162	16.627964
492.039753	16.640859
492.471328	16.660113
492.902886	16.690090
493.334429	16.731541
493.765956	16.779849
494.197466	16.835887
494.628960	16.901981
495.060439	16.978423
495.491901	17.068448
495.923347	17.162956
496.354776	17.262948
496.786190	17.368449
497.217587	17.484613
497.648968	17.605062
498.080332	17.738967
498.511681	17.871849
498.943013	18.008290
499.374328	18.149695
499.805628	18.298854
500.236911	18.448143
500.668177	18.598725
501.099427	18.742833
501.530661	18.889736
501.961878	19.032227
502.393079	19.165908
502.824264	19.300746
503.255431	19.426383
503.686583	19.535584
504.117717	19.645503
504.548835	19.742630
504.979937	19.830907
505.411022	19.906441
505.842090	19.981579
506.273142	20.052002
506.704177	20.112910
507.135195	20.164230
507.566197	20.208877
507.997182	20.242439
508.428150	20.267000
508.859102	20.282209
509.290036	20.290934
509.720954	20.291086
510.151855	20.288176
510.582739	20.272276
511.013607	20.251587
511.444457	20.219406
511.875291	20.183199
512.306107	20.138975
512.736907	20.090121
513.167690	20.034253
513.598456	19.972964
514.029205	19.908246
514.459936	19.838953
514.890651	19.767716
515.321349	19.689795
515.752030	19.610833
516.182693	19.522186
516.613340	19.427930
517.043969	19.338755
517.474582	19.244375
517.905177	19.149450
518.335755	19.055656
518.766315	18.959471
519.196859	18.864317
519.627385	18.763229
520.057894	18.667086
520.488386	18.574111
520.918860	18.484576
521.349318	18.399976
521.779757	18.316564
522.210180	18.240758
522.640585	18.167483
523.070973	18.101960
523.501343	18.037155
523.931696	17.981110
524.362031	17.930332
524.792349	17.888855
525.222650	17.857164
525.652933	17.833993
526.083198	17.819859
526.513446	17.810873
526.943677	17.815010
527.373890	17.827387
527.804085	17.856423
528.234262	17.889655
528.664422	17.940363
529.094565	17.996736
529.524689	18.067250
529.954796	18.151107
530.384885	18.244609
530.814957	18.345999
531.245011	18.456069
531.675047	18.576375
532.105065	18.713151
532.535065	18.859663
532.965048	19.020532
533.395013	19.196024
533.824959	19.377668
534.254888	19.571678
534.684799	19.785090
535.114693	20.008958
535.544568	20.239461
535.974425	20.473475
536.404264	20.712324
536.834086	20.953039
537.263889	21.196285
537.693674	21.442943
538.123441	21.690838
538.553190	21.934702
538.982921	22.181943
539.412634	22.428288
539.842329	22.679642
540.272006	22.933176
540.701664	23.190622
541.131304	23.443516
541.560926	23.709474
541.990530	23.973049
542.420116	24.246352
542.849683	24.515164
543.279232	24.784929
543.708763	25.063514
544.138275	25.338723
544.567769	25.616759
544.997245	25.889886
545.426702	26.166074
545.856141	26.440236
546.285562	26.718788
546.714964	26.994020
547.144347	27.278347
547.573713	27.565826
548.003059	27.852600
548.432387	28.147322
548.861697	28.446286
549.290988	28.753268
549.720260	29.064127
550.149514	29.379289
550.578750	29.700180
551.007966	30.027491
551.437164	30.355715
551.866344	30.693499
552.295504	31.026921
552.724646	31.356698
553.153769	31.687204
553.582874	32.016189
554.011960	32.334949
554.441027	32.652349
554.870075	32.957626
555.299104	33.254942
555.728115	33.540774
556.157106	33.826444
556.586079	34.105613
557.015033	34.372233
557.443968	34.643912
557.872884	34.912855
558.301781	35.182925
558.730659	35.438593
559.159518	35.699795
559.588358	35.956647
560.017180	36.208866
560.445982	36.451606
560.874765	36.686898
561.303528	36.914747
561.732273	37.133349
562.160999	37.340020
562.589705	37.536606
563.018393	37.728319
563.447061	37.910845
563.875710	38.093803
564.304340	38.264027
564.732950	38.433387
565.161542	38.596707
565.590114	38.767053
566.018666	38.941406
566.447200	39.113050
566.875714	39.287465
567.304208	39.467135
567.732684	39.647848
568.161140	39.825506
568.589576	40.007580
569.017993	40.184738
569.446391	40.358148
569.874769	40.522212
570.303128	40.688562
570.731467	40.848818
571.159787	40.993673
571.588087	41.128268
572.016368	41.271150
572.444629	41.401799
572.872870	41.523472
573.301092	41.646441
573.729294	41.764137
574.157476	41.876598
574.585639	41.984496
575.013782	42.085486
575.441906	42.188956
575.870009	42.292957
576.298093	42.393126
576.726157	42.492640
577.154202	42.583038
577.582226	42.675640
578.010231	42.767727
578.438216	42.858805
578.866181	42.942502
579.294126	43.019846
579.722051	43.097640
580.149957	43.166411
580.577842	43.233029
581.005707	43.290943
581.433553	43.358177
581.861378	43.409029
582.289184	43.465752
582.716969	43.519235
583.144734	43.576769
583.572479	43.634930
584.000205	43.679827
584.427910	43.730771
584.855594	43.787619
585.283259	43.831107
585.710904	43.877164
586.138528	43.926127
586.566132	43.964853
586.993716	44.008253
587.421280	44.047619
587.848823	44.085945
588.276346	44.120819
588.703849	44.152695
589.131332	44.172376
589.558794	44.191412
589.986236	44.205953
590.413657	44.221124
590.841058	44.228140
591.268438	44.230569
591.695799	44.229824
592.123138	44.233280
592.550458	44.237925
592.977756	44.238628
593.405034	44.246492
593.832292	44.249294
594.259529	44.258175
594.686746	44.260032
595.113942	44.276235
595.541117	44.286573
595.968272	44.302714
596.395406	44.318907
596.822519	44.328889
597.249612	44.352939
597.676684	44.380813
598.103735	44.407161
598.530766	44.440802
598.957775	44.473480
599.384764	44.503929
599.811733	44.545641
600.238680	44.579299
600.665606	44.621714
601.092512	44.656165
601.519397	44.695456
601.946261	44.733203
602.373104	44.776175
602.799926	44.820401
603.226727	44.862932
603.653507	44.896806
604.080266	44.929666
604.507004	44.962772
604.933721	44.990967
605.360417	45.011541
605.787092	45.027780
606.213746	45.045426
606.640379	45.050929
607.066991	45.055480
607.493581	45.051770
607.920150	45.049145
608.346699	45.035013
608.773226	45.022644
609.199731	44.993176
609.626216	44.960785
610.052679	44.923969
610.479121	44.879979
610.905542	44.824058
611.331941	44.766866
611.758319	44.705995
612.184676	44.640999
612.611011	44.572114
613.037325	44.494985
613.463617	44.422566
613.889888	44.337197
614.316138	44.258949
614.742366	44.175991
615.168573	44.092752
615.594758	44.005958
616.020921	43.917769
616.447063	43.832012
616.873184	43.753089
617.299283	43.673835
617.725360	43.596836
618.151416	43.522635
618.577450	43.444890
619.003462	43.376921
619.429453	43.302218
619.855422	43.236040
620.281369	43.177742
620.707295	43.115826
621.133199	43.050632
621.559081	42.987734
621.984941	42.922852
622.410779	42.865942
622.836596	42.808635
623.262391	42.747538
623.688163	42.682151
624.113914	42.619446
624.539644	42.548786
624.965351	42.474478
625.391036	42.399813
625.816699	42.320410
626.242340	42.231146
626.667960	42.130488
627.093557	42.026582
627.519132	41.913522
627.944685	41.788962
628.370216	41.648997
628.795725	41.509002
629.221212	41.348636
629.646677	41.180950
630.072119	41.001886
630.497540	40.809444
630.922938	40.609078
631.348314	40.392892
631.773668	40.170004
632.198999	39.934440
632.624308	39.685701
633.049595	39.426322
633.474860	39.152726
633.900102	38.875978
634.325322	38.587227
634.750520	38.289158
635.175695	37.984702
635.600848	37.672744
636.025978	37.350158
636.451086	37.027165
636.876171	36.691898
637.301234	36.346083
637.726275	35.995098
638.151293	35.640908
638.576288	35.271258
639.001261	34.896086
639.426211	34.514537
639.851139	34.126551
640.276044	33.732324
640.700927	33.327313
641.125787	32.916808
641.550624	32.503483
641.975438	32.085235
642.400230	31.663667
642.824999	31.237638
643.249745	30.805379
643.674469	30.377576
644.099169	29.942548
644.523847	29.516036
644.948502	29.091083
645.373135	28.665678
645.797744	28.251011
646.222330	27.843122
646.646894	27.441133
647.071435	27.046713
647.495953	26.662110
647.920447	26.290863
648.344919	25.928044
648.769368	25.576259
649.193794	25.235636
649.618197	24.901620
650.042576	24.584599
650.466933	24.284063
650.891267	23.997831
651.315577	23.720661
651.739864	23.458509
652.164129	23.209897
652.588370	22.973107
653.012587	22.749828
653.436782	22.542557
653.860953	22.350910
654.285102	22.173109
654.709226	22.011492
655.133328	21.862986
655.557406	21.730684
655.981461	21.614517
656.405493	21.518892
656.829501	21.439174
657.253486	21.379393
657.677448	21.334184
658.101386	21.307776
658.525301	21.300163
658.949192	21.308387
659.373060	21.331280
659.796904	21.371130
660.220725	21.429077
660.644522	21.500235
661.068296	21.588084
661.492046	21.689368
661.915772	21.806173
662.339475	21.936761
662.763154	22.079537
663.186810	22.232481
663.610442	22.394514
664.034050	22.566904
664.457635	22.747145
664.881196	22.943519
665.304733	23.145060
665.728247	23.356383
666.151736	23.576307
666.575202	23.800031
666.998644	24.029505
667.422062	24.266574
667.845457	24.508789
668.268827	24.751870
668.692174	25.000981
669.115496	25.254290
669.538795	25.509233
669.962070	25.769418
670.385321	26.028633
670.808547	26.287669
671.231750	26.542438
671.654929	26.794620
672.078084	27.045080
672.501214	27.289175
672.924321	27.534852
673.347404	27.770607
673.770462	28.005063
674.193496	28.226941
674.616506	28.445297
675.039492	28.652828
675.462454	28.854081
675.885391	29.047605
676.308305	29.233461
676.731194	29.414608
677.154058	29.587110
677.576899	29.757706
677.999715	29.916213
678.422507	30.066698
678.845274	30.209871
679.268017	30.351931
679.690736	30.488519
680.113430	30.619322
680.536100	30.748068
680.958746	30.873811
681.381367	31.000938
681.803963	31.124821
682.226535	31.248269
682.649083	31.373556
683.071605	31.501688
683.494104	31.628596
683.916578	31.756939
684.339027	31.893433
684.761451	32.034762
685.183851	32.175236
685.606227	32.327333
686.028577	32.476037
686.450903	32.636833
686.873204	32.798507
687.295481	32.967890
687.717733	33.137443
688.139959	33.308478
688.562162	33.487088
688.984339	33.671512
689.406492	33.858569
689.828619	34.044667
690.250722	34.234468
690.672800	34.421063
691.094853	34.612701
691.516881	34.809105
691.938884	35.008835
692.360863	35.199449
692.782816	35.392629
693.204744	35.585879
693.626647	35.772266
694.048526	35.960065
694.470379	36.142859
694.892207	36.325138
695.314010	36.501554
695.735788	36.674682
696.157540	36.837056
696.579268	37.000577
697.000970	37.159666
697.422648	37.312308
697.844300	37.456171
698.265926	37.599101
698.687528	37.735417
699.109104	37.862959
699.530655	37.980059
699.952181	38.098343
