Time1=100ms:Average1=5:Objective=10X:Aperture=1: (11/21/2018 2:50:25 PM)
11/21/2018 2:50:25 PM
Reflectance
10X
Ap#: 1
Avg1: 5.000000
Avg2: 0.000000
Int.Time1:100.000000

420.190645	8.266377
420.624620	8.278016
421.058582	8.294447
421.492531	8.316619
421.926468	8.344450
422.360391	8.382230
422.794301	8.449658
423.228199	8.516563
423.662083	8.592074
424.095955	8.683375
424.529813	8.779193
424.963658	8.899736
425.397491	9.016231
425.831310	9.137561
426.265116	9.265416
426.698909	9.390682
427.132689	9.521745
427.566455	9.666138
428.000209	9.825390
428.433949	9.976481
428.867676	10.136423
429.301389	10.293913
429.735090	10.454338
430.168777	10.617261
430.602451	10.776112
431.036111	10.950086
431.469759	11.124031
431.903392	11.302396
432.337013	11.479463
432.770620	11.661210
433.204213	11.840308
433.637794	12.031633
434.071360	12.219880
434.504914	12.402274
434.938453	12.591719
435.371979	12.778794
435.805492	12.978345
436.238991	13.165559
436.672477	13.345963
437.105949	13.533638
437.539407	13.712482
437.972852	13.884006
438.406283	14.053561
438.839700	14.219746
439.273104	14.391648
439.706494	14.548064
440.139871	14.710913
440.573233	14.866695
441.006582	15.023762
441.439917	15.165025
441.873238	15.302043
442.306546	15.438670
442.739839	15.568215
443.173119	15.695071
443.606385	15.823055
444.039636	15.953058
444.472874	16.072876
444.906099	16.194665
445.339309	16.320685
445.772505	16.439572
446.205687	16.552275
446.638855	16.653992
447.072009	16.750505
447.505149	16.839414
447.938275	16.935958
448.371387	17.019988
448.804485	17.098934
449.237569	17.163174
449.670638	17.230671
450.103694	17.292621
450.536735	17.348393
450.969762	17.392599
451.402774	17.442487
451.835773	17.478332
452.268757	17.525788
452.701727	17.559347
453.134683	17.598564
453.567624	17.635885
454.000551	17.678028
454.433464	17.701841
454.866362	17.737895
455.299246	17.773828
455.732116	17.798896
456.164971	17.834085
456.597811	17.865477
457.030638	17.892614
457.463449	17.919858
457.896246	17.939118
458.329029	17.953850
458.761797	17.963878
459.194551	17.969010
459.627290	17.968531
460.060014	17.966953
460.492724	17.963428
460.925419	17.957383
461.358099	17.952513
461.790765	17.936750
462.223416	17.917982
462.656052	17.909269
463.088674	17.890391
463.521281	17.876002
463.953873	17.861102
464.386450	17.843731
464.819012	17.825589
465.251560	17.813419
465.684093	17.792624
466.116611	17.781968
466.549114	17.772596
466.981602	17.755893
467.414075	17.734899
467.846533	17.718072
468.278977	17.691959
468.711405	17.670999
469.143818	17.655111
469.576216	17.628174
470.008600	17.599155
470.440968	17.558549
470.873321	17.525411
471.305659	17.484762
471.737982	17.451446
472.170289	17.411609
472.602582	17.366331
473.034859	17.325394
473.467122	17.277750
473.899369	17.233693
474.331600	17.194046
474.763817	17.147601
475.196018	17.114885
475.628204	17.081921
476.060375	17.041127
476.492530	16.998290
476.924670	16.958149
477.356795	16.916490
477.788904	16.880418
478.220998	16.836865
478.653076	16.791810
479.085139	16.743133
479.517186	16.693444
479.949219	16.636675
480.381235	16.585614
480.813236	16.536234
481.245221	16.485938
481.677191	16.433959
482.109146	16.365508
482.541084	16.296810
482.973008	16.224464
483.404915	16.147773
483.836807	16.071632
484.268683	15.990237
484.700544	15.909598
485.132388	15.825786
485.564217	15.740721
485.996031	15.656625
486.427828	15.573135
486.859610	15.493458
487.291376	15.405860
487.723126	15.314047
488.154860	15.218270
488.586579	15.114356
489.018281	15.015015
489.449968	14.914407
489.881639	14.814545
490.313293	14.711664
490.744932	14.605677
491.176555	14.493907
491.608162	14.385537
492.039753	14.275485
492.471328	14.157937
492.902886	14.034538
493.334429	13.910082
493.765956	13.779952
494.197466	13.647029
494.628960	13.511462
495.060439	13.375522
495.491901	13.248308
495.923347	13.117756
496.354776	12.989754
496.786190	12.863860
497.217587	12.744053
497.648968	12.619379
498.080332	12.496324
498.511681	12.369137
498.943013	12.244850
499.374328	12.122332
499.805628	11.997998
500.236911	11.882306
500.668177	11.773027
501.099427	11.670405
501.530661	11.575316
501.961878	11.493735
502.393079	11.419136
502.824264	11.356938
503.255431	11.304030
503.686583	11.255114
504.117717	11.217349
504.548835	11.187210
504.979937	11.162466
505.411022	11.142000
505.842090	11.133939
506.273142	11.134695
506.704177	11.143383
507.135195	11.159850
507.566197	11.185593
507.997182	11.221731
508.428150	11.266395
508.859102	11.314678
509.290036	11.369911
509.720954	11.428074
510.151855	11.495175
510.582739	11.560931
511.013607	11.629046
511.444457	11.700665
511.875291	11.782343
512.306107	11.865798
512.736907	11.955179
513.167690	12.057815
513.598456	12.161830
514.029205	12.273219
514.459936	12.390546
514.890651	12.517159
515.321349	12.642411
515.752030	12.772637
516.182693	12.894020
516.613340	13.015325
517.043969	13.140333
517.474582	13.262494
517.905177	13.386333
518.335755	13.509839
518.766315	13.635518
519.196859	13.764860
519.627385	13.892055
520.057894	14.026498
520.488386	14.163559
520.918860	14.304639
521.349318	14.453161
521.779757	14.606564
522.210180	14.766896
522.640585	14.931295
523.070973	15.101453
523.501343	15.272127
523.931696	15.450444
524.362031	15.633629
524.792349	15.826169
525.222650	16.020899
525.652933	16.222301
526.083198	16.434440
526.513446	16.649795
526.943677	16.874337
527.373890	17.110255
527.804085	17.360790
528.234262	17.612894
528.664422	17.882088
529.094565	18.152816
529.524689	18.443023
529.954796	18.743754
530.384885	19.050344
530.814957	19.361445
531.245011	19.676380
531.675047	19.994680
532.105065	20.320269
532.535065	20.644399
532.965048	20.973027
533.395013	21.301129
533.824959	21.628653
534.254888	21.953461
534.684799	22.290115
535.114693	22.629410
535.544568	22.969973
535.974425	23.312935
536.404264	23.660907
536.834086	24.012044
537.263889	24.362102
537.693674	24.711965
538.123441	25.066317
538.553190	25.414177
538.982921	25.763799
539.412634	26.099817
539.842329	26.425622
540.272006	26.743647
540.701664	27.051621
541.131304	27.342763
541.560926	27.629129
541.990530	27.904564
542.420116	28.175774
542.849683	28.436466
543.279232	28.690218
543.708763	28.948211
544.138275	29.203452
544.567769	29.466226
544.997245	29.727183
545.426702	29.990728
545.856141	30.258034
546.285562	30.537251
546.714964	30.811729
547.144347	31.094048
547.573713	31.380490
548.003059	31.661343
548.432387	31.941397
548.861697	32.223464
549.290988	32.495397
549.720260	32.765217
550.149514	33.023744
550.578750	33.278786
551.007966	33.533046
551.437164	33.776569
551.866344	34.027995
552.295504	34.274149
552.724646	34.518608
553.153769	34.768060
553.582874	35.020302
554.011960	35.268902
554.441027	35.520311
554.870075	35.770300
555.299104	36.012518
555.728115	36.252511
556.157106	36.489609
556.586079	36.714976
557.015033	36.925943
557.443968	37.125936
557.872884	37.311879
558.301781	37.495928
558.730659	37.655278
559.159518	37.812737
559.588358	37.954129
560.017180	38.086073
560.445982	38.206467
560.874765	38.323006
561.303528	38.430897
561.732273	38.532656
562.160999	38.629931
562.589705	38.731701
563.018393	38.828879
563.447061	38.925636
563.875710	39.025702
564.304340	39.126183
564.732950	39.226652
565.161542	39.319812
565.590114	39.418489
566.018666	39.517517
566.447200	39.619028
566.875714	39.723279
567.304208	39.824497
567.732684	39.922896
568.161140	40.019911
568.589576	40.114258
569.017993	40.206370
569.446391	40.292170
569.874769	40.378203
570.303128	40.463018
570.731467	40.550587
571.159787	40.632082
571.588087	40.704992
572.016368	40.796407
572.444629	40.877120
572.872870	40.955593
573.301092	41.039990
573.729294	41.122115
574.157476	41.201421
574.585639	41.283958
575.013782	41.362670
575.441906	41.439910
575.870009	41.514629
576.298093	41.590353
576.726157	41.669848
577.154202	41.741221
577.582226	41.811377
578.010231	41.882362
578.438216	41.955457
578.866181	42.020803
579.294126	42.086983
579.722051	42.144361
580.149957	42.195857
580.577842	42.249160
581.005707	42.295609
581.433553	42.346373
581.861378	42.393244
582.289184	42.440178
582.716969	42.479431
583.144734	42.519288
583.572479	42.561850
584.000205	42.590734
584.427910	42.620736
584.855594	42.655943
585.283259	42.670072
585.710904	42.690800
586.138528	42.707408
586.566132	42.712604
586.993716	42.719195
587.421280	42.716519
587.848823	42.710983
588.276346	42.700447
588.703849	42.681477
589.131332	42.650282
589.558794	42.612398
589.986236	42.561517
590.413657	42.514098
590.841058	42.448988
591.268438	42.377973
591.695799	42.297063
592.123138	42.215409
592.550458	42.129081
592.977756	42.043280
593.405034	41.954335
593.832292	41.857776
594.259529	41.762341
594.686746	41.661081
595.113942	41.562544
595.541117	41.458071
595.968272	41.364266
596.395406	41.271903
596.822519	41.175458
597.249612	41.090481
597.676684	41.005787
598.103735	40.917190
598.530766	40.842342
598.957775	40.766033
599.384764	40.692870
599.811733	40.631534
600.238680	40.567536
600.665606	40.509969
601.092512	40.453440
601.519397	40.400290
601.946261	40.352434
602.373104	40.308250
602.799926	40.266786
603.226727	40.230434
603.653507	40.185324
604.080266	40.146333
604.507004	40.103513
604.933721	40.061436
605.360417	40.016172
605.787092	39.966049
606.213746	39.913905
606.640379	39.851533
607.066991	39.787785
607.493581	39.714747
607.920150	39.640574
608.346699	39.556826
608.773226	39.471913
609.199731	39.368835
609.626216	39.253504
610.052679	39.132152
610.479121	38.999226
610.905542	38.859508
611.331941	38.710938
611.758319	38.548367
612.184676	38.381727
612.611011	38.205364
613.037325	38.014396
613.463617	37.816096
613.889888	37.606057
614.316138	37.384674
614.742366	37.158028
615.168573	36.920448
615.594758	36.671977
616.020921	36.417119
616.447063	36.151012
616.873184	35.882895
617.299283	35.609275
617.725360	35.331686
618.151416	35.051768
618.577450	34.762693
619.003462	34.476846
619.429453	34.184703
619.855422	33.898338
620.281369	33.615439
620.707295	33.332982
621.133199	33.046535
621.559081	32.764529
621.984941	32.482355
622.410779	32.209322
622.836596	31.941077
623.262391	31.671797
623.688163	31.408393
624.113914	31.146038
624.539644	30.886225
624.965351	30.632510
625.391036	30.374202
625.816699	30.120034
626.242340	29.865566
626.667960	29.613838
627.093557	29.363335
627.519132	29.117538
627.944685	28.869564
628.370216	28.622990
628.795725	28.389511
629.221212	28.150071
629.646677	27.921840
630.072119	27.700715
630.497540	27.482246
630.922938	27.275370
631.348314	27.072682
631.773668	26.881477
632.198999	26.699044
632.624308	26.526057
633.049595	26.361563
633.474860	26.207446
633.900102	26.065832
634.325322	25.934818
634.750520	25.812665
635.175695	25.703158
635.600848	25.604450
636.025978	25.513457
636.451086	25.437316
636.876171	25.368681
637.301234	25.307959
637.726275	25.254556
638.151293	25.213307
638.576288	25.178114
639.001261	25.148534
639.426211	25.130498
639.851139	25.116784
640.276044	25.113601
640.700927	25.112963
641.125787	25.118191
641.550624	25.130642
641.975438	25.146782
642.400230	25.172701
642.824999	25.198745
643.249745	25.224053
643.674469	25.259700
644.099169	25.292734
644.523847	25.328596
644.948502	25.363822
645.373135	25.400692
645.797744	25.438676
646.222330	25.477856
646.646894	25.511695
647.071435	25.544989
647.495953	25.576779
647.920447	25.608911
648.344919	25.632610
648.769368	25.650474
649.193794	25.669896
649.618197	25.675571
650.042576	25.679115
650.466933	25.678901
650.891267	25.677443
651.315577	25.663892
651.739864	25.648225
652.164129	25.627964
652.588370	25.600361
653.012587	25.567616
653.436782	25.527551
653.860953	25.485810
654.285102	25.439760
654.709226	25.388508
655.133328	25.330014
655.557406	25.268191
655.981461	25.207295
656.405493	25.147128
656.829501	25.081418
657.253486	25.019116
657.677448	24.952291
658.101386	24.889062
658.525301	24.826907
658.949192	24.766506
659.373060	24.706181
659.796904	24.651028
660.220725	24.602317
660.644522	24.558265
661.068296	24.519237
661.492046	24.488570
661.915772	24.465592
662.339475	24.447963
662.763154	24.442422
663.186810	24.444746
663.610442	24.453336
664.034050	24.473376
664.457635	24.502376
664.881196	24.544852
665.304733	24.598782
665.728247	24.662809
666.151736	24.740863
666.575202	24.829345
666.998644	24.927593
667.422062	25.037284
667.845457	25.155600
668.268827	25.285539
668.692174	25.424241
669.115496	25.571709
669.538795	25.727409
669.962070	25.896343
670.385321	26.069519
670.808547	26.257135
671.231750	26.449206
671.654929	26.644283
672.078084	26.850932
672.501214	27.058999
672.924321	27.278938
673.347404	27.497963
673.770462	27.720361
674.193496	27.940726
674.616506	28.161704
675.039492	28.384777
675.462454	28.606514
675.885391	28.826037
676.308305	29.042622
676.731194	29.258857
677.154058	29.468760
677.576899	29.679775
677.999715	29.881726
678.422507	30.074732
678.845274	30.263770
679.268017	30.447300
679.690736	30.626053
680.113430	30.797938
680.536100	30.965232
680.958746	31.130414
681.381367	31.291764
681.803963	31.447881
682.226535	31.602576
682.649083	31.754865
683.071605	31.904580
683.494104	32.052817
683.916578	32.197104
684.339027	32.340058
684.761451	32.482311
685.183851	32.617199
685.606227	32.757963
686.028577	32.889731
686.450903	33.026641
686.873204	33.157715
687.295481	33.289477
687.717733	33.416511
688.139959	33.537365
688.562162	33.656160
688.984339	33.773827
689.406492	33.885742
689.828619	33.992161
690.250722	34.095280
690.672800	34.189554
691.094853	34.280051
691.516881	34.373740
691.938884	34.461895
692.360863	34.541278
692.782816	34.617323
693.204744	34.689466
693.626647	34.754395
694.048526	34.819496
694.470379	34.878070
694.892207	34.935628
695.314010	34.987631
695.735788	35.038239
696.157540	35.082681
696.579268	35.124364
697.000970	35.165905
697.422648	35.205698
697.844300	35.240339
698.265926	35.275596
698.687528	35.310425
699.109104	35.342395
699.530655	35.369436
699.952181	35.401179
